# Diamond Light Source Ltd.
# Data extracted from: /dls/b21/data/2018/cm19678-3/processed/b21-386631_00008.dat
q(1/A)          Column          Error           
0.0035000000    2.1119120000    0.0247062180    
0.0037226610    1.8906869000    0.0228842390    
0.0039453220    1.6428731000    0.0194059680    
0.0041679830    1.2854596000    0.0140970200    
0.0043906440    0.9641844100    0.0116778650    
0.0046133050    0.7901516700    0.0101485150    
0.0048359660    0.6000331800    0.0083653204    
0.0050586270    0.4696134000    0.0072740557    
0.0052812880    0.4378350400    0.0066407281    
0.0055039490    0.3861982200    0.0059302928    
0.0057266100    0.3120963100    0.0051573840    
0.0059492710    0.2720402900    0.0048150609    
0.0061719320    0.2233277600    0.0042040146    
0.0063945930    0.2071295600    0.0040977611    
0.0066172539    0.1866332500    0.0036524609    
0.0068399149    0.1712450500    0.0034435466    
0.0070625759    0.1493676100    0.0031830817    
0.0072852369    0.1259096000    0.0028787329    
0.0075078979    0.1119013800    0.0027005380    
0.0077305589    0.1009683800    0.0025163581    
0.0079532199    0.0953840330    0.0024118889    
0.0081758809    0.0895874080    0.0023591977    
0.0083985419    0.0844732930    0.0021366822    
0.0086212029    0.0796092000    0.0020742538    
0.0088438639    0.0710496820    0.0019438328    
0.0090665249    0.0654839540    0.0018023865    
0.0092891859    0.0633955440    0.0018510141    
0.0095118469    0.0579292220    0.0017015941    
0.0097345079    0.0560097070    0.0016250064    
0.0099571689    0.0536783850    0.0015580238    
0.0101798300    0.0519147400    0.0015322151    
0.0104024910    0.0507554800    0.0015098845    
0.0106251520    0.0465333510    0.0014506300    
0.0108478130    0.0460187050    0.0014048648    
0.0110704740    0.0403522450    0.0012524749    
0.0112931350    0.0443435730    0.0013168131    
0.0115157960    0.0407746880    0.0012553488    
0.0117384570    0.0390120810    0.0012173456    
0.0119611180    0.0383193820    0.0012099517    
0.0121837790    0.0371159400    0.0011707857    
0.0124064400    0.0360532310    0.0011058025    
0.0126291010    0.0335027520    0.0010526300    
0.0128517620    0.0340026560    0.0010631022    
0.0130744230    0.0338603780    0.0010530077    
0.0132970840    0.0315519630    0.0010115095    
0.0135197450    0.0330491680    0.0010204055    
0.0137424060    0.0297458990    0.0009545913    
0.0139650670    0.0318325480    0.0009655097    
0.0141877280    0.0313262920    0.0009599181    
0.0144103890    0.0296587320    0.0009179147    
0.0146330500    0.0290589190    0.0009028167    
0.0148557110    0.0283429100    0.0008878863    
0.0150783720    0.0277395850    0.0008711260    
0.0153010330    0.0289305890    0.0008770873    
0.0155236940    0.0267745500    0.0008387549    
0.0157463550    0.0271995750    0.0008307393    
0.0159690160    0.0272956920    0.0008290476    
0.0161916770    0.0271383920    0.0008219982    
0.0164143380    0.0261356790    0.0008127810    
0.0166369990    0.0249762270    0.0007700501    
0.0168596600    0.0250745330    0.0007647661    
0.0170823210    0.0259946780    0.0007719300    
0.0173049820    0.0253945640    0.0007642866    
0.0175276430    0.0247114920    0.0007618879    
0.0177503040    0.0242483990    0.0007354756    
0.0179729650    0.0242071670    0.0007275623    
0.0181956260    0.0234982840    0.0007030878    
0.0184182870    0.0242359050    0.0007106723    
0.0186409480    0.0228975780    0.0006951438    
0.0188636090    0.0225271120    0.0006851611    
0.0190862700    0.0235785190    0.0006998720    
0.0193089310    0.0225938640    0.0006840347    
0.0195315920    0.0222813650    0.0006561863    
0.0197542530    0.0240906270    0.0006833018    
0.0199769140    0.0221912930    0.0006558128    
0.0201995750    0.0229101520    0.0006559158    
0.0204222360    0.0217196480    0.0006441285    
0.0206448970    0.0224854370    0.0006507275    
0.0208675580    0.0228695580    0.0006427483    
0.0210902190    0.0222817970    0.0006405566    
0.0213128800    0.0227742370    0.0006388091    
0.0215355410    0.0240892180    0.0006491660    
0.0217582020    0.0219199730    0.0006192478    
0.0219808630    0.0217054160    0.0006154006    
0.0222035240    0.0216564980    0.0006091366    
0.0224261850    0.0210371040    0.0005950192    
0.0226488460    0.0211367900    0.0005919485    
0.0228715070    0.0217577080    0.0005990882    
0.0230941680    0.0226814710    0.0006116738    
0.0233168290    0.0213191730    0.0005944973    
0.0235394900    0.0210295530    0.0005839290    
0.0237621510    0.0223075480    0.0005852198    
0.0239848120    0.0217744400    0.0005788536    
0.0242074730    0.0207003880    0.0005598791    
0.0244301340    0.0210663860    0.0005654514    
0.0246527950    0.0215820070    0.0005776292    
0.0248754560    0.0208148620    0.0005545210    
0.0250981170    0.0211155370    0.0005597572    
0.0253207780    0.0213259080    0.0005457428    
0.0255434390    0.0214839780    0.0005536078    
0.0257661000    0.0213360320    0.0005534830    
0.0259887610    0.0204492740    0.0005361007    
0.0262114220    0.0205115070    0.0005397765    
0.0264340830    0.0205652640    0.0005331296    
0.0266567440    0.0217725030    0.0005451651    
0.0268794050    0.0218388480    0.0005437666    
0.0271020660    0.0212997760    0.0005348395    
0.0273247270    0.0207262430    0.0005244210    
0.0275473880    0.0214103870    0.0005319453    
0.0277700490    0.0210012890    0.0005237246    
0.0279927100    0.0200204000    0.0005068862    
0.0282153710    0.0209930610    0.0005215768    
0.0284380320    0.0197128590    0.0005024933    
0.0286606930    0.0210639870    0.0005149827    
0.0288833540    0.0206006370    0.0005102545    
0.0291060150    0.0200569790    0.0005029988    
0.0293286760    0.0214643620    0.0005130964    
0.0295513370    0.0197394750    0.0004866902    
0.0297739980    0.0199189490    0.0004942804    
0.0299966590    0.0209388880    0.0004981216    
0.0302193200    0.0211144960    0.0005074955    
0.0304419810    0.0202250960    0.0004976060    
0.0306646420    0.0203597350    0.0004851683    
0.0308873030    0.0207229360    0.0004873625    
0.0311099640    0.0204620080    0.0004855420    
0.0313326250    0.0208111570    0.0004842424    
0.0315552860    0.0207528710    0.0004898307    
0.0317779470    0.0209511800    0.0004925941    
0.0320006080    0.0210497230    0.0004825330    
0.0322232690    0.0204790000    0.0004779389    
0.0324459300    0.0196579190    0.0004647639    
0.0326685910    0.0201955200    0.0004702996    
0.0328912520    0.0199987590    0.0004695528    
0.0331139130    0.0207276460    0.0004718146    
0.0333365740    0.0202787560    0.0004681930    
0.0335592350    0.0205480240    0.0004667595    
0.0337818960    0.0203565300    0.0004642096    
0.0340045570    0.0199014860    0.0004582629    
0.0342272170    0.0198180770    0.0004554977    
0.0344498780    0.0200597930    0.0004600822    
0.0346725390    0.0196184510    0.0004465664    
0.0348952000    0.0197422920    0.0004459329    
0.0351178610    0.0206858020    0.0004585537    
0.0353405220    0.0202459470    0.0004515856    
0.0355631830    0.0203136660    0.0004506366    
0.0357858440    0.0203236750    0.0004507477    
0.0360085050    0.0199538640    0.0004479775    
0.0362311660    0.0203660660    0.0004472010    
0.0364538270    0.0200694470    0.0004403694    
0.0366764880    0.0200499810    0.0004398364    
0.0368991490    0.0204214410    0.0004416544    
0.0371218100    0.0188707010    0.0004233398    
0.0373444710    0.0200118200    0.0004406992    
0.0375671320    0.0196245630    0.0004357787    
0.0377897930    0.0193286980    0.0004212855    
0.0380124540    0.0197300730    0.0004283078    
0.0382351150    0.0198695550    0.0004298193    
0.0384577760    0.0193329570    0.0004198850    
0.0386804370    0.0194439770    0.0004243024    
0.0389030980    0.0200807690    0.0004279290    
0.0391257590    0.0198990130    0.0004230960    
0.0393484200    0.0195597810    0.0004180624    
0.0395710810    0.0199708990    0.0004230022    
0.0397937420    0.0203651350    0.0004271571    
0.0400164030    0.0192666010    0.0004171667    
0.0402390640    0.0203573660    0.0004231030    
0.0404617250    0.0194139730    0.0004107455    
0.0406843860    0.0200548920    0.0004134370    
0.0409070470    0.0199441060    0.0004165885    
0.0411297080    0.0201233360    0.0004144079    
0.0413523690    0.0189833860    0.0004035366    
0.0415750300    0.0192200180    0.0004094931    
0.0417976910    0.0194639810    0.0004014259    
0.0420203520    0.0199108140    0.0004075330    
0.0422430130    0.0199525990    0.0004095049    
0.0424656740    0.0199933330    0.0004045874    
0.0426883350    0.0197540430    0.0004041550    
0.0429109960    0.0205017130    0.0004130188    
0.0431336570    0.0199199920    0.0004013811    
0.0433563180    0.0198702190    0.0004043376    
0.0435789790    0.0199921130    0.0003992041    
0.0438016400    0.0189047800    0.0003903082    
0.0440243010    0.0200390640    0.0003977696    
0.0442469620    0.0193290620    0.0003930003    
0.0444696230    0.0194286830    0.0003925988    
0.0446922840    0.0192976900    0.0003901111    
0.0449149450    0.0197985200    0.0003898585    
0.0451376060    0.0199286600    0.0003959684    
0.0453602670    0.0203758090    0.0003961886    
0.0455829280    0.0194294850    0.0003864317    
0.0458055890    0.0194856830    0.0003892468    
0.0460282500    0.0198837460    0.0003884611    
0.0462509110    0.0198920110    0.0003861253    
0.0464735720    0.0194267470    0.0003817984    
0.0466962330    0.0201640960    0.0003907448    
0.0469188940    0.0191163280    0.0003793789    
0.0471415550    0.0197391640    0.0003874896    
0.0473642160    0.0192494200    0.0003772946    
0.0475868770    0.0197395650    0.0003801698    
0.0478095380    0.0200389450    0.0003813657    
0.0480321990    0.0193978830    0.0003760381    
0.0482548600    0.0202914900    0.0003829265    
0.0484775210    0.0194213370    0.0003783457    
0.0487001820    0.0194437190    0.0003730221    
0.0489228430    0.0193727880    0.0003721410    
0.0491455040    0.0199869970    0.0003753799    
0.0493681650    0.0200307750    0.0003790201    
0.0495908260    0.0196535670    0.0003691177    
0.0498134870    0.0194572580    0.0003707658    
0.0500361480    0.0193333520    0.0003686055    
0.0502588090    0.0195697540    0.0003652956    
0.0504814700    0.0190840260    0.0003654496    
0.0507041310    0.0195485200    0.0003654727    
0.0509267920    0.0196210360    0.0003676647    
0.0511494530    0.0200604190    0.0003692797    
0.0513721140    0.0196750680    0.0003689364    
0.0515947750    0.0199583640    0.0003666563    
0.0518174360    0.0191396610    0.0003568945    
0.0520400970    0.0197283510    0.0003598291    
0.0522627580    0.0196445720    0.0003621158    
0.0524854190    0.0201145660    0.0003694012    
0.0527080800    0.0193731600    0.0003653363    
0.0529307410    0.0196668300    0.0003698236    
0.0531534020    0.0193651040    0.0003656397    
0.0533760630    0.0193545400    0.0003666843    
0.0535987240    0.0189884130    0.0003615037    
0.0538213850    0.0200155070    0.0003754521    
0.0540440460    0.0197706920    0.0003713829    
0.0542667070    0.0203270450    0.0003791673    
0.0544893680    0.0195344810    0.0003718999    
0.0547120290    0.0194423370    0.0003684799    
0.0549346900    0.0192600620    0.0003669415    
0.0551573510    0.0196303080    0.0003748126    
0.0553800120    0.0198045070    0.0003732715    
0.0556026730    0.0196373690    0.0003793997    
0.0558253340    0.0196173050    0.0003823811    
0.0560479950    0.0197291250    0.0003834695    
0.0562706560    0.0193070440    0.0003830130    
0.0564933170    0.0199839670    0.0003930533    
0.0567159780    0.0196132890    0.0003847222    
0.0569386390    0.0198752880    0.0003933580    
0.0571613000    0.0199006530    0.0003851339    
0.0573839610    0.0202825820    0.0003855837    
0.0576066220    0.0199159310    0.0003831404    
0.0578292830    0.0196379060    0.0003791978    
0.0580519440    0.0190230800    0.0003746618    
0.0582746050    0.0194042340    0.0003767280    
0.0584972660    0.0194519400    0.0003757470    
0.0587199270    0.0199954530    0.0003776763    
0.0589425880    0.0194802130    0.0003705982    
0.0591652490    0.0193463370    0.0003714958    
0.0593879100    0.0194465900    0.0003696910    
0.0596105710    0.0197702710    0.0003723618    
0.0598332320    0.0196460110    0.0003743626    
0.0600558930    0.0194315080    0.0003699395    
0.0602785540    0.0198543000    0.0003735471    
0.0605012150    0.0197497290    0.0003717771    
0.0607238760    0.0192905070    0.0003647518    
0.0609465370    0.0196865120    0.0003713775    
0.0611691980    0.0189829010    0.0003652585    
0.0613918590    0.0204614340    0.0003750763    
0.0616145200    0.0199597480    0.0003731609    
0.0618371810    0.0192412830    0.0003627849    
0.0620598420    0.0188697230    0.0003596354    
0.0622825030    0.0197904200    0.0003739370    
0.0625051640    0.0194444880    0.0003654488    
0.0627278250    0.0193097700    0.0003634307    
0.0629504860    0.0199459270    0.0003663660    
0.0631731470    0.0199390530    0.0003708348    
0.0633958080    0.0200575970    0.0003740761    
0.0636184690    0.0194797990    0.0003737830    
0.0638411300    0.0193907740    0.0003715281    
0.0640637910    0.0197439080    0.0003775326    
0.0642864520    0.0197951190    0.0003772039    
0.0645091130    0.0195072270    0.0003777322    
0.0647317740    0.0191104390    0.0003742830    
0.0649544350    0.0199168740    0.0003816782    
0.0651770960    0.0200908490    0.0003812504    
0.0653997570    0.0196220250    0.0003759588    
0.0656224180    0.0198521480    0.0003789793    
0.0658450790    0.0196932060    0.0003720338    
0.0660677400    0.0197477770    0.0003741344    
0.0662904010    0.0195397960    0.0003766019    
0.0665130620    0.0196872510    0.0003763804    
0.0667357230    0.0198419650    0.0003845746    
0.0669583840    0.0193910420    0.0003789077    
0.0671810450    0.0202758760    0.0003853170    
0.0674037060    0.0194693110    0.0003839720    
0.0676263670    0.0196106150    0.0003825415    
0.0678490280    0.0196737030    0.0003808130    
0.0680716890    0.0198354000    0.0003832257    
0.0682943500    0.0195408920    0.0003762040    
0.0685170110    0.0195420440    0.0003723814    
0.0687396720    0.0198547770    0.0003743520    
0.0689623330    0.0194906770    0.0003697283    
0.0691849940    0.0198185830    0.0003754085    
0.0694076550    0.0187461170    0.0003649149    
0.0696303160    0.0190447330    0.0003648979    
0.0698529770    0.0192574000    0.0003661606    
0.0700756380    0.0202316330    0.0003704905    
0.0702982990    0.0191008600    0.0003639084    
0.0705209600    0.0191677220    0.0003619129    
0.0707436210    0.0202243590    0.0003700472    
0.0709662820    0.0192811950    0.0003656230    
0.0711889430    0.0194192200    0.0003624225    
0.0714116040    0.0194102980    0.0003630790    
0.0716342650    0.0200276950    0.0003673106    
0.0718569260    0.0194857990    0.0003608481    
0.0720795870    0.0195427150    0.0003628366    
0.0723022480    0.0200415330    0.0003679979    
0.0725249090    0.0196105520    0.0003596602    
0.0727475700    0.0190278000    0.0003573020    
0.0729702310    0.0190952510    0.0003550800    
0.0731928920    0.0192282240    0.0003577383    
0.0734155530    0.0194962810    0.0003595045    
0.0736382140    0.0198096580    0.0003600566    
0.0738608750    0.0196554320    0.0003609693    
0.0740835360    0.0193864570    0.0003576009    
0.0743061970    0.0198381660    0.0003566493    
0.0745288580    0.0188935520    0.0003516335    
0.0747515190    0.0195464360    0.0003583638    
0.0749741800    0.0198247120    0.0003575650    
0.0751968410    0.0198752140    0.0003608311    
0.0754195020    0.0192157040    0.0003527153    
0.0756421630    0.0195906690    0.0003532288    
0.0758648240    0.0196337760    0.0003544673    
0.0760874850    0.0194039420    0.0003522173    
0.0763101460    0.0197559740    0.0003550569    
0.0765328070    0.0194980800    0.0003563411    
0.0767554680    0.0191893930    0.0003511103    
0.0769781290    0.0192743160    0.0003498643    
0.0772007900    0.0195225690    0.0003492862    
0.0774234510    0.0193850180    0.0003500333    
0.0776461120    0.0197646230    0.0003531086    
0.0778687730    0.0191955680    0.0003468386    
0.0780914340    0.0193310170    0.0003505472    
0.0783140950    0.0190549340    0.0003425131    
0.0785367560    0.0193692110    0.0003508938    
0.0787594170    0.0196667560    0.0003504108    
0.0789820780    0.0192988800    0.0003453394    
0.0792047390    0.0197425030    0.0003504280    
0.0794274000    0.0196529670    0.0003511138    
0.0796500610    0.0201262010    0.0003518481    
0.0798727220    0.0192970430    0.0003442061    
0.0800953830    0.0194528480    0.0003447981    
0.0803180440    0.0190865340    0.0003439155    
0.0805407050    0.0196262940    0.0003484201    
0.0807633660    0.0188798740    0.0003414132    
0.0809860270    0.0189490600    0.0003407752    
0.0812086880    0.0189361650    0.0003377153    
0.0814313490    0.0198143330    0.0003470329    
0.0816540100    0.0196274090    0.0003446058    
0.0818766710    0.0192491340    0.0003420481    
0.0820993320    0.0198996900    0.0003471463    
0.0823219930    0.0189040470    0.0003397460    
0.0825446540    0.0200143880    0.0003470413    
0.0827673150    0.0196454380    0.0003415178    
0.0829899760    0.0193330050    0.0003381881    
0.0832126370    0.0191603800    0.0003381829    
0.0834352980    0.0194551010    0.0003400119    
0.0836579590    0.0192561850    0.0003375163    
0.0838806200    0.0195316650    0.0003409857    
0.0841032810    0.0194075080    0.0003377902    
0.0843259420    0.0197672950    0.0003398570    
0.0845486030    0.0196913630    0.0003392039    
0.0847712640    0.0195444420    0.0003358766    
0.0849939250    0.0199079760    0.0003395763    
0.0852165860    0.0203144210    0.0003434745    
0.0854392470    0.0195041410    0.0003333676    
0.0856619080    0.0192489660    0.0003336188    
0.0858845690    0.0192842560    0.0003309170    
0.0861072300    0.0194823400    0.0003349083    
0.0863298910    0.0195472860    0.0003372227    
0.0865525520    0.0194055610    0.0003330967    
0.0867752130    0.0191780430    0.0003284663    
0.0869978740    0.0192363390    0.0003298035    
0.0872205350    0.0200503470    0.0003362808    
0.0874431960    0.0191254100    0.0003284331    
0.0876658570    0.0194998970    0.0003329062    
0.0878885180    0.0197036930    0.0003352151    
0.0881111790    0.0191753380    0.0003302658    
0.0883338400    0.0197888160    0.0003305951    
0.0885565010    0.0196709980    0.0003340792    
0.0887791620    0.0196450280    0.0003295292    
0.0890018230    0.0200899600    0.0003364723    
0.0892244840    0.0193666940    0.0003309217    
0.0894471450    0.0192707120    0.0003287063    
0.0896698060    0.0191423010    0.0003263735    
0.0898924670    0.0193145580    0.0003293583    
0.0901151280    0.0194711130    0.0003271186    
0.0903377890    0.0188819530    0.0003248275    
0.0905604500    0.0196503090    0.0003298499    
0.0907831110    0.0196408080    0.0003289498    
0.0910057720    0.0194878820    0.0003291703    
0.0912284330    0.0199818070    0.0003285433    
0.0914510940    0.0192479950    0.0003260499    
0.0916737550    0.0195262900    0.0003275836    
0.0918964160    0.0197056660    0.0003304534    
0.0921190770    0.0193182800    0.0003242308    
0.0923417380    0.0190454830    0.0003220655    
0.0925643990    0.0198086810    0.0003276513    
0.0927870600    0.0188130800    0.0003206206    
0.0930097210    0.0195253110    0.0003238514    
0.0932323820    0.0197861680    0.0003284040    
