# Diamond Light Source Ltd.
# Data extracted from: /dls/b21/data/2018/cm19678-3/processed/b21-386631_00007.dat
q(1/A)          Column          Error           
0.0035000000    2.1008925000    0.0246431590    
0.0037226610    1.8579492000    0.0226866140    
0.0039453220    1.6435291000    0.0194110080    
0.0041679830    1.3151454000    0.0142597220    
0.0043906440    0.9717974400    0.0117245820    
0.0046133050    0.7868572800    0.0101279450    
0.0048359660    0.6065204300    0.0084109250    
0.0050586270    0.4655005100    0.0072425678    
0.0052812880    0.4261018800    0.0065515380    
0.0055039490    0.3882482700    0.0059463691    
0.0057266100    0.3176741600    0.0052035796    
0.0059492710    0.2718172800    0.0048133762    
0.0061719320    0.2189223400    0.0041625935    
0.0063945930    0.2039924200    0.0040668552    
0.0066172539    0.1828668100    0.0036156353    
0.0068399149    0.1700190600    0.0034314041    
0.0070625759    0.1520313600    0.0032115320    
0.0072852369    0.1275703800    0.0028978305    
0.0075078979    0.1132836200    0.0027173291    
0.0077305589    0.1001024200    0.0025056947    
0.0079532199    0.1004580500    0.0024753575    
0.0081758809    0.0961844510    0.0024446652    
0.0083985419    0.0851320720    0.0021451266    
0.0086212029    0.0785377270    0.0020603714    
0.0088438639    0.0744622090    0.0019900863    
0.0090665249    0.0642514500    0.0017854515    
0.0092891859    0.0621599650    0.0018329974    
0.0095118469    0.0630849580    0.0017758085    
0.0097345079    0.0587984010    0.0016650692    
0.0099571689    0.0540466560    0.0015634532    
0.0101798300    0.0512877980    0.0015230267    
0.0104024910    0.0478416670    0.0014659917    
0.0106251520    0.0470816730    0.0014592393    
0.0108478130    0.0433219750    0.0013631623    
0.0110704740    0.0440895430    0.0013092696    
0.0112931350    0.0439578190    0.0013111518    
0.0115157960    0.0408955500    0.0012572835    
0.0117384570    0.0376490940    0.0011959629    
0.0119611180    0.0372541260    0.0011930869    
0.0121837790    0.0371204010    0.0011709265    
0.0124064400    0.0362271680    0.0011085333    
0.0126291010    0.0352929260    0.0010804519    
0.0128517620    0.0345718600    0.0010720279    
0.0130744230    0.0313098770    0.0010126338    
0.0132970840    0.0318152070    0.0010157814    
0.0135197450    0.0306269330    0.0009823593    
0.0137424060    0.0305460620    0.0009674035    
0.0139650670    0.0303719600    0.0009431558    
0.0141877280    0.0287118650    0.0009190444    
0.0144103890    0.0294634120    0.0009149422    
0.0146330500    0.0303247760    0.0009223266    
0.0148557110    0.0300432020    0.0009141855    
0.0150783720    0.0280985980    0.0008767977    
0.0153010330    0.0288010980    0.0008751748    
0.0155236940    0.0273296160    0.0008474554    
0.0157463550    0.0263654440    0.0008179511    
0.0159690160    0.0266945680    0.0008199171    
0.0161916770    0.0270420520    0.0008205872    
0.0164143380    0.0256332340    0.0008049788    
0.0166369990    0.0247655290    0.0007668412    
0.0168596600    0.0252641710    0.0007676987    
0.0170823210    0.0255622140    0.0007655279    
0.0173049820    0.0257426930    0.0007695537    
0.0175276430    0.0246674770    0.0007612549    
0.0177503040    0.0235596940    0.0007249995    
0.0179729650    0.0239695070    0.0007240254    
0.0181956260    0.0245951630    0.0007193536    
0.0184182870    0.0237386190    0.0007033858    
0.0186409480    0.0227525860    0.0006929811    
0.0188636090    0.0233009610    0.0006968719    
0.0190862700    0.0242462020    0.0007097547    
0.0193089310    0.0227415620    0.0006863081    
0.0195315920    0.0231730870    0.0006692283    
0.0197542530    0.0224653200    0.0006598890    
0.0199769140    0.0222133440    0.0006561780    
0.0201995750    0.0228565630    0.0006551875    
0.0204222360    0.0232124400    0.0006659363    
0.0206448970    0.0229589970    0.0006575837    
0.0208675580    0.0231794390    0.0006471271    
0.0210902190    0.0221187230    0.0006382466    
0.0213128800    0.0223648030    0.0006330788    
0.0215355410    0.0228149000    0.0006318002    
0.0217582020    0.0232873030    0.0006383078    
0.0219808630    0.0219697780    0.0006191741    
0.0222035240    0.0218133190    0.0006113748    
0.0224261850    0.0212079500    0.0005974663    
0.0226488460    0.0212719700    0.0005938741    
0.0228715070    0.0223377390    0.0006070576    
0.0230941680    0.0221892700    0.0006050369    
0.0233168290    0.0218522920    0.0006019207    
0.0235394900    0.0205618190    0.0005774334    
0.0237621510    0.0213121810    0.0005720489    
0.0239848120    0.0212230120    0.0005715114    
0.0242074730    0.0200970860    0.0005516932    
0.0244301340    0.0209626630    0.0005640916    
0.0246527950    0.0220175300    0.0005834634    
0.0248754560    0.0211128550    0.0005585099    
0.0250981170    0.0208212640    0.0005558764    
0.0253207780    0.0209094440    0.0005404202    
0.0255434390    0.0221571240    0.0005622476    
0.0257661000    0.0208790850    0.0005475569    
0.0259887610    0.0197770350    0.0005272470    
0.0262114220    0.0204997660    0.0005396544    
0.0264340830    0.0214800150    0.0005448903    
0.0266567440    0.0203826050    0.0005275089    
0.0268794050    0.0207988240    0.0005306928    
0.0271020660    0.0208053720    0.0005286275    
0.0273247270    0.0203836970    0.0005201006    
0.0275473880    0.0213468710    0.0005311876    
0.0277700490    0.0198804750    0.0005095883    
0.0279927100    0.0209597710    0.0005186728    
0.0282153710    0.0212547900    0.0005248496    
0.0284380320    0.0214062030    0.0005236624    
0.0286606930    0.0202228510    0.0005046260    
0.0288833540    0.0208306320    0.0005131258    
0.0291060150    0.0201603180    0.0005043232    
0.0293286760    0.0205346640    0.0005018915    
0.0295513370    0.0198978630    0.0004886683    
0.0297739980    0.0206573540    0.0005033889    
0.0299966590    0.0200999560    0.0004880701    
0.0302193200    0.0206168620    0.0005015095    
0.0304419810    0.0212070690    0.0005095733    
0.0306646420    0.0205125000    0.0004870144    
0.0308873030    0.0197281310    0.0004755493    
0.0311099640    0.0204414220    0.0004853268    
0.0313326250    0.0194839290    0.0004685749    
0.0315552860    0.0202928510    0.0004844004    
0.0317779470    0.0200618060    0.0004820544    
0.0320006080    0.0208973760    0.0004808125    
0.0322232690    0.0200798640    0.0004732869    
0.0324459300    0.0203086650    0.0004724223    
0.0326685910    0.0202417610    0.0004708660    
0.0328912520    0.0199460330    0.0004689616    
0.0331139130    0.0202253110    0.0004660903    
0.0333365740    0.0207244390    0.0004733384    
0.0335592350    0.0200415040    0.0004609984    
0.0337818960    0.0194590740    0.0004538887    
0.0340045570    0.0200516270    0.0004600159    
0.0342272170    0.0201973940    0.0004598638    
0.0344498780    0.0204632380    0.0004647137    
0.0346725390    0.0192853240    0.0004427854    
0.0348952000    0.0202080600    0.0004511897    
0.0351178610    0.0200071510    0.0004509960    
0.0353405220    0.0201073470    0.0004500642    
0.0355631830    0.0200461590    0.0004476865    
0.0357858440    0.0187564180    0.0004330455    
0.0360085050    0.0195941530    0.0004439479    
0.0362311660    0.0198381870    0.0004413939    
0.0364538270    0.0201201790    0.0004409522    
0.0366764880    0.0199076430    0.0004382987    
0.0368991490    0.0200131250    0.0004372430    
0.0371218100    0.0202692080    0.0004387727    
0.0373444710    0.0202568810    0.0004434160    
0.0375671320    0.0198301590    0.0004380818    
0.0377897930    0.0197167240    0.0004255188    
0.0380124540    0.0201787960    0.0004331770    
0.0382351150    0.0197789530    0.0004288640    
0.0384577760    0.0192896790    0.0004194400    
0.0386804370    0.0202334270    0.0004328563    
0.0389030980    0.0198460510    0.0004254462    
0.0391257590    0.0198384260    0.0004224768    
0.0393484200    0.0199374680    0.0004221047    
0.0395710810    0.0196686380    0.0004198141    
0.0397937420    0.0195252810    0.0004182815    
0.0400164030    0.0195218610    0.0004199464    
0.0402390640    0.0197969500    0.0004172636    
0.0404617250    0.0196335890    0.0004130870    
0.0406843860    0.0199038680    0.0004119021    
0.0409070470    0.0192502910    0.0004093028    
0.0411297080    0.0205439750    0.0004187419    
0.0413523690    0.0202296450    0.0004165972    
0.0415750300    0.0195800750    0.0004133357    
0.0417976910    0.0195491210    0.0004023271    
0.0420203520    0.0203720370    0.0004122509    
0.0422430130    0.0200978930    0.0004110179    
0.0424656740    0.0201513130    0.0004062071    
0.0426883350    0.0198970040    0.0004056392    
0.0429109960    0.0193391670    0.0004011619    
0.0431336570    0.0200922480    0.0004031371    
0.0433563180    0.0200207270    0.0004058904    
0.0435789790    0.0195241510    0.0003945279    
0.0438016400    0.0191327120    0.0003926776    
0.0440243010    0.0199704040    0.0003971115    
0.0442469620    0.0205780570    0.0004055232    
0.0444696230    0.0199229420    0.0003975851    
0.0446922840    0.0198205660    0.0003953846    
0.0449149450    0.0197394780    0.0003893002    
0.0451376060    0.0199467930    0.0003961723    
0.0453602670    0.0198235380    0.0003908060    
0.0455829280    0.0202389180    0.0003944227    
0.0458055890    0.0198457460    0.0003928503    
0.0460282500    0.0196280720    0.0003859787    
0.0462509110    0.0196245460    0.0003835436    
0.0464735720    0.0199393860    0.0003868263    
0.0466962330    0.0197727310    0.0003869575    
0.0469188940    0.0196457240    0.0003846192    
0.0471415550    0.0199089020    0.0003891755    
0.0473642160    0.0191851710    0.0003766870    
0.0475868770    0.0202545260    0.0003851199    
0.0478095380    0.0198744030    0.0003798196    
0.0480321990    0.0198813920    0.0003807187    
0.0482548600    0.0199325710    0.0003795475    
0.0484775210    0.0198217280    0.0003822488    
0.0487001820    0.0196035140    0.0003745742    
0.0489228430    0.0196467980    0.0003747860    
0.0491455040    0.0193195600    0.0003690812    
0.0493681650    0.0198395220    0.0003772290    
0.0495908260    0.0194548640    0.0003672691    
0.0498134870    0.0192688160    0.0003689882    
0.0500361480    0.0201299070    0.0003761450    
0.0502588090    0.0198585280    0.0003680030    
0.0504814700    0.0196532410    0.0003708819    
0.0507041310    0.0196192060    0.0003661549    
0.0509267920    0.0195476020    0.0003669981    
0.0511494530    0.0197500930    0.0003664343    
0.0513721140    0.0189440270    0.0003620392    
0.0515947750    0.0196508760    0.0003638427    
0.0518174360    0.0205862610    0.0003701583    
0.0520400970    0.0195797550    0.0003584930    
0.0522627580    0.0195668240    0.0003614202    
0.0524854190    0.0197980980    0.0003665058    
0.0527080800    0.0197406740    0.0003688074    
0.0529307410    0.0198013420    0.0003711085    
0.0531534020    0.0204238380    0.0003755245    
0.0533760630    0.0195653040    0.0003686976    
0.0535987240    0.0199474580    0.0003705428    
0.0538213850    0.0195952970    0.0003715124    
0.0540440460    0.0192288560    0.0003662805    
0.0542667070    0.0183701050    0.0003604754    
0.0544893680    0.0188287160    0.0003651418    
0.0547120290    0.0197030980    0.0003709650    
0.0549346900    0.0199405810    0.0003733903    
0.0551573510    0.0202911460    0.0003810922    
0.0553800120    0.0195254400    0.0003706546    
0.0556026730    0.0189799410    0.0003730172    
0.0558253340    0.0186729700    0.0003730865    
0.0560479950    0.0194705970    0.0003809717    
0.0562706560    0.0193625590    0.0003835862    
0.0564933170    0.0193369090    0.0003866609    
0.0567159780    0.0199477310    0.0003880118    
0.0569386390    0.0198854630    0.0003934824    
0.0571613000    0.0191576130    0.0003778982    
0.0573839610    0.0199038060    0.0003819893    
0.0576066220    0.0195644840    0.0003797676    
0.0578292830    0.0204457960    0.0003869424    
0.0580519440    0.0196009980    0.0003803331    
0.0582746050    0.0186311820    0.0003691696    
0.0584972660    0.0205141010    0.0003858926    
0.0587199270    0.0197624190    0.0003754916    
0.0589425880    0.0197575530    0.0003732494    
0.0591652490    0.0192844520    0.0003709234    
0.0593879100    0.0194489270    0.0003697354    
0.0596105710    0.0195131270    0.0003699545    
0.0598332320    0.0202904760    0.0003804761    
0.0600558930    0.0196803770    0.0003723233    
0.0602785540    0.0187039450    0.0003625858    
0.0605012150    0.0196891090    0.0003712284    
0.0607238760    0.0197618680    0.0003692034    
0.0609465370    0.0194086100    0.0003687691    
0.0611691980    0.0189570670    0.0003650318    
0.0613918590    0.0202713570    0.0003733525    
0.0616145200    0.0194876880    0.0003687439    
0.0618371810    0.0196403710    0.0003665499    
0.0620598420    0.0195849180    0.0003664094    
0.0622825030    0.0191497630    0.0003678568    
0.0625051640    0.0195086480    0.0003660733    
0.0627278250    0.0196541400    0.0003666792    
0.0629504860    0.0197060380    0.0003641781    
0.0631731470    0.0196241520    0.0003679169    
0.0633958080    0.0187203480    0.0003614128    
0.0636184690    0.0193386790    0.0003724490    
0.0638411300    0.0203542170    0.0003806688    
0.0640637910    0.0195080270    0.0003752932    
0.0642864520    0.0199412710    0.0003786166    
0.0645091130    0.0194729960    0.0003774233    
0.0647317740    0.0196405900    0.0003794619    
0.0649544350    0.0196412910    0.0003790512    
0.0651770960    0.0196808350    0.0003773628    
0.0653997570    0.0201286810    0.0003808045    
0.0656224180    0.0187185430    0.0003680220    
0.0658450790    0.0194987580    0.0003702147    
0.0660677400    0.0192042920    0.0003689723    
0.0662904010    0.0199268900    0.0003803368    
0.0665130620    0.0194809200    0.0003744254    
0.0667357230    0.0200008980    0.0003861350    
0.0669583840    0.0185566220    0.0003706879    
0.0671810450    0.0194214830    0.0003771339    
0.0674037060    0.0198503300    0.0003877343    
0.0676263670    0.0191801130    0.0003783420    
0.0678490280    0.0196244630    0.0003803591    
0.0680716890    0.0193934890    0.0003789555    
0.0682943500    0.0188768290    0.0003697787    
0.0685170110    0.0194947160    0.0003719526    
0.0687396720    0.0192783200    0.0003688997    
0.0689623330    0.0193948180    0.0003688401    
0.0691849940    0.0193373540    0.0003708450    
0.0694076550    0.0193664480    0.0003709258    
0.0696303160    0.0194036300    0.0003683422    
0.0698529770    0.0199629800    0.0003728306    
0.0700756380    0.0196301650    0.0003649637    
0.0702982990    0.0202333980    0.0003745641    
0.0705209600    0.0196210850    0.0003661900    
0.0707436210    0.0196579750    0.0003648508    
0.0709662820    0.0194083250    0.0003668484    
0.0711889430    0.0193877310    0.0003621503    
0.0714116040    0.0202277170    0.0003706675    
0.0716342650    0.0193159450    0.0003607465    
0.0718569260    0.0198356660    0.0003640951    
0.0720795870    0.0193833680    0.0003613760    
0.0723022480    0.0191383820    0.0003596322    
0.0725249090    0.0192170890    0.0003560552    
0.0727475700    0.0194528290    0.0003612923    
0.0729702310    0.0196588510    0.0003603037    
0.0731928920    0.0198296180    0.0003633115    
0.0734155530    0.0197439330    0.0003618023    
0.0736382140    0.0191771640    0.0003542832    
0.0738608750    0.0197108340    0.0003614994    
0.0740835360    0.0191842780    0.0003557528    
0.0743061970    0.0196545860    0.0003550166    
0.0745288580    0.0193343480    0.0003557331    
0.0747515190    0.0202715980    0.0003649727    
0.0749741800    0.0191305030    0.0003512698    
0.0751968410    0.0197138130    0.0003593847    
0.0754195020    0.0195029170    0.0003553629    
0.0756421630    0.0188350370    0.0003463704    
0.0758648240    0.0191241120    0.0003498573    
0.0760874850    0.0203590040    0.0003608029    
0.0763101460    0.0187691550    0.0003460965    
0.0765328070    0.0198977270    0.0003599962    
0.0767554680    0.0191917000    0.0003511526    
0.0769781290    0.0194036620    0.0003510574    
0.0772007900    0.0199061640    0.0003527223    
0.0774234510    0.0193430990    0.0003496756    
0.0776461120    0.0193884420    0.0003497532    
0.0778687730    0.0194548500    0.0003491942    
0.0780914340    0.0193333400    0.0003505893    
0.0783140950    0.0190387530    0.0003423882    
0.0785367560    0.0199119340    0.0003557972    
0.0787594170    0.0196940960    0.0003506753    
0.0789820780    0.0190416250    0.0003430506    
0.0792047390    0.0195209270    0.0003484769    
0.0794274000    0.0192851850    0.0003478339    
0.0796500610    0.0192304610    0.0003439499    
0.0798727220    0.0201467410    0.0003517238    
0.0800953830    0.0193146060    0.0003435914    
0.0803180440    0.0188719100    0.0003419969    
0.0805407050    0.0194678130    0.0003470314    
0.0807633660    0.0197095490    0.0003488552    
0.0809860270    0.0196378030    0.0003469338    
0.0812086880    0.0197576610    0.0003449837    
0.0814313490    0.0196951410    0.0003460083    
0.0816540100    0.0196055640    0.0003444347    
0.0818766710    0.0188988790    0.0003389422    
0.0820993320    0.0194296650    0.0003430427    
0.0823219930    0.0195108820    0.0003451767    
0.0825446540    0.0200468850    0.0003473438    
0.0827673150    0.0197487410    0.0003424351    
0.0829899760    0.0188501710    0.0003339584    
0.0832126370    0.0195268340    0.0003414220    
0.0834352980    0.0198140210    0.0003431546    
0.0836579590    0.0196844940    0.0003412698    
0.0838806200    0.0194506610    0.0003402983    
0.0841032810    0.0193392810    0.0003372162    
0.0843259420    0.0193898220    0.0003366167    
0.0845486030    0.0189924700    0.0003331500    
0.0847712640    0.0201818020    0.0003413298    
0.0849939250    0.0196265140    0.0003371875    
0.0852165860    0.0198464030    0.0003395153    
0.0854392470    0.0196831430    0.0003349140    
0.0856619080    0.0193727200    0.0003347096    
0.0858845690    0.0193831210    0.0003317841    
0.0861072300    0.0194904410    0.0003349981    
0.0863298910    0.0198638260    0.0003399626    
0.0865525520    0.0198996670    0.0003373309    
0.0867752130    0.0191522160    0.0003282648    
0.0869978740    0.0192556170    0.0003299885    
0.0872205350    0.0195112490    0.0003317491    
0.0874431960    0.0200358670    0.0003361798    
0.0876658570    0.0193487690    0.0003316336    
0.0878885180    0.0185938530    0.0003256571    
0.0881111790    0.0197522330    0.0003352172    
0.0883338400    0.0197359580    0.0003301731    
0.0885565010    0.0192988480    0.0003309239    
0.0887791620    0.0193599210    0.0003271489    
0.0890018230    0.0196696740    0.0003329542    
0.0892244840    0.0190127450    0.0003279034    
0.0894471450    0.0195085440    0.0003307483    
0.0896698060    0.0196343480    0.0003305614    
0.0898924670    0.0196089640    0.0003318790    
0.0901151280    0.0197207870    0.0003292290    
0.0903377890    0.0194263270    0.0003294965    
0.0905604500    0.0193314940    0.0003271828    
0.0907831110    0.0191417590    0.0003247633    
0.0910057720    0.0198071830    0.0003318759    
0.0912284330    0.0192602610    0.0003225763    
0.0914510940    0.0188581220    0.0003227503    
0.0916737550    0.0195121490    0.0003274846    
0.0918964160    0.0195417690    0.0003290961    
0.0921190770    0.0192988320    0.0003240870    
0.0923417380    0.0195706740    0.0003264955    
0.0925643990    0.0194208030    0.0003244470    
0.0927870600    0.0197279650    0.0003283437    
0.0930097210    0.0194470760    0.0003232213    
0.0932323820    0.0193578870    0.0003248498    
