# Diamond Light Source Ltd.
# Data extracted from: /dls/b21/data/2018/cm19678-3/processed/b21-386631_00006.dat
q(1/A)          Column          Error           
0.0035000000    2.0681502000    0.0244499100    
0.0037226610    1.8412584000    0.0225840530    
0.0039453220    1.6363601000    0.0193682600    
0.0041679830    1.2855653000    0.0140981790    
0.0043906440    0.9545036800    0.0116195700    
0.0046133050    0.7777025100    0.0100686650    
0.0048359660    0.5807212800    0.0082299401    
0.0050586270    0.4632292400    0.0072247401    
0.0052812880    0.4329353100    0.0066037376    
0.0055039490    0.3877781900    0.0059426554    
0.0057266100    0.3241397900    0.0052561674    
0.0059492710    0.2624313800    0.0047294530    
0.0061719320    0.2217632400    0.0041894354    
0.0063945930    0.2016335000    0.0040431961    
0.0066172539    0.1855763200    0.0036422538    
0.0068399149    0.1726441700    0.0034577276    
0.0070625759    0.1484980000    0.0031739328    
0.0072852369    0.1236161400    0.0028525115    
0.0075078979    0.1166685800    0.0027575753    
0.0077305589    0.1025446400    0.0025360284    
0.0079532199    0.0985024840    0.0024510994    
0.0081758809    0.0895326450    0.0023585736    
0.0083985419    0.0836694900    0.0021265796    
0.0086212029    0.0781563970    0.0020553244    
0.0088438639    0.0745657540    0.0019914317    
0.0090665249    0.0642490120    0.0017853837    
0.0092891859    0.0620495060    0.0018313333    
0.0095118469    0.0609831440    0.0017459423    
0.0097345079    0.0591733710    0.0016703383    
0.0099571689    0.0542707330    0.0015666611    
0.0101798300    0.0511501750    0.0015209531    
0.0104024910    0.0491874530    0.0014864396    
0.0106251520    0.0477130450    0.0014689632    
0.0108478130    0.0446928570    0.0013845360    
0.0110704740    0.0444377740    0.0013144049    
0.0112931350    0.0418052720    0.0012786221    
0.0115157960    0.0403915200    0.0012494879    
0.0117384570    0.0404209050    0.0012391823    
0.0119611180    0.0380932870    0.0012064265    
0.0121837790    0.0376360730    0.0011790092    
0.0124064400    0.0329017030    0.0010564100    
0.0126291010    0.0345639250    0.0010692147    
0.0128517620    0.0335400800    0.0010558896    
0.0130744230    0.0339614120    0.0010546209    
0.0132970840    0.0309708150    0.0010021920    
0.0135197450    0.0328628390    0.0010175668    
0.0137424060    0.0312495500    0.0009784614    
0.0139650670    0.0296679150    0.0009321425    
0.0141877280    0.0290931940    0.0009251097    
0.0144103890    0.0297464050    0.0009193082    
0.0146330500    0.0292576700    0.0009059361    
0.0148557110    0.0292075600    0.0009013649    
0.0150783720    0.0262644890    0.0008476827    
0.0153010330    0.0270182870    0.0008476391    
0.0155236940    0.0280643490    0.0008587551    
0.0157463550    0.0283690550    0.0008484455    
0.0159690160    0.0254092420    0.0007999192    
0.0161916770    0.0260948390    0.0008060723    
0.0164143380    0.0261125510    0.0008124547    
0.0166369990    0.0249545380    0.0007697473    
0.0168596600    0.0247033630    0.0007591159    
0.0170823210    0.0238648030    0.0007396606    
0.0173049820    0.0256957070    0.0007688365    
0.0175276430    0.0255592340    0.0007748781    
0.0177503040    0.0248527490    0.0007446151    
0.0179729650    0.0253026160    0.0007438729    
0.0181956260    0.0238999530    0.0007091006    
0.0184182870    0.0235709920    0.0007008847    
0.0186409480    0.0242291070    0.0007150995    
0.0188636090    0.0232792350    0.0006965337    
0.0190862700    0.0238713190    0.0007042330    
0.0193089310    0.0231756310    0.0006928138    
0.0195315920    0.0236167120    0.0006755909    
0.0197542530    0.0220186670    0.0006532838    
0.0199769140    0.0235305210    0.0006753396    
0.0201995750    0.0220669200    0.0006437582    
0.0204222360    0.0226575390    0.0006579159    
0.0206448970    0.0216586100    0.0006386776    
0.0208675580    0.0218778140    0.0006286832    
0.0210902190    0.0231123590    0.0006524127    
0.0213128800    0.0216113210    0.0006223113    
0.0215355410    0.0217643090    0.0006170704    
0.0217582020    0.0219392710    0.0006195458    
0.0219808630    0.0219689440    0.0006191506    
0.0222035240    0.0214526630    0.0006062881    
0.0224261850    0.0214091180    0.0006002819    
0.0226488460    0.0221830210    0.0006064467    
0.0228715070    0.0219739580    0.0006020828    
0.0230941680    0.0225348650    0.0006097188    
0.0233168290    0.0220006760    0.0006039494    
0.0235394900    0.0203826700    0.0005749015    
0.0237621510    0.0213113720    0.0005720272    
0.0239848120    0.0210683110    0.0005694138    
0.0242074730    0.0208838210    0.0005623773    
0.0244301340    0.0216904480    0.0005737892    
0.0246527950    0.0212281750    0.0005728981    
0.0248754560    0.0207427040    0.0005535818    
0.0250981170    0.0212805130    0.0005619627    
0.0253207780    0.0216209700    0.0005495278    
0.0255434390    0.0210006750    0.0005473679    
0.0257661000    0.0200598170    0.0005366965    
0.0259887610    0.0204650110    0.0005363290    
0.0262114220    0.0212092790    0.0005489035    
0.0264340830    0.0215206650    0.0005453953    
0.0266567440    0.0206548640    0.0005310102    
0.0268794050    0.0202835000    0.0005240672    
0.0271020660    0.0201867570    0.0005206994    
0.0273247270    0.0216037760    0.0005354297    
0.0275473880    0.0213724960    0.0005314963    
0.0277700490    0.0210291400    0.0005240932    
0.0279927100    0.0213055110    0.0005229232    
0.0282153710    0.0218501320    0.0005321392    
0.0284380320    0.0211748120    0.0005208146    
0.0286606930    0.0209398040    0.0005134835    
0.0288833540    0.0211963860    0.0005176012    
0.0291060150    0.0202478610    0.0005054074    
0.0293286760    0.0199451000    0.0004946249    
0.0295513370    0.0189130530    0.0004764129    
0.0297739980    0.0199205880    0.0004943211    
0.0299966590    0.0203125100    0.0004906346    
0.0302193200    0.0198109540    0.0004916006    
0.0304419810    0.0198716900    0.0004932596    
0.0306646420    0.0202573480    0.0004839668    
0.0308873030    0.0201858920    0.0004810257    
0.0311099640    0.0212817780    0.0004951929    
0.0313326250    0.0197536330    0.0004717979    
0.0315552860    0.0205695800    0.0004876828    
0.0317779470    0.0213467120    0.0004972426    
0.0320006080    0.0203655950    0.0004746464    
0.0322232690    0.0201906530    0.0004745818    
0.0324459300    0.0200331660    0.0004691981    
0.0326685910    0.0204052870    0.0004727552    
0.0328912520    0.0203973250    0.0004742282    
0.0331139130    0.0209763850    0.0004746566    
0.0333365740    0.0203020450    0.0004684810    
0.0335592350    0.0198074650    0.0004582901    
0.0337818960    0.0204428980    0.0004652124    
0.0340045570    0.0199875480    0.0004592715    
0.0342272170    0.0205002570    0.0004632900    
0.0344498780    0.0198925940    0.0004581796    
0.0346725390    0.0204739950    0.0004562185    
0.0348952000    0.0201770730    0.0004508351    
0.0351178610    0.0205960110    0.0004575762    
0.0353405220    0.0198648210    0.0004473333    
0.0355631830    0.0202753460    0.0004502299    
0.0357858440    0.0198754500    0.0004457679    
0.0360085050    0.0199152720    0.0004475625    
0.0362311660    0.0200927670    0.0004442086    
0.0364538270    0.0201194150    0.0004409354    
0.0366764880    0.0205148050    0.0004449239    
0.0368991490    0.0199263940    0.0004362863    
0.0371218100    0.0199835030    0.0004356611    
0.0373444710    0.0201008180    0.0004416962    
0.0375671320    0.0207391010    0.0004480009    
0.0377897930    0.0200557480    0.0004291534    
0.0380124540    0.0195829180    0.0004267251    
0.0382351150    0.0199548770    0.0004307588    
0.0384577760    0.0194713480    0.0004214025    
0.0386804370    0.0201308020    0.0004317490    
0.0389030980    0.0198088180    0.0004250389    
0.0391257590    0.0202695140    0.0004270343    
0.0393484200    0.0201511800    0.0004243529    
0.0395710810    0.0197754150    0.0004209441    
0.0397937420    0.0191840480    0.0004146025    
0.0400164030    0.0195391870    0.0004201247    
0.0402390640    0.0202798910    0.0004223145    
0.0404617250    0.0203976470    0.0004210402    
0.0406843860    0.0207213990    0.0004202683    
0.0409070470    0.0196759740    0.0004137957    
0.0411297080    0.0197665310    0.0004107345    
0.0413523690    0.0195511500    0.0004095436    
0.0415750300    0.0202511720    0.0004203515    
0.0417976910    0.0196146170    0.0004029928    
0.0420203520    0.0192033780    0.0004002441    
0.0422430130    0.0197020800    0.0004069427    
0.0424656740    0.0195692040    0.0004002895    
0.0426883350    0.0204585700    0.0004113158    
0.0429109960    0.0199708440    0.0004076531    
0.0431336570    0.0204150200    0.0004063546    
0.0433563180    0.0190325460    0.0003957392    
0.0435789790    0.0198263460    0.0003975619    
0.0438016400    0.0194382270    0.0003957929    
0.0440243010    0.0197406540    0.0003948131    
0.0442469620    0.0189550670    0.0003891957    
0.0444696230    0.0197159040    0.0003955064    
0.0446922840    0.0199223430    0.0003963910    
0.0449149450    0.0193702110    0.0003856344    
0.0451376060    0.0193795210    0.0003904908    
0.0453602670    0.0196918150    0.0003894981    
0.0455829280    0.0200229320    0.0003923050    
0.0458055890    0.0194484040    0.0003888903    
0.0460282500    0.0198170730    0.0003878252    
0.0462509110    0.0197662200    0.0003849183    
0.0464735720    0.0197210080    0.0003846949    
0.0466962330    0.0192494740    0.0003817958    
0.0469188940    0.0199536960    0.0003876149    
0.0471415550    0.0198472890    0.0003885654    
0.0473642160    0.0190291330    0.0003751449    
0.0475868770    0.0197411890    0.0003802011    
0.0478095380    0.0198809080    0.0003798745    
0.0480321990    0.0197639940    0.0003795858    
0.0482548600    0.0192669380    0.0003731493    
0.0484775210    0.0198725740    0.0003827315    
0.0487001820    0.0195598290    0.0003741496    
0.0489228430    0.0192885910    0.0003713467    
0.0491455040    0.0194175370    0.0003700089    
0.0493681650    0.0200037330    0.0003787798    
0.0495908260    0.0198077110    0.0003705776    
0.0498134870    0.0194164640    0.0003703921    
0.0500361480    0.0193560270    0.0003688368    
0.0502588090    0.0195645440    0.0003652620    
0.0504814700    0.0198484600    0.0003727123    
0.0507041310    0.0191469620    0.0003617144    
0.0509267920    0.0197811190    0.0003691767    
0.0511494530    0.0196609640    0.0003655996    
0.0513721140    0.0194414520    0.0003667546    
0.0515947750    0.0193604640    0.0003611373    
0.0518174360    0.0196670200    0.0003617927    
0.0520400970    0.0195002500    0.0003577576    
0.0522627580    0.0197997260    0.0003635579    
0.0524854190    0.0198991150    0.0003674326    
0.0527080800    0.0205460580    0.0003762484    
0.0529307410    0.0191955150    0.0003653804    
0.0531534020    0.0194081240    0.0003660607    
0.0533760630    0.0194047660    0.0003671749    
0.0535987240    0.0198778710    0.0003698889    
0.0538213850    0.0194325570    0.0003699594    
0.0540440460    0.0199188320    0.0003727870    
0.0542667070    0.0197840720    0.0003740843    
0.0544893680    0.0195502490    0.0003720652    
0.0547120290    0.0196813980    0.0003707537    
0.0549346900    0.0199817740    0.0003737687    
0.0551573510    0.0194816240    0.0003734058    
0.0553800120    0.0198694600    0.0003738985    
0.0556026730    0.0200641660    0.0003835162    
0.0558253340    0.0193878450    0.0003801538    
0.0560479950    0.0193655020    0.0003799349    
0.0562706560    0.0196353820    0.0003862719    
0.0564933170    0.0191660850    0.0003849419    
0.0567159780    0.0192300000    0.0003809602    
0.0569386390    0.0204219230    0.0003987470    
0.0571613000    0.0190898000    0.0003772216    
0.0573839610    0.0190380190    0.0003735819    
0.0576066220    0.0199986550    0.0003839511    
0.0578292830    0.0198958170    0.0003816954    
0.0580519440    0.0188549140    0.0003730174    
0.0582746050    0.0192522230    0.0003752649    
0.0584972660    0.0200705370    0.0003816906    
0.0587199270    0.0190339840    0.0003684994    
0.0589425880    0.0200106380    0.0003756252    
0.0591652490    0.0194977460    0.0003729620    
0.0593879100    0.0200737360    0.0003756204    
0.0596105710    0.0198139800    0.0003727885    
0.0598332320    0.0192267080    0.0003703613    
0.0600558930    0.0198134570    0.0003735729    
0.0602785540    0.0195185580    0.0003703905    
0.0605012150    0.0191634320    0.0003662322    
0.0607238760    0.0193886570    0.0003656936    
0.0609465370    0.0198422730    0.0003728592    
0.0611691980    0.0200036210    0.0003749654    
0.0613918590    0.0196930000    0.0003679810    
0.0616145200    0.0194590410    0.0003684658    
0.0618371810    0.0200158640    0.0003700302    
0.0620598420    0.0195293360    0.0003658822    
0.0622825030    0.0191773000    0.0003681142    
0.0625051640    0.0189034380    0.0003603434    
0.0627278250    0.0195986680    0.0003661544    
0.0629504860    0.0199273780    0.0003662106    
0.0631731470    0.0197199720    0.0003688071    
0.0633958080    0.0197522530    0.0003712331    
0.0636184690    0.0201771660    0.0003804305    
0.0638411300    0.0194422030    0.0003720357    
0.0640637910    0.0190813320    0.0003711591    
0.0642864520    0.0194301410    0.0003737257    
0.0645091130    0.0185652100    0.0003685141    
0.0647317740    0.0194858930    0.0003779574    
0.0649544350    0.0194137830    0.0003768424    
0.0651770960    0.0196728530    0.0003772791    
0.0653997570    0.0193210720    0.0003730799    
0.0656224180    0.0198610170    0.0003790795    
0.0658450790    0.0196456240    0.0003715993    
0.0660677400    0.0195721810    0.0003724826    
0.0662904010    0.0197156210    0.0003783081    
0.0665130620    0.0197968140    0.0003774418    
0.0667357230    0.0185987130    0.0003723468    
0.0669583840    0.0200146230    0.0003849678    
0.0671810450    0.0189813630    0.0003728292    
0.0674037060    0.0192588610    0.0003819068    
0.0676263670    0.0200077560    0.0003864114    
0.0678490280    0.0195205140    0.0003793431    
0.0680716890    0.0191261860    0.0003763277    
0.0682943500    0.0196511490    0.0003772794    
0.0685170110    0.0190398030    0.0003675802    
0.0687396720    0.0194611170    0.0003706375    
0.0689623330    0.0197237470    0.0003719476    
0.0691849940    0.0193721780    0.0003711717    
0.0694076550    0.0194083380    0.0003713197    
0.0696303160    0.0191861400    0.0003662651    
0.0698529770    0.0195444570    0.0003688947    
0.0700756380    0.0192087410    0.0003610181    
0.0702982990    0.0198304730    0.0003708088    
0.0705209600    0.0195588350    0.0003656017    
0.0707436210    0.0197994270    0.0003661541    
0.0709662820    0.0198513490    0.0003710046    
0.0711889430    0.0195087560    0.0003632720    
0.0714116040    0.0195409450    0.0003643138    
0.0716342650    0.0198070190    0.0003652965    
0.0718569260    0.0194740360    0.0003607540    
0.0720795870    0.0196049570    0.0003634288    
0.0723022480    0.0204351250    0.0003716092    
0.0725249090    0.0192493430    0.0003563471    
0.0727475700    0.0199888850    0.0003662295    
0.0729702310    0.0197901710    0.0003614982    
0.0731928920    0.0197689590    0.0003627485    
0.0734155530    0.0194382180    0.0003589835    
0.0736382140    0.0193858710    0.0003561991    
0.0738608750    0.0194382690    0.0003589844    
0.0740835360    0.0197772640    0.0003612022    
0.0743061970    0.0192242130    0.0003511016    
0.0745288580    0.0193401600    0.0003557798    
0.0747515190    0.0194823360    0.0003577904    
0.0749741800    0.0193361670    0.0003531462    
0.0751968410    0.0193330850    0.0003558906    
0.0754195020    0.0186410250    0.0003474153    
0.0756421630    0.0194075680    0.0003515887    
0.0758648240    0.0197313920    0.0003553620    
0.0760874850    0.0200577180    0.0003581164    
0.0763101460    0.0194385160    0.0003522071    
0.0765328070    0.0200207170    0.0003611002    
0.0767554680    0.0200326250    0.0003587565    
0.0769781290    0.0195744080    0.0003525919    
0.0772007900    0.0200491520    0.0003539801    
0.0774234510    0.0201893830    0.0003572363    
0.0776461120    0.0196526860    0.0003521218    
0.0778687730    0.0192410190    0.0003472633    
0.0780914340    0.0200827700    0.0003573130    
0.0783140950    0.0196783780    0.0003480855    
0.0785367560    0.0191101540    0.0003485537    
0.0787594170    0.0196246660    0.0003500500    
0.0789820780    0.0188307790    0.0003411395    
0.0792047390    0.0196383770    0.0003495170    
0.0794274000    0.0194538350    0.0003493448    
0.0796500610    0.0197157040    0.0003482557    
0.0798727220    0.0199801920    0.0003502603    
0.0800953830    0.0187760180    0.0003387606    
0.0803180440    0.0195591090    0.0003481614    
0.0805407050    0.0191825230    0.0003444727    
0.0807633660    0.0191839740    0.0003441660    
0.0809860270    0.0193919010    0.0003447483    
0.0812086880    0.0195641610    0.0003432837    
0.0814313490    0.0195059590    0.0003443360    
0.0816540100    0.0206395190    0.0003533936    
0.0818766710    0.0188130630    0.0003381654    
0.0820993320    0.0193017430    0.0003419050    
0.0823219930    0.0194429700    0.0003445689    
0.0825446540    0.0194021930    0.0003417066    
0.0827673150    0.0199854900    0.0003444750    
0.0829899760    0.0193168470    0.0003380607    
0.0832126370    0.0195917570    0.0003419827    
0.0834352980    0.0194388740    0.0003398841    
0.0836579590    0.0195299210    0.0003399208    
0.0838806200    0.0196940140    0.0003424140    
0.0841032810    0.0195854970    0.0003393495    
0.0843259420    0.0191611850    0.0003346198    
0.0845486030    0.0194767690    0.0003373644    
0.0847712640    0.0191419670    0.0003324140    
0.0849939250    0.0194346100    0.0003355286    
0.0852165860    0.0196249490    0.0003376093    
0.0854392470    0.0192322200    0.0003310492    
0.0856619080    0.0188052820    0.0003297650    
0.0858845690    0.0193028790    0.0003310903    
0.0861072300    0.0196278850    0.0003361708    
0.0863298910    0.0196594380    0.0003382027    
0.0865525520    0.0199332210    0.0003376088    
0.0867752130    0.0196747230    0.0003327061    
0.0869978740    0.0196054890    0.0003329667    
0.0872205350    0.0191495160    0.0003286532    
0.0874431960    0.0197530810    0.0003337927    
0.0876658570    0.0201551510    0.0003384673    
0.0878885180    0.0194372530    0.0003329547    
0.0881111790    0.0202065870    0.0003390443    
0.0883338400    0.0196965450    0.0003298370    
0.0885565010    0.0192640710    0.0003306193    
0.0887791620    0.0198567100    0.0003313135    
0.0890018230    0.0196745640    0.0003329892    
0.0892244840    0.0196793100    0.0003335955    
0.0894471450    0.0189022150    0.0003255617    
0.0896698060    0.0194777800    0.0003292346    
0.0898924670    0.0194060150    0.0003301508    
0.0901151280    0.0193957690    0.0003264985    
0.0903377890    0.0189896880    0.0003257663    
0.0905604500    0.0192809250    0.0003267484    
0.0907831110    0.0192787770    0.0003259174    
0.0910057720    0.0193838350    0.0003283039    
0.0912284330    0.0199078180    0.0003279479    
0.0914510940    0.0194429030    0.0003277101    
0.0916737550    0.0186869820    0.0003204791    
0.0918964160    0.0194578970    0.0003283829    
0.0921190770    0.0195103470    0.0003258520    
0.0923417380    0.0195426980    0.0003262558    
0.0925643990    0.0199512320    0.0003288417    
0.0927870600    0.0193610880    0.0003252701    
0.0930097210    0.0192905530    0.0003219118    
0.0932323820    0.0192862870    0.0003242423    
