# Diamond Light Source Ltd.
# Data extracted from: /dls/b21/data/2018/cm19678-3/processed/b21-386631_00011.dat
q(1/A)          Column          Error           
0.0035000000    2.1009158000    0.0246485200    
0.0037226610    1.9105611000    0.0230104590    
0.0039453220    1.6052361000    0.0191876110    
0.0041679830    1.2788893000    0.0140647730    
0.0043906440    0.9692376900    0.0117116130    
0.0046133050    0.7836696900    0.0101095530    
0.0048359660    0.5953421900    0.0083348240    
0.0050586270    0.4601740100    0.0072025384    
0.0052812880    0.4294066100    0.0065782892    
0.0055039490    0.3847684000    0.0059209154    
0.0057266100    0.3115840100    0.0051545516    
0.0059492710    0.2723589000    0.0048191908    
0.0061719320    0.2219448800    0.0041921187    
0.0063945930    0.2001855200    0.0040295828    
0.0066172539    0.1838740900    0.0036263481    
0.0068399149    0.1650334500    0.0033814355    
0.0070625759    0.1457839500    0.0031455209    
0.0072852369    0.1294025300    0.0029191840    
0.0075078979    0.1117014500    0.0026988587    
0.0077305589    0.0994546490    0.0024981037    
0.0079532199    0.0997073790    0.0024666145    
0.0081758809    0.0914388390    0.0023840994    
0.0083985419    0.0832755450    0.0021220574    
0.0086212029    0.0777599040    0.0020505779    
0.0088438639    0.0744937840    0.0019909301    
0.0090665249    0.0642786950    0.0017862086    
0.0092891859    0.0607262960    0.0018121198    
0.0095118469    0.0608612900    0.0017446000    
0.0097345079    0.0575025210    0.0016469675    
0.0099571689    0.0534361220    0.0015549269    
0.0101798300    0.0491829600    0.0014917632    
0.0104024910    0.0468732560    0.0014513861    
0.0106251520    0.0466491720    0.0014528293    
0.0108478130    0.0460437520    0.0014056295    
0.0110704740    0.0453140190    0.0013276073    
0.0112931350    0.0424897100    0.0012893442    
0.0115157960    0.0396367800    0.0012380450    
0.0117384570    0.0400595070    0.0012339152    
0.0119611180    0.0379197580    0.0012039535    
0.0121837790    0.0362493080    0.0011573513    
0.0124064400    0.0363443340    0.0011105599    
0.0126291010    0.0348446200    0.0010737954    
0.0128517620    0.0328904500    0.0010458555    
0.0130744230    0.0314869770    0.0010157089    
0.0132970840    0.0321207030    0.0010208630    
0.0135197450    0.0306714420    0.0009832813    
0.0137424060    0.0325513280    0.0009988642    
0.0139650670    0.0301797330    0.0009403657    
0.0141877280    0.0315199250    0.0009631423    
0.0144103890    0.0293337840    0.0009131208    
0.0146330500    0.0302253760    0.0009210090    
0.0148557110    0.0294993500    0.0009060653    
0.0150783720    0.0290137710    0.0008911509    
0.0153010330    0.0270041640    0.0008476132    
0.0155236940    0.0270257290    0.0008429093    
0.0157463550    0.0263512370    0.0008179040    
0.0159690160    0.0259500600    0.0008085740    
0.0161916770    0.0261318060    0.0008068293    
0.0164143380    0.0251888830    0.0007981403    
0.0166369990    0.0251085940    0.0007722980    
0.0168596600    0.0255549380    0.0007722675    
0.0170823210    0.0263299240    0.0007771031    
0.0173049820    0.0242576440    0.0007471853    
0.0175276430    0.0231737570    0.0007380028    
0.0177503040    0.0237482420    0.0007280491    
0.0179729650    0.0237389990    0.0007206884    
0.0181956260    0.0236373650    0.0007053573    
0.0184182870    0.0239571900    0.0007067663    
0.0186409480    0.0239658030    0.0007113676    
0.0188636090    0.0232482890    0.0006962313    
0.0190862700    0.0229262220    0.0006903109    
0.0193089310    0.0221710290    0.0006777881    
0.0195315920    0.0241690080    0.0006836028    
0.0197542530    0.0233086840    0.0006723037    
0.0199769140    0.0222809380    0.0006573149    
0.0201995750    0.0222086390    0.0006459713    
0.0204222360    0.0219990520    0.0006484348    
0.0206448970    0.0227237830    0.0006543453    
0.0208675580    0.0216891040    0.0006261105    
0.0210902190    0.0226992690    0.0006467054    
0.0213128800    0.0227866330    0.0006391568    
0.0215355410    0.0226320350    0.0006293965    
0.0217582020    0.0219319040    0.0006195849    
0.0219808630    0.0220838390    0.0006209109    
0.0222035240    0.0219425670    0.0006133134    
0.0224261850    0.0210653940    0.0005955811    
0.0226488460    0.0220274000    0.0006044553    
0.0228715070    0.0215549910    0.0005964530    
0.0230941680    0.0217365500    0.0005989599    
0.0233168290    0.0219113190    0.0006028609    
0.0235394900    0.0211221140    0.0005853719    
0.0237621510    0.0214287450    0.0005737328    
0.0239848120    0.0208470950    0.0005665473    
0.0242074730    0.0208934690    0.0005626372    
0.0244301340    0.0211234090    0.0005663703    
0.0246527950    0.0205109720    0.0005632672    
0.0248754560    0.0216095750    0.0005651615    
0.0250981170    0.0214239660    0.0005639839    
0.0253207780    0.0215471170    0.0005487152    
0.0255434390    0.0213386640    0.0005518825    
0.0257661000    0.0216349620    0.0005574984    
0.0259887610    0.0215010020    0.0005498636    
0.0262114220    0.0206790080    0.0005421234    
0.0264340830    0.0215582640    0.0005459976    
0.0266567440    0.0206780640    0.0005314311    
0.0268794050    0.0198593780    0.0005186790    
0.0271020660    0.0207201330    0.0005276554    
0.0273247270    0.0203259590    0.0005194736    
0.0275473880    0.0206683020    0.0005227876    
0.0277700490    0.0206076240    0.0005189339    
0.0279927100    0.0202110650    0.0005094327    
0.0282153710    0.0213286310    0.0005258720    
0.0284380320    0.0209154620    0.0005177348    
0.0286606930    0.0204959720    0.0005081299    
0.0288833540    0.0203968790    0.0005078630    
0.0291060150    0.0201310020    0.0005040633    
0.0293286760    0.0209728920    0.0005073262    
0.0295513370    0.0204465790    0.0004954654    
0.0297739980    0.0209974590    0.0005076235    
0.0299966590    0.0207250130    0.0004957059    
0.0302193200    0.0214066920    0.0005111340    
0.0304419810    0.0197093780    0.0004913544    
0.0306646420    0.0202204360    0.0004836373    
0.0308873030    0.0192663060    0.0004700497    
0.0311099640    0.0194702380    0.0004737579    
0.0313326250    0.0201009690    0.0004760377    
0.0315552860    0.0206716250    0.0004890039    
0.0317779470    0.0198385540    0.0004794664    
0.0320006080    0.0201204550    0.0004718901    
0.0322232690    0.0200883790    0.0004734876    
0.0324459300    0.0199214850    0.0004679965    
0.0326685910    0.0206338740    0.0004755056    
0.0328912520    0.0200537670    0.0004703260    
0.0331139130    0.0193849880    0.0004564017    
0.0333365740    0.0214146000    0.0004812574    
0.0335592350    0.0199545260    0.0004600945    
0.0337818960    0.0204629340    0.0004655479    
0.0340045570    0.0192049340    0.0004502943    
0.0342272170    0.0196612660    0.0004538155    
0.0344498780    0.0195533710    0.0004543611    
0.0346725390    0.0199139040    0.0004500389    
0.0348952000    0.0192692890    0.0004406784    
0.0351178610    0.0202393860    0.0004537021    
0.0353405220    0.0205391530    0.0004549676    
0.0355631830    0.0200546600    0.0004478763    
0.0357858440    0.0204747700    0.0004525433    
0.0360085050    0.0199043470    0.0004475430    
0.0362311660    0.0190998950    0.0004331944    
0.0364538270    0.0195196290    0.0004344136    
0.0366764880    0.0198098910    0.0004373140    
0.0368991490    0.0204134420    0.0004416880    
0.0371218100    0.0196221480    0.0004318038    
0.0373444710    0.0199353190    0.0004399757    
0.0375671320    0.0201387120    0.0004415705    
0.0377897930    0.0202579460    0.0004314109    
0.0380124540    0.0201501410    0.0004329611    
0.0382351150    0.0201129430    0.0004325614    
0.0384577760    0.0197723210    0.0004247449    
0.0386804370    0.0200845170    0.0004313520    
0.0389030980    0.0202559360    0.0004299083    
0.0391257590    0.0196398190    0.0004204459    
0.0393484200    0.0200174440    0.0004230402    
0.0395710810    0.0202775960    0.0004263538    
0.0397937420    0.0193273780    0.0004162445    
0.0400164030    0.0205784950    0.0004312530    
0.0402390640    0.0206499970    0.0004262491    
0.0404617250    0.0192158610    0.0004087556    
0.0406843860    0.0194091710    0.0004068374    
0.0409070470    0.0200159060    0.0004174512    
0.0411297080    0.0194426530    0.0004074497    
0.0413523690    0.0201094810    0.0004154461    
0.0415750300    0.0199550050    0.0004173628    
0.0417976910    0.0198307670    0.0004053008    
0.0420203520    0.0192372880    0.0004006899    
0.0422430130    0.0192570860    0.0004024138    
0.0424656740    0.0201516660    0.0004062968    
0.0426883350    0.0204101090    0.0004109233    
0.0429109960    0.0200133700    0.0004081812    
0.0431336570    0.0203597150    0.0004058975    
0.0433563180    0.0198234080    0.0004039709    
0.0435789790    0.0195404060    0.0003947758    
0.0438016400    0.0197213380    0.0003987569    
0.0440243010    0.0190229830    0.0003876594    
0.0442469620    0.0200990950    0.0004008611    
0.0444696230    0.0201853940    0.0004002802    
0.0446922840    0.0200499060    0.0003977498    
0.0449149450    0.0199321920    0.0003912789    
0.0451376060    0.0196167600    0.0003929644    
0.0453602670    0.0196623740    0.0003892967    
0.0455829280    0.0202244300    0.0003943650    
0.0458055890    0.0196674450    0.0003911645    
0.0460282500    0.0201603360    0.0003912600    
0.0462509110    0.0199028380    0.0003863354    
0.0464735720    0.0200229170    0.0003877179    
0.0466962330    0.0195992900    0.0003853383    
0.0469188940    0.0199855140    0.0003880134    
0.0471415550    0.0202902710    0.0003929685    
0.0473642160    0.0195558620    0.0003803894    
0.0475868770    0.0196184460    0.0003791048    
0.0478095380    0.0195633110    0.0003769151    
0.0480321990    0.0199117040    0.0003810896    
0.0482548600    0.0193987540    0.0003745101    
0.0484775210    0.0195056530    0.0003792693    
0.0487001820    0.0195044240    0.0003737056    
0.0489228430    0.0193261120    0.0003717935    
0.0491455040    0.0196240170    0.0003720569    
0.0493681650    0.0195322040    0.0003743753    
0.0495908260    0.0199417140    0.0003719149    
0.0498134870    0.0191709530    0.0003681280    
0.0500361480    0.0195196640    0.0003704782    
0.0502588090    0.0197373220    0.0003669560    
0.0504814700    0.0195005290    0.0003695165    
0.0507041310    0.0195933420    0.0003659910    
0.0509267920    0.0196179290    0.0003677356    
0.0511494530    0.0202481780    0.0003711048    
0.0513721140    0.0195058090    0.0003674459    
0.0515947750    0.0198074780    0.0003653671    
0.0518174360    0.0196161790    0.0003614082    
0.0520400970    0.0199689180    0.0003621148    
0.0522627580    0.0190341500    0.0003565423    
0.0524854190    0.0192295390    0.0003612814    
0.0527080800    0.0196801120    0.0003683193    
0.0529307410    0.0192530900    0.0003660125    
0.0531534020    0.0201216590    0.0003728151    
0.0533760630    0.0197334700    0.0003703572    
0.0535987240    0.0199283720    0.0003704440    
0.0538213850    0.0194697200    0.0003703985    
0.0540440460    0.0194743310    0.0003686892    
0.0542667070    0.0192978510    0.0003695442    
0.0544893680    0.0201401800    0.0003777243    
0.0547120290    0.0195018310    0.0003691437    
0.0549346900    0.0195013720    0.0003693336    
0.0551573510    0.0194834640    0.0003735097    
0.0553800120    0.0196815420    0.0003722122    
0.0556026730    0.0196993970    0.0003801018    
0.0558253340    0.0194713760    0.0003810599    
0.0560479950    0.0194415660    0.0003807683    
0.0562706560    0.0202678450    0.0003925342    
0.0564933170    0.0200180490    0.0003934954    
0.0567159780    0.0196466150    0.0003851537    
0.0569386390    0.0192162250    0.0003868864    
0.0571613000    0.0197474200    0.0003837526    
0.0573839610    0.0204696410    0.0003874631    
0.0576066220    0.0200226440    0.0003842700    
0.0578292830    0.0199636180    0.0003824335    
0.0580519440    0.0191294130    0.0003758097    
0.0582746050    0.0198538790    0.0003811715    
0.0584972660    0.0199563530    0.0003806912    
0.0587199270    0.0198707240    0.0003765989    
0.0589425880    0.0188770990    0.0003649154    
0.0591652490    0.0200492030    0.0003782868    
0.0593879100    0.0198087670    0.0003732192    
0.0596105710    0.0200336450    0.0003749358    
0.0598332320    0.0189715020    0.0003679800    
0.0600558930    0.0187514990    0.0003635077    
0.0602785540    0.0198791700    0.0003738827    
0.0605012150    0.0197464740    0.0003718476    
0.0607238760    0.0195563290    0.0003673562    
0.0609465370    0.0198444310    0.0003729655    
0.0611691980    0.0199355120    0.0003744129    
0.0613918590    0.0196952190    0.0003680867    
0.0616145200    0.0192167400    0.0003662491    
0.0618371810    0.0191901610    0.0003624012    
0.0620598420    0.0188525620    0.0003595696    
0.0622825030    0.0197446370    0.0003736059    
0.0625051640    0.0204652780    0.0003750208    
0.0627278250    0.0192929040    0.0003633708    
0.0629504860    0.0193844730    0.0003612711    
0.0631731470    0.0193081410    0.0003650200    
0.0633958080    0.0197194970    0.0003710108    
0.0636184690    0.0189952480    0.0003692054    
0.0638411300    0.0191662900    0.0003694717    
0.0640637910    0.0195090750    0.0003753828    
0.0642864520    0.0199856850    0.0003791183    
0.0645091130    0.0198544860    0.0003811832    
0.0647317740    0.0187907910    0.0003712406    
0.0649544350    0.0192983410    0.0003758070    
0.0651770960    0.0190087450    0.0003709421    
0.0653997570    0.0195894610    0.0003757489    
0.0656224180    0.0197905670    0.0003784940    
0.0658450790    0.0206040320    0.0003806435    
0.0660677400    0.0194322900    0.0003712348    
0.0662904010    0.0195359070    0.0003766669    
0.0665130620    0.0201659380    0.0003810324    
0.0667357230    0.0198154750    0.0003844224    
0.0669583840    0.0192830680    0.0003779541    
0.0671810450    0.0198253460    0.0003811157    
0.0674037060    0.0203209310    0.0003923866    
0.0676263670    0.0198751400    0.0003852176    
0.0678490280    0.0197286620    0.0003814484    
0.0680716890    0.0201202950    0.0003860730    
0.0682943500    0.0192036870    0.0003730454    
0.0685170110    0.0198437700    0.0003753473    
0.0687396720    0.0193641770    0.0003697987    
0.0689623330    0.0204556480    0.0003788733    
0.0691849940    0.0197511060    0.0003748709    
0.0694076550    0.0195949880    0.0003731871    
0.0696303160    0.0198595540    0.0003727235    
0.0698529770    0.0194698940    0.0003682754    
0.0700756380    0.0196995830    0.0003656860    
0.0702982990    0.0198881930    0.0003714339    
0.0705209600    0.0201832130    0.0003714772    
0.0707436210    0.0198966430    0.0003671367    
0.0709662820    0.0201657470    0.0003740174    
0.0711889430    0.0193621140    0.0003619877    
0.0714116040    0.0196043350    0.0003649885    
0.0716342650    0.0195128610    0.0003626575    
0.0718569260    0.0195699510    0.0003617249    
0.0720795870    0.0199645050    0.0003668310    
0.0723022480    0.0195048190    0.0003631357    
0.0725249090    0.0195882270    0.0003595532    
0.0727475700    0.0196356160    0.0003630627    
0.0729702310    0.0195548780    0.0003594258    
0.0731928920    0.0200111680    0.0003650482    
0.0734155530    0.0193941360    0.0003586590    
0.0736382140    0.0191329120    0.0003539492    
0.0738608750    0.0195600060    0.0003601900    
0.0740835360    0.0198985980    0.0003623922    
0.0743061970    0.0191561110    0.0003505601    
0.0745288580    0.0201152010    0.0003629224    
0.0747515190    0.0195899440    0.0003588600    
0.0749741800    0.0196225650    0.0003558341    
0.0751968410    0.0198991400    0.0003611465    
0.0754195020    0.0194204970    0.0003546864    
0.0756421630    0.0197415240    0.0003546827    
0.0758648240    0.0197981350    0.0003560447    
0.0760874850    0.0192417880    0.0003508379    
0.0763101460    0.0196645730    0.0003543310    
0.0765328070    0.0191242530    0.0003530046    
0.0767554680    0.0195469390    0.0003544627    
0.0769781290    0.0196025130    0.0003529264    
0.0772007900    0.0195394470    0.0003495322    
0.0774234510    0.0191742300    0.0003482197    
0.0776461120    0.0190305690    0.0003465837    
0.0778687730    0.0189238520    0.0003444688    
0.0780914340    0.0191252900    0.0003487718    
0.0783140950    0.0198106700    0.0003493342    
0.0785367560    0.0195832820    0.0003529236    
0.0787594170    0.0194900560    0.0003489280    
0.0789820780    0.0195443360    0.0003476231    
0.0792047390    0.0191122330    0.0003448828    
0.0794274000    0.0193498490    0.0003484904    
0.0796500610    0.0192447700    0.0003441508    
0.0798727220    0.0191785420    0.0003432410    
0.0800953830    0.0197080290    0.0003471467    
0.0803180440    0.0198161580    0.0003505226    
0.0805407050    0.0194946350    0.0003473440    
0.0807633660    0.0195140560    0.0003471944    
0.0809860270    0.0195296270    0.0003460503    
0.0812086880    0.0194165170    0.0003420649    
0.0814313490    0.0194237510    0.0003436890    
0.0816540100    0.0194262140    0.0003429283    
0.0818766710    0.0195454340    0.0003447644    
0.0820993320    0.0197348040    0.0003457992    
0.0823219930    0.0193419860    0.0003437523    
0.0825446540    0.0193930940    0.0003417053    
0.0827673150    0.0199590820    0.0003443269    
0.0829899760    0.0194027190    0.0003388895    
0.0832126370    0.0191588650    0.0003382615    
0.0834352980    0.0194775820    0.0003403009    
0.0836579590    0.0194619960    0.0003394075    
0.0838806200    0.0195065580    0.0003408592    
0.0841032810    0.0190886520    0.0003350950    
0.0843259420    0.0191057280    0.0003342124    
0.0845486030    0.0192811460    0.0003357434    
0.0847712640    0.0198727200    0.0003387778    
0.0849939250    0.0197043810    0.0003379273    
0.0852165860    0.0194887510    0.0003365135    
0.0854392470    0.0196173760    0.0003344249    
0.0856619080    0.0198379780    0.0003387768    
0.0858845690    0.0198970030    0.0003362247    
0.0861072300    0.0194123000    0.0003343968    
0.0863298910    0.0195404630    0.0003372556    
0.0865525520    0.0194618890    0.0003336705    
0.0867752130    0.0191772240    0.0003285486    
0.0869978740    0.0191732620    0.0003293519    
0.0872205350    0.0192599390    0.0003296756    
0.0874431960    0.0200048610    0.0003359908    
0.0876658570    0.0192659890    0.0003309936    
0.0878885180    0.0197201240    0.0003354461    
0.0881111790    0.0194418890    0.0003326439    
0.0883338400    0.0191751510    0.0003255173    
0.0885565010    0.0198065960    0.0003353199    
0.0887791620    0.0194455580    0.0003279412    
0.0890018230    0.0195088630    0.0003316606    
0.0892244840    0.0199825960    0.0003362340    
0.0894471450    0.0191802230    0.0003280228    
0.0896698060    0.0191081790    0.0003261712    
0.0898924670    0.0194880320    0.0003309241    
0.0901151280    0.0197841360    0.0003298272    
0.0903377890    0.0194457470    0.0003297310    
0.0905604500    0.0202426910    0.0003348759    
0.0907831110    0.0193372950    0.0003264870    
0.0910057720    0.0191424530    0.0003263287    
0.0912284330    0.0197818930    0.0003269846    
0.0914510940    0.0195071460    0.0003283268    
0.0916737550    0.0191905000    0.0003248431    
0.0918964160    0.0201045090    0.0003338717    
0.0921190770    0.0192471240    0.0003237212    
0.0923417380    0.0199495180    0.0003297103    
0.0925643990    0.0195212220    0.0003253537    
0.0927870600    0.0189982680    0.0003222824    
0.0930097210    0.0193585830    0.0003225535    
0.0932323820    0.0196224190    0.0003271312    
