# Diamond Light Source Ltd.
# Data extracted from: /dls/b21/data/2018/cm19678-3/processed/b21-386631_00016.dat
q(1/A)          Column          Error           
0.0035000000    2.1214809000    0.0247707450    
0.0037226610    1.8906175000    0.0228917850    
0.0039453220    1.6183257000    0.0192671470    
0.0041679830    1.2872829000    0.0141119240    
0.0043906440    0.9713664700    0.0117253580    
0.0046133050    0.7877018400    0.0101362970    
0.0048359660    0.6015013400    0.0083784637    
0.0050586270    0.4565231900    0.0071744556    
0.0052812880    0.4384422900    0.0066476448    
0.0055039490    0.3830043300    0.0059077756    
0.0057266100    0.3220361200    0.0052406915    
0.0059492710    0.2694153100    0.0047934418    
0.0061719320    0.2270469700    0.0042403515    
0.0063945930    0.2043533000    0.0040716231    
0.0066172539    0.1854041400    0.0036416813    
0.0068399149    0.1667215900    0.0033989441    
0.0070625759    0.1488607000    0.0031787820    
0.0072852369    0.1211892200    0.0028252384    
0.0075078979    0.1136749700    0.0027228025    
0.0077305589    0.1034862000    0.0025484266    
0.0079532199    0.0909952820    0.0023565684    
0.0081758809    0.0942504020    0.0024206590    
0.0083985419    0.0848566120    0.0021422700    
0.0086212029    0.0765818870    0.0020351407    
0.0088438639    0.0702476680    0.0019335034    
0.0090665249    0.0667706410    0.0018206414    
0.0092891859    0.0618171880    0.0018284628    
0.0095118469    0.0624210610    0.0017669483    
0.0097345079    0.0585491970    0.0016620154    
0.0099571689    0.0565214710    0.0015993085    
0.0101798300    0.0515888620    0.0015279302    
0.0104024910    0.0487232310    0.0014798627    
0.0106251520    0.0490094370    0.0014892427    
0.0108478130    0.0439477790    0.0013733681    
0.0110704740    0.0466435750    0.0013470454    
0.0112931350    0.0422222500    0.0012853774    
0.0115157960    0.0392947200    0.0012327850    
0.0117384570    0.0383170010    0.0012068721    
0.0119611180    0.0364344960    0.0011802291    
0.0121837790    0.0359591600    0.0011527977    
0.0124064400    0.0333631270    0.0010641185    
0.0126291010    0.0346844350    0.0010714058    
0.0128517620    0.0341593770    0.0010659203    
0.0130744230    0.0346376600    0.0010653960    
0.0132970840    0.0323851850    0.0010251351    
0.0135197450    0.0296672280    0.0009671240    
0.0137424060    0.0313913600    0.0009809800    
0.0139650670    0.0316202720    0.0009626200    
0.0141877280    0.0303178850    0.0009446704    
0.0144103890    0.0297078120    0.0009189937    
0.0146330500    0.0307632740    0.0009292387    
0.0148557110    0.0290584910    0.0008993377    
0.0150783720    0.0279231540    0.0008743079    
0.0153010330    0.0279661960    0.0008626449    
0.0155236940    0.0284496910    0.0008648961    
0.0157463550    0.0273708570    0.0008336409    
0.0159690160    0.0268863310    0.0008230938    
0.0161916770    0.0246657950    0.0007839304    
0.0164143380    0.0255721180    0.0008042501    
0.0166369990    0.0252312000    0.0007742401    
0.0168596600    0.0245084590    0.0007563475    
0.0170823210    0.0255998780    0.0007663123    
0.0173049820    0.0239620910    0.0007426759    
0.0175276430    0.0243055840    0.0007558677    
0.0177503040    0.0231937710    0.0007195543    
0.0179729650    0.0250555610    0.0007404596    
0.0181956260    0.0257882200    0.0007368063    
0.0184182870    0.0235854640    0.0007013150    
0.0186409480    0.0242228660    0.0007152268    
0.0188636090    0.0231684070    0.0006950870    
0.0190862700    0.0238236110    0.0007037449    
0.0193089310    0.0224023590    0.0006813667    
0.0195315920    0.0237665790    0.0006779392    
0.0197542530    0.0219352140    0.0006522447    
0.0199769140    0.0232734450    0.0006718465    
0.0201995750    0.0230200640    0.0006577161    
0.0204222360    0.0224802910    0.0006555386    
0.0206448970    0.0234810410    0.0006652093    
0.0208675580    0.0229035590    0.0006434498    
0.0210902190    0.0216892030    0.0006322013    
0.0213128800    0.0218935530    0.0006265539    
0.0215355410    0.0225129310    0.0006277859    
0.0217582020    0.0229155820    0.0006333752    
0.0219808630    0.0214760860    0.0006123540    
0.0222035240    0.0211057850    0.0006015510    
0.0224261850    0.0211528010    0.0005968608    
0.0226488460    0.0214169390    0.0005960659    
0.0228715070    0.0210465460    0.0005894212    
0.0230941680    0.0218058810    0.0005999599    
0.0233168290    0.0210188180    0.0005905001    
0.0235394900    0.0216932080    0.0005932778    
0.0237621510    0.0219543580    0.0005807706    
0.0239848120    0.0210658480    0.0005695553    
0.0242074730    0.0216694710    0.0005730339    
0.0244301340    0.0214911330    0.0005713222    
0.0246527950    0.0209317960    0.0005690594    
0.0248754560    0.0215980750    0.0005650540    
0.0250981170    0.0214569190    0.0005644604    
0.0253207780    0.0214385860    0.0005473731    
0.0255434390    0.0216131410    0.0005554628    
0.0257661000    0.0211353680    0.0005510658    
0.0259887610    0.0204072560    0.0005357361    
0.0262114220    0.0204973610    0.0005397782    
0.0264340830    0.0202891460    0.0005297229    
0.0266567440    0.0205309460    0.0005295774    
0.0268794050    0.0204991840    0.0005270079    
0.0271020660    0.0206560860    0.0005268792    
0.0273247270    0.0205282220    0.0005220915    
0.0275473880    0.0201688730    0.0005164719    
0.0277700490    0.0205454070    0.0005181893    
0.0279927100    0.0210489000    0.0005199241    
0.0282153710    0.0202685200    0.0005126755    
0.0284380320    0.0210211820    0.0005190811    
0.0286606930    0.0198565210    0.0005001785    
0.0288833540    0.0204252730    0.0005082549    
0.0291060150    0.0201466840    0.0005042979    
0.0293286760    0.0201537280    0.0004973577    
0.0295513370    0.0201614930    0.0004920365    
0.0297739980    0.0207306230    0.0005044261    
0.0299966590    0.0200996760    0.0004882072    
0.0302193200    0.0206531500    0.0005020953    
0.0304419810    0.0202391790    0.0004979525    
0.0306646420    0.0192863780    0.0004723706    
0.0308873030    0.0193380520    0.0004709599    
0.0311099640    0.0201880200    0.0004824482    
0.0313326250    0.0198446890    0.0004730292    
0.0315552860    0.0212532420    0.0004958732    
0.0317779470    0.0197720300    0.0004786981    
0.0320006080    0.0209536900    0.0004815986    
0.0322232690    0.0200914310    0.0004735596    
0.0324459300    0.0204743050    0.0004744815    
0.0326685910    0.0203958970    0.0004727915    
0.0328912520    0.0202664280    0.0004728492    
0.0331139130    0.0190440230    0.0004524044    
0.0333365740    0.0204226810    0.0004700151    
0.0335592350    0.0204137910    0.0004653944    
0.0337818960    0.0199151970    0.0004593098    
0.0340045570    0.0210135390    0.0004710561    
0.0342272170    0.0198947350    0.0004565367    
0.0344498780    0.0192606740    0.0004509818    
0.0346725390    0.0207001800    0.0004588724    
0.0348952000    0.0199173120    0.0004480611    
0.0351178610    0.0194897270    0.0004452542    
0.0353405220    0.0205825920    0.0004554830    
0.0355631830    0.0206979530    0.0004550374    
0.0357858440    0.0200477150    0.0004478329    
0.0360085050    0.0196859550    0.0004451148    
0.0362311660    0.0194074200    0.0004367011    
0.0364538270    0.0193485440    0.0004325385    
0.0366764880    0.0200060090    0.0004395068    
0.0368991490    0.0199864200    0.0004370770    
0.0371218100    0.0202428690    0.0004386138    
0.0373444710    0.0200840250    0.0004416472    
0.0375671320    0.0196575950    0.0004362971    
0.0377897930    0.0198383450    0.0004269521    
0.0380124540    0.0192134640    0.0004228104    
0.0382351150    0.0204230420    0.0004359164    
0.0384577760    0.0194376760    0.0004211672    
0.0386804370    0.0201431620    0.0004320141    
0.0389030980    0.0203958990    0.0004314238    
0.0391257590    0.0202549530    0.0004270119    
0.0393484200    0.0202529700    0.0004255540    
0.0395710810    0.0200386000    0.0004238660    
0.0397937420    0.0198144690    0.0004214891    
0.0400164030    0.0198223520    0.0004232879    
0.0402390640    0.0201251460    0.0004208293    
0.0404617250    0.0200971050    0.0004180551    
0.0406843860    0.0197106360    0.0004100159    
0.0409070470    0.0207329770    0.0004248953    
0.0411297080    0.0199409280    0.0004126691    
0.0413523690    0.0200953680    0.0004153319    
0.0415750300    0.0203596420    0.0004216051    
0.0417976910    0.0198669190    0.0004057009    
0.0420203520    0.0199580670    0.0004081584    
0.0422430130    0.0203617850    0.0004138267    
0.0424656740    0.0196139910    0.0004008703    
0.0426883350    0.0202973670    0.0004098179    
0.0429109960    0.0197416430    0.0004054315    
0.0431336570    0.0204356480    0.0004066846    
0.0433563180    0.0199663910    0.0004054560    
0.0435789790    0.0198305430    0.0003977261    
0.0438016400    0.0201597860    0.0004031957    
0.0440243010    0.0201794350    0.0003992993    
0.0442469620    0.0195983960    0.0003958666    
0.0444696230    0.0195533550    0.0003939935    
0.0446922840    0.0194926380    0.0003922131    
0.0449149450    0.0201349570    0.0003932939    
0.0451376060    0.0196905980    0.0003937332    
0.0453602670    0.0201972750    0.0003945864    
0.0455829280    0.0194353230    0.0003866243    
0.0458055890    0.0196937770    0.0003914560    
0.0460282500    0.0193735710    0.0003835787    
0.0462509110    0.0199058620    0.0003863941    
0.0464735720    0.0195979590    0.0003836106    
0.0466962330    0.0196477310    0.0003858435    
0.0469188940    0.0194008740    0.0003823250    
0.0471415550    0.0207196210    0.0003971346    
0.0473642160    0.0194108290    0.0003790050    
0.0475868770    0.0193649850    0.0003766766    
0.0478095380    0.0196534380    0.0003778110    
0.0480321990    0.0197250650    0.0003793282    
0.0482548600    0.0198500450    0.0003788701    
0.0484775210    0.0200617910    0.0003846673    
0.0487001820    0.0191994510    0.0003708006    
0.0489228430    0.0199728740    0.0003779922    
0.0491455040    0.0195493940    0.0003713770    
0.0493681650    0.0196571770    0.0003755996    
0.0495908260    0.0204164810    0.0003763446    
0.0498134870    0.0193223360    0.0003696067    
0.0500361480    0.0199234910    0.0003743192    
0.0502588090    0.0194810280    0.0003645934    
0.0504814700    0.0194964890    0.0003695062    
0.0507041310    0.0195894820    0.0003659828    
0.0509267920    0.0189383830    0.0003613379    
0.0511494530    0.0196118130    0.0003652544    
0.0513721140    0.0199587620    0.0003717160    
0.0515947750    0.0200531480    0.0003676538    
0.0518174360    0.0193927330    0.0003593713    
0.0520400970    0.0201821140    0.0003640704    
0.0522627580    0.0194511810    0.0003604544    
0.0524854190    0.0195040100    0.0003638782    
0.0527080800    0.0195452170    0.0003670827    
0.0529307410    0.0194856680    0.0003682445    
0.0531534020    0.0195720290    0.0003677160    
0.0533760630    0.0198824580    0.0003717809    
0.0535987240    0.0192564590    0.0003641731    
0.0538213850    0.0202549690    0.0003778228    
0.0540440460    0.0187721980    0.0003620093    
0.0542667070    0.0194777250    0.0003712906    
0.0544893680    0.0193851230    0.0003706043    
0.0547120290    0.0197843320    0.0003718360    
0.0549346900    0.0190006370    0.0003645888    
0.0551573510    0.0194506170    0.0003732231    
0.0553800120    0.0198534990    0.0003738630    
0.0556026730    0.0195923620    0.0003790966    
0.0558253340    0.0199442250    0.0003856883    
0.0560479950    0.0201754610    0.0003879179    
0.0562706560    0.0198147150    0.0003881509    
0.0564933170    0.0200907160    0.0003942389    
0.0567159780    0.0195514280    0.0003842487    
0.0569386390    0.0199670320    0.0003944021    
0.0571613000    0.0202053960    0.0003882066    
0.0573839610    0.0194898250    0.0003781048    
0.0576066220    0.0193102200    0.0003774004    
0.0578292830    0.0183913000    0.0003670925    
0.0580519440    0.0197156670    0.0003815538    
0.0582746050    0.0204204720    0.0003866016    
0.0584972660    0.0193637990    0.0003750252    
0.0587199270    0.0197452490    0.0003754365    
0.0589425880    0.0192468420    0.0003684998    
0.0591652490    0.0198595080    0.0003765216    
0.0593879100    0.0190733190    0.0003662532    
0.0596105710    0.0197208750    0.0003720258    
0.0598332320    0.0200451740    0.0003782782    
0.0600558930    0.0196564740    0.0003722043    
0.0602785540    0.0199947180    0.0003749962    
0.0605012150    0.0188040200    0.0003628930    
0.0607238760    0.0194902840    0.0003667633    
0.0609465370    0.0191884350    0.0003667771    
0.0611691980    0.0198822770    0.0003739411    
0.0613918590    0.0187624940    0.0003592924    
0.0616145200    0.0194291000    0.0003682952    
0.0618371810    0.0192957510    0.0003634244    
0.0620598420    0.0193355570    0.0003641742    
0.0622825030    0.0200304530    0.0003763288    
0.0625051640    0.0198772920    0.0003696222    
0.0627278250    0.0200213980    0.0003701958    
0.0629504860    0.0190843850    0.0003584910    
0.0631731470    0.0198977220    0.0003705792    
0.0633958080    0.0196875860    0.0003707387    
0.0636184690    0.0195292490    0.0003743874    
0.0638411300    0.0189626230    0.0003675313    
0.0640637910    0.0196781920    0.0003770350    
0.0642864520    0.0198808300    0.0003781512    
0.0645091130    0.0187229970    0.0003701904    
0.0647317740    0.0192411140    0.0003756912    
0.0649544350    0.0194183840    0.0003770027    
0.0651770960    0.0195401370    0.0003761198    
0.0653997570    0.0195563960    0.0003754602    
0.0656224180    0.0190840750    0.0003717050    
0.0658450790    0.0194185590    0.0003695590    
0.0660677400    0.0189812810    0.0003669294    
0.0662904010    0.0198148890    0.0003793756    
0.0665130620    0.0196217530    0.0003758846    
0.0667357230    0.0190129170    0.0003765857    
0.0669583840    0.0197157280    0.0003821997    
0.0671810450    0.0196012040    0.0003789840    
0.0674037060    0.0196874720    0.0003862517    
0.0676263670    0.0196392050    0.0003829535    
0.0678490280    0.0196062620    0.0003802921    
0.0680716890    0.0189527000    0.0003747320    
0.0682943500    0.0192138530    0.0003731725    
0.0685170110    0.0196905670    0.0003739240    
0.0687396720    0.0198686020    0.0003746126    
0.0689623330    0.0191743820    0.0003668437    
0.0691849940    0.0194836970    0.0003723528    
0.0694076550    0.0200671230    0.0003776849    
0.0696303160    0.0191209610    0.0003657547    
0.0698529770    0.0201904570    0.0003750567    
0.0700756380    0.0200963560    0.0003693784    
0.0702982990    0.0193708660    0.0003665990    
0.0705209600    0.0192494500    0.0003628099    
0.0707436210    0.0202858700    0.0003707385    
0.0709662820    0.0194611330    0.0003674529    
0.0711889430    0.0198523970    0.0003665700    
0.0714116040    0.0199607210    0.0003683191    
0.0716342650    0.0198461450    0.0003657693    
0.0718569260    0.0205826650    0.0003709943    
0.0720795870    0.0194619460    0.0003622120    
0.0723022480    0.0200013930    0.0003677572    
0.0725249090    0.0195912030    0.0003596078    
0.0727475700    0.0192290420    0.0003593115    
0.0729702310    0.0192208730    0.0003563701    
0.0731928920    0.0195213460    0.0003605802    
0.0734155530    0.0193970830    0.0003587135    
0.0736382140    0.0189982930    0.0003527286    
0.0738608750    0.0202993260    0.0003669618    
0.0740835360    0.0189048910    0.0003532545    
0.0743061970    0.0196979890    0.0003555107    
0.0745288580    0.0198039090    0.0003601306    
0.0747515190    0.0189091410    0.0003525960    
0.0749741800    0.0196126390    0.0003557711    
0.0751968410    0.0193056230    0.0003557469    
0.0754195020    0.0193975330    0.0003545036    
0.0756421630    0.0192091650    0.0003498943    
0.0758648240    0.0192696120    0.0003512868    
0.0760874850    0.0193214850    0.0003515904    
0.0763101460    0.0193035830    0.0003510903    
0.0765328070    0.0196419950    0.0003577783    
0.0767554680    0.0192027550    0.0003513548    
0.0769781290    0.0193830640    0.0003509720    
0.0772007900    0.0191046660    0.0003456478    
0.0774234510    0.0194744150    0.0003509616    
0.0776461120    0.0199235830    0.0003546492    
0.0778687730    0.0195663980    0.0003502947    
0.0780914340    0.0191918080    0.0003494043    
0.0783140950    0.0186492570    0.0003389654    
0.0785367560    0.0198597910    0.0003554334    
0.0787594170    0.0198991220    0.0003525975    
0.0789820780    0.0199059720    0.0003508512    
0.0792047390    0.0198682890    0.0003516649    
0.0794274000    0.0189635990    0.0003450209    
0.0796500610    0.0193030920    0.0003446981    
0.0798727220    0.0200723310    0.0003511747    
0.0800953830    0.0198639170    0.0003485434    
0.0803180440    0.0189013840    0.0003423625    
0.0805407050    0.0193119050    0.0003457386    
0.0807633660    0.0198506450    0.0003502025    
0.0809860270    0.0192995520    0.0003440320    
0.0812086880    0.0192687890    0.0003407871    
0.0814313490    0.0198950350    0.0003478600    
0.0816540100    0.0195684210    0.0003442073    
0.0818766710    0.0197004610    0.0003461552    
0.0820993320    0.0197984040    0.0003463822    
0.0823219930    0.0189599820    0.0003403667    
0.0825446540    0.0197814330    0.0003451358    
0.0827673150    0.0199264680    0.0003440716    
0.0829899760    0.0190327090    0.0003356681    
0.0832126370    0.0194604310    0.0003409392    
0.0834352980    0.0198789530    0.0003438154    
0.0836579590    0.0193051130    0.0003380625    
0.0838806200    0.0197954630    0.0003434002    
0.0841032810    0.0191974530    0.0003360741    
0.0843259420    0.0195120880    0.0003377736    
0.0845486030    0.0190911180    0.0003341102    
0.0847712640    0.0193443340    0.0003342691    
0.0849939250    0.0187220070    0.0003294209    
0.0852165860    0.0186722930    0.0003294142    
0.0854392470    0.0194264910    0.0003328191    
0.0856619080    0.0192855140    0.0003340516    
0.0858845690    0.0191442570    0.0003298284    
0.0861072300    0.0198300560    0.0003380014    
0.0863298910    0.0199509510    0.0003408055    
0.0865525520    0.0194190740    0.0003333286    
0.0867752130    0.0200245810    0.0003357542    
0.0869978740    0.0194873840    0.0003320641    
0.0872205350    0.0198046860    0.0003343307    
0.0874431960    0.0193870630    0.0003307872    
0.0876658570    0.0192746040    0.0003310928    
0.0878885180    0.0189241510    0.0003286315    
0.0881111790    0.0196326890    0.0003342975    
0.0883338400    0.0196257370    0.0003293447    
0.0885565010    0.0195768190    0.0003333945    
0.0887791620    0.0192327870    0.0003261669    
0.0890018230    0.0190381300    0.0003276597    
0.0892244840    0.0191934500    0.0003295529    
0.0894471450    0.0189418750    0.0003260031    
0.0896698060    0.0198795350    0.0003327148    
0.0898924670    0.0193223860    0.0003295398    
0.0901151280    0.0193856800    0.0003265138    
0.0903377890    0.0189118770    0.0003251980    
0.0905604500    0.0193924960    0.0003277930    
0.0907831110    0.0195772990    0.0003285318    
0.0910057720    0.0190841590    0.0003258562    
0.0912284330    0.0198443610    0.0003275254    
0.0914510940    0.0192835050    0.0003264641    
0.0916737550    0.0200678430    0.0003322108    
0.0918964160    0.0192535750    0.0003267545    
0.0921190770    0.0196584650    0.0003271870    
0.0923417380    0.0192004450    0.0003234856    
0.0925643990    0.0193777570    0.0003241806    
0.0927870600    0.0195096750    0.0003266161    
0.0930097210    0.0188616290    0.0003184106    
0.0932323820    0.0190199480    0.0003220945    
