# Diamond Light Source Ltd.
# Data extracted from: /dls/b21/data/2018/cm19678-3/processed/b21-386631_00017.dat
q(1/A)          Column          Error           
0.0035000000    2.0589378000    0.0244058960    
0.0037226610    1.8669642000    0.0227509450    
0.0039453220    1.6217081000    0.0192896530    
0.0041679830    1.3120499000    0.0142487920    
0.0043906440    0.9782602600    0.0117683450    
0.0046133050    0.7976814900    0.0102015650    
0.0048359660    0.6092376500    0.0084332134    
0.0050586270    0.4575381600    0.0071833135    
0.0052812880    0.4357277200    0.0066278521    
0.0055039490    0.3820962900    0.0059014969    
0.0057266100    0.3233952500    0.0052523873    
0.0059492710    0.2668373700    0.0047710424    
0.0061719320    0.2255980000    0.0042273213    
0.0063945930    0.1991293600    0.0040197405    
0.0066172539    0.1769358400    0.0035579820    
0.0068399149    0.1647527400    0.0033792323    
0.0070625759    0.1474037400    0.0031635783    
0.0072852369    0.1274777500    0.0028979702    
0.0075078979    0.1146163200    0.0027343907    
0.0077305589    0.0998709630    0.0025038260    
0.0079532199    0.0963286520    0.0024249455    
0.0081758809    0.0935896370    0.0024124566    
0.0083985419    0.0836333480    0.0021270355    
0.0086212029    0.0790892460    0.0020684439    
0.0088438639    0.0707973290    0.0019412928    
0.0090665249    0.0659926390    0.0018102269    
0.0092891859    0.0592358180    0.0017901002    
0.0095118469    0.0629867990    0.0017751566    
0.0097345079    0.0579501790    0.0016536957    
0.0099571689    0.0573954580    0.0016118250    
0.0101798300    0.0499720790    0.0015039829    
0.0104024910    0.0481508010    0.0014713256    
0.0106251520    0.0467583120    0.0014548180    
0.0108478130    0.0445596300    0.0013830660    
0.0110704740    0.0440869250    0.0013097694    
0.0112931350    0.0437200200    0.0013081386    
0.0115157960    0.0400394490    0.0012445660    
0.0117384570    0.0417864930    0.0012604832    
0.0119611180    0.0373995150    0.0011959046    
0.0121837790    0.0370770250    0.0011707237    
0.0124064400    0.0358496070    0.0011031954    
0.0126291010    0.0330378010    0.0010457933    
0.0128517620    0.0344007010    0.0010698109    
0.0130744230    0.0318928740    0.0010224386    
0.0132970840    0.0330098870    0.0010351030    
0.0135197450    0.0330488140    0.0010208813    
0.0137424060    0.0318590610    0.0009883828    
0.0139650670    0.0304262730    0.0009443872    
0.0141877280    0.0300898370    0.0009412270    
0.0144103890    0.0301132470    0.0009253576    
0.0146330500    0.0280194620    0.0008869406    
0.0148557110    0.0294554370    0.0009055713    
0.0150783720    0.0278752860    0.0008736660    
0.0153010330    0.0283989550    0.0008694010    
0.0155236940    0.0254322050    0.0008178446    
0.0157463550    0.0269966670    0.0008280251    
0.0159690160    0.0270694020    0.0008259933    
0.0161916770    0.0259677840    0.0008044537    
0.0164143380    0.0244652290    0.0007867487    
0.0166369990    0.0258077700    0.0007831331    
0.0168596600    0.0265223670    0.0007869065    
0.0170823210    0.0260421480    0.0007729989    
0.0173049820    0.0245896580    0.0007524313    
0.0175276430    0.0248288550    0.0007640552    
0.0177503040    0.0250081230    0.0007472606    
0.0179729650    0.0237265820    0.0007206436    
0.0181956260    0.0249312610    0.0007245501    
0.0184182870    0.0256980280    0.0007321405    
0.0186409480    0.0235951380    0.0007059858    
0.0188636090    0.0246759630    0.0007174336    
0.0190862700    0.0233512410    0.0006968192    
0.0193089310    0.0239003700    0.0007038660    
0.0195315920    0.0230180760    0.0006672607    
0.0197542530    0.0227554030    0.0006644090    
0.0199769140    0.0235313850    0.0006756427    
0.0201995750    0.0232137150    0.0006605583    
0.0204222360    0.0233462720    0.0006681280    
0.0206448970    0.0219034580    0.0006425540    
0.0208675580    0.0223848530    0.0006362004    
0.0210902190    0.0228189170    0.0006485369    
0.0213128800    0.0227777890    0.0006391602    
0.0215355410    0.0223433870    0.0006254947    
0.0217582020    0.0216079540    0.0006151147    
0.0219808630    0.0225117990    0.0006270234    
0.0222035240    0.0215911820    0.0006085042    
0.0224261850    0.0212759450    0.0005986696    
0.0226488460    0.0218038790    0.0006015006    
0.0228715070    0.0210847670    0.0005900290    
0.0230941680    0.0221910240    0.0006053098    
0.0233168290    0.0213392870    0.0005950582    
0.0235394900    0.0215849610    0.0005918688    
0.0237621510    0.0212528880    0.0005714877    
0.0239848120    0.0209324260    0.0005678189    
0.0242074730    0.0215990370    0.0005721725    
0.0244301340    0.0201595600    0.0005534082    
0.0246527950    0.0217725880    0.0005804476    
0.0248754560    0.0215442630    0.0005644193    
0.0250981170    0.0201551770    0.0005471378    
0.0253207780    0.0209406350    0.0005410457    
0.0255434390    0.0204904350    0.0005409103    
0.0257661000    0.0214280200    0.0005549364    
0.0259887610    0.0206514480    0.0005389984    
0.0262114220    0.0209147470    0.0005453135    
0.0264340830    0.0212763560    0.0005425242    
0.0266567440    0.0202354230    0.0005258172    
0.0268794050    0.0202738630    0.0005241682    
0.0271020660    0.0219919990    0.0005437172    
0.0273247270    0.0210114280    0.0005282656    
0.0275473880    0.0207559200    0.0005239991    
0.0277700490    0.0211387590    0.0005256836    
0.0279927100    0.0205531160    0.0005138279    
0.0282153710    0.0197287480    0.0005058653    
0.0284380320    0.0216930640    0.0005273764    
0.0286606930    0.0201386780    0.0005037819    
0.0288833540    0.0209363320    0.0005146377    
0.0291060150    0.0204673190    0.0005083578    
0.0293286760    0.0204901830    0.0005015540    
0.0295513370    0.0205628360    0.0004969711    
0.0297739980    0.0197413120    0.0004923036    
0.0299966590    0.0199741680    0.0004867407    
0.0302193200    0.0206460420    0.0005020709    
0.0304419810    0.0209059130    0.0005061504    
0.0306646420    0.0203326540    0.0004850742    
0.0308873030    0.0193657740    0.0004713556    
0.0311099640    0.0202506680    0.0004832558    
0.0313326250    0.0197368090    0.0004718000    
0.0315552860    0.0207955960    0.0004905659    
0.0317779470    0.0197885060    0.0004789567    
0.0320006080    0.0205049220    0.0004764723    
0.0322232690    0.0212351890    0.0004869124    
0.0324459300    0.0205013590    0.0004748536    
0.0326685910    0.0194800970    0.0004621122    
0.0328912520    0.0205693810    0.0004764291    
0.0331139130    0.0196292180    0.0004593594    
0.0333365740    0.0198542770    0.0004634854    
0.0335592350    0.0194636900    0.0004544912    
0.0337818960    0.0203439480    0.0004642850    
0.0340045570    0.0208286090    0.0004690367    
0.0342272170    0.0200044390    0.0004578502    
0.0344498780    0.0203955850    0.0004641358    
0.0346725390    0.0197590560    0.0004483752    
0.0348952000    0.0199524780    0.0004485119    
0.0351178610    0.0204102550    0.0004557041    
0.0353405220    0.0201642270    0.0004508858    
0.0355631830    0.0194722880    0.0004414135    
0.0357858440    0.0200826860    0.0004482787    
0.0360085050    0.0196505490    0.0004447693    
0.0362311660    0.0195498190    0.0004383544    
0.0364538270    0.0197305240    0.0004368411    
0.0366764880    0.0201944490    0.0004416264    
0.0368991490    0.0199435530    0.0004366620    
0.0371218100    0.0195159040    0.0004307192    
0.0373444710    0.0200598430    0.0004414357    
0.0375671320    0.0201273750    0.0004415342    
0.0377897930    0.0203027920    0.0004319743    
0.0380124540    0.0195532490    0.0004265853    
0.0382351150    0.0197673150    0.0004289142    
0.0384577760    0.0189952080    0.0004163974    
0.0386804370    0.0192769660    0.0004226755    
0.0389030980    0.0194698870    0.0004215683    
0.0391257590    0.0196566590    0.0004207100    
0.0393484200    0.0207677760    0.0004309818    
0.0395710810    0.0193350750    0.0004164103    
0.0397937420    0.0195054810    0.0004182414    
0.0400164030    0.0195469720    0.0004203893    
0.0402390640    0.0202885520    0.0004225865    
0.0404617250    0.0201194650    0.0004183393    
0.0406843860    0.0205003710    0.0004182008    
0.0409070470    0.0190309710    0.0004071320    
0.0411297080    0.0203217060    0.0004166419    
0.0413523690    0.0198856760    0.0004132102    
0.0415750300    0.0193167460    0.0004107158    
0.0417976910    0.0200209890    0.0004073212    
0.0420203520    0.0199379480    0.0004080030    
0.0422430130    0.0197274590    0.0004073800    
0.0424656740    0.0198892710    0.0004037234    
0.0426883350    0.0196650860    0.0004034341    
0.0429109960    0.0190719230    0.0003985444    
0.0431336570    0.0193073500    0.0003953470    
0.0433563180    0.0197242550    0.0004030397    
0.0435789790    0.0195322440    0.0003947721    
0.0438016400    0.0200679750    0.0004023262    
0.0440243010    0.0194968530    0.0003925364    
0.0442469620    0.0202510790    0.0004024541    
0.0444696230    0.0198758160    0.0003972780    
0.0446922840    0.0208867440    0.0004060465    
0.0449149450    0.0200093010    0.0003921132    
0.0451376060    0.0196324610    0.0003932001    
0.0453602670    0.0197087730    0.0003898335    
0.0455829280    0.0196939910    0.0003892367    
0.0458055890    0.0201967490    0.0003964723    
0.0460282500    0.0199025060    0.0003888276    
0.0462509110    0.0195656780    0.0003831256    
0.0464735720    0.0195727560    0.0003834112    
0.0466962330    0.0194706860    0.0003841485    
0.0469188940    0.0198276920    0.0003865554    
0.0471415550    0.0194836910    0.0003851555    
0.0473642160    0.0201114180    0.0003858317    
0.0475868770    0.0198901060    0.0003817967    
0.0478095380    0.0204428810    0.0003853719    
0.0480321990    0.0190951350    0.0003732681    
0.0482548600    0.0197753830    0.0003782036    
0.0484775210    0.0197790240    0.0003819939    
0.0487001820    0.0193617810    0.0003724108    
0.0489228430    0.0198275440    0.0003766610    
0.0491455040    0.0190249670    0.0003664072    
0.0493681650    0.0200281380    0.0003791739    
0.0495908260    0.0194639390    0.0003675059    
0.0498134870    0.0196524090    0.0003727962    
0.0500361480    0.0201535120    0.0003765203    
0.0502588090    0.0192333090    0.0003623127    
0.0504814700    0.0190179740    0.0003649886    
0.0507041310    0.0192113250    0.0003624778    
0.0509267920    0.0198188410    0.0003696876    
0.0511494530    0.0192968570    0.0003623543    
0.0513721140    0.0194166460    0.0003666783    
0.0515947750    0.0189051810    0.0003570194    
0.0518174360    0.0197572300    0.0003627776    
0.0520400970    0.0191688760    0.0003548575    
0.0522627580    0.0193691290    0.0003597377    
0.0524854190    0.0197532810    0.0003662414    
0.0527080800    0.0192259350    0.0003641171    
0.0529307410    0.0193443020    0.0003669516    
0.0531534020    0.0195837740    0.0003678718    
0.0533760630    0.0201933280    0.0003747223    
0.0535987240    0.0199707670    0.0003709118    
0.0538213850    0.0196819210    0.0003724859    
0.0540440460    0.0201524520    0.0003751282    
0.0542667070    0.0194612970    0.0003711799    
0.0544893680    0.0196025190    0.0003727227    
0.0547120290    0.0195096120    0.0003692910    
0.0549346900    0.0197190790    0.0003714635    
0.0551573510    0.0193121560    0.0003719382    
0.0553800120    0.0194710930    0.0003702907    
0.0556026730    0.0193991010    0.0003772688    
0.0558253340    0.0201878840    0.0003880850    
0.0560479950    0.0198148830    0.0003844833    
0.0562706560    0.0194697620    0.0003848050    
0.0564933170    0.0197165140    0.0003905984    
0.0567159780    0.0198961690    0.0003876694    
0.0569386390    0.0190212890    0.0003849959    
0.0571613000    0.0198149820    0.0003844852    
0.0573839610    0.0190544130    0.0003739036    
0.0576066220    0.0194699220    0.0003790046    
0.0578292830    0.0196124600    0.0003791308    
0.0580519440    0.0198460980    0.0003828612    
0.0582746050    0.0193493320    0.0003763721    
0.0584972660    0.0193831120    0.0003752585    
0.0587199270    0.0191289180    0.0003695762    
0.0589425880    0.0192374820    0.0003684557    
0.0591652490    0.0193074660    0.0003712974    
0.0593879100    0.0192750010    0.0003682300    
0.0596105710    0.0192834950    0.0003679226    
0.0598332320    0.0201929320    0.0003797167    
0.0600558930    0.0198375690    0.0003739611    
0.0602785540    0.0200700040    0.0003757479    
0.0605012150    0.0192710010    0.0003674168    
0.0607238760    0.0194605810    0.0003665289    
0.0609465370    0.0195858740    0.0003706018    
0.0611691980    0.0195284160    0.0003706443    
0.0613918590    0.0192626300    0.0003640945    
0.0616145200    0.0192383730    0.0003665283    
0.0618371810    0.0194853740    0.0003652509    
0.0620598420    0.0198891890    0.0003693967    
0.0622825030    0.0196252160    0.0003725486    
0.0625051640    0.0197653290    0.0003686253    
0.0627278250    0.0194512270    0.0003649315    
0.0629504860    0.0192979070    0.0003605354    
0.0631731470    0.0195850780    0.0003677017    
0.0633958080    0.0193363080    0.0003674617    
0.0636184690    0.0195197150    0.0003743423    
0.0638411300    0.0192523140    0.0003703738    
0.0640637910    0.0196035680    0.0003763659    
0.0642864520    0.0191806750    0.0003714786    
0.0645091130    0.0190717180    0.0003736680    
0.0647317740    0.0183727220    0.0003671608    
0.0649544350    0.0194231800    0.0003770958    
0.0651770960    0.0198853160    0.0003794742    
0.0653997570    0.0199361550    0.0003791350    
0.0656224180    0.0194219010    0.0003750268    
0.0658450790    0.0196062620    0.0003713867    
0.0660677400    0.0194968020    0.0003719247    
0.0662904010    0.0201903140    0.0003830000    
0.0665130620    0.0200011250    0.0003795478    
0.0667357230    0.0202561090    0.0003887506    
0.0669583840    0.0196613100    0.0003817190    
0.0671810450    0.0198699020    0.0003816199    
0.0674037060    0.0194043020    0.0003835112    
0.0676263670    0.0202191850    0.0003886150    
0.0678490280    0.0198545840    0.0003827401    
0.0680716890    0.0189129150    0.0003743847    
0.0682943500    0.0203857780    0.0003844321    
0.0685170110    0.0190348910    0.0003676910    
0.0687396720    0.0196474330    0.0003725678    
0.0689623330    0.0191018960    0.0003661948    
0.0691849940    0.0194742740    0.0003723087    
0.0694076550    0.0196952380    0.0003742151    
0.0696303160    0.0198604800    0.0003728066    
0.0698529770    0.0199724440    0.0003730724    
0.0700756380    0.0197685620    0.0003663987    
0.0702982990    0.0193270720    0.0003662296    
0.0705209600    0.0191652870    0.0003620606    
0.0707436210    0.0198978040    0.0003672207    
0.0709662820    0.0193479640    0.0003664282    
0.0711889430    0.0193359870    0.0003618156    
0.0714116040    0.0193266410    0.0003624666    
0.0716342650    0.0194532170    0.0003621751    
0.0718569260    0.0188486930    0.0003550673    
0.0720795870    0.0196488110    0.0003639917    
0.0723022480    0.0195126000    0.0003632806    
0.0725249090    0.0192329070    0.0003563483    
0.0727475700    0.0193412430    0.0003604028    
0.0729702310    0.0191463120    0.0003557221    
0.0731928920    0.0194129140    0.0003596218    
0.0734155530    0.0189838450    0.0003549157    
0.0736382140    0.0197955950    0.0003600985    
0.0738608750    0.0199725690    0.0003640413    
0.0740835360    0.0194311580    0.0003581818    
0.0743061970    0.0194718110    0.0003535074    
0.0745288580    0.0195729820    0.0003580690    
0.0747515190    0.0196766770    0.0003597253    
0.0749741800    0.0193980050    0.0003538627    
0.0751968410    0.0195202160    0.0003577628    
0.0754195020    0.0199531580    0.0003595893    
0.0756421630    0.0197302750    0.0003546523    
0.0758648240    0.0191078260    0.0003498522    
0.0760874850    0.0198126140    0.0003560749    
0.0763101460    0.0193147380    0.0003512351    
0.0765328070    0.0198489210    0.0003597023    
0.0767554680    0.0201399010    0.0003598707    
0.0769781290    0.0191399410    0.0003488070    
0.0772007900    0.0197411520    0.0003514018    
0.0774234510    0.0190110650    0.0003468041    
0.0776461120    0.0196632960    0.0003523684    
0.0778687730    0.0195147750    0.0003498755    
0.0780914340    0.0192283620    0.0003497801    
0.0783140950    0.0195104500    0.0003467463    
0.0785367560    0.0205009780    0.0003611701    
0.0787594170    0.0194165900    0.0003483392    
0.0789820780    0.0196449150    0.0003485860    
0.0792047390    0.0196864180    0.0003500949    
0.0794274000    0.0197342980    0.0003520055    
0.0796500610    0.0194556240    0.0003461000    
0.0798727220    0.0191124480    0.0003427174    
0.0800953830    0.0198932920    0.0003488441    
0.0803180440    0.0185835090    0.0003395133    
0.0805407050    0.0192609540    0.0003453248    
0.0807633660    0.0194724040    0.0003468929    
0.0809860270    0.0199422760    0.0003497569    
0.0812086880    0.0195267510    0.0003431030    
0.0814313490    0.0197904410    0.0003469872    
0.0816540100    0.0191372160    0.0003404358    
0.0818766710    0.0195958190    0.0003452773    
0.0820993320    0.0193062410    0.0003420921    
0.0823219930    0.0193924850    0.0003442694    
0.0825446540    0.0197080160    0.0003445373    
0.0827673150    0.0197293420    0.0003424077    
0.0829899760    0.0189781950    0.0003352285    
0.0832126370    0.0197818920    0.0003437860    
0.0834352980    0.0196697380    0.0003420436    
0.0836579590    0.0188953780    0.0003344970    
0.0838806200    0.0197943940    0.0003434333    
0.0841032810    0.0198436410    0.0003417256    
0.0843259420    0.0195169070    0.0003378570    
0.0845486030    0.0189964070    0.0003333216    
0.0847712640    0.0194299970    0.0003350498    
0.0849939250    0.0200079270    0.0003405882    
0.0852165860    0.0194442100    0.0003361958    
0.0854392470    0.0197107530    0.0003352867    
0.0856619080    0.0197127760    0.0003377734    
0.0858845690    0.0196491660    0.0003341908    
0.0861072300    0.0193105550    0.0003335858    
0.0863298910    0.0192163400    0.0003345136    
0.0865525520    0.0194925460    0.0003339998    
0.0867752130    0.0191905060    0.0003287280    
0.0869978740    0.0199902560    0.0003363628    
0.0872205350    0.0191660070    0.0003289363    
0.0874431960    0.0195612120    0.0003323106    
0.0876658570    0.0191371440    0.0003299508    
0.0878885180    0.0195110740    0.0003337299    
0.0881111790    0.0202866180    0.0003398613    
0.0883338400    0.0198627680    0.0003313685    
0.0885565010    0.0199564770    0.0003366534    
0.0887791620    0.0192762670    0.0003265757    
0.0890018230    0.0198494440    0.0003346098    
0.0892244840    0.0197868140    0.0003346495    
0.0894471450    0.0194235840    0.0003301631    
0.0896698060    0.0195669620    0.0003301295    
0.0898924670    0.0193608890    0.0003299087    
0.0901151280    0.0196050010    0.0003283961    
0.0903377890    0.0192185860    0.0003278648    
0.0905604500    0.0196411380    0.0003299285    
0.0907831110    0.0191520010    0.0003249838    
0.0910057720    0.0190499160    0.0003256039    
0.0912284330    0.0200168810    0.0003289866    
0.0914510940    0.0194762310    0.0003281320    
0.0916737550    0.0194732010    0.0003272923    
0.0918964160    0.0195966820    0.0003296938    
0.0921190770    0.0195380420    0.0003262236    
0.0923417380    0.0196631030    0.0003274002    
0.0925643990    0.0192035270    0.0003227597    
0.0927870600    0.0185409560    0.0003184434    
0.0930097210    0.0199792320    0.0003277487    
0.0932323820    0.0196902620    0.0003277616    
