# Diamond Light Source Ltd.
# Data extracted from: /dls/b21/data/2018/cm19678-3/processed/b21-386631_00031.dat
q(1/A)          Column          Error           
0.0035000000    2.1400126000    0.0248905990    
0.0037226610    1.9124023000    0.0230343050    
0.0039453220    1.6430644000    0.0194231390    
0.0041679830    1.3258337000    0.0143285230    
0.0043906440    0.9813629300    0.0117911740    
0.0046133050    0.8007282400    0.0102246550    
0.0048359660    0.5866569800    0.0082783901    
0.0050586270    0.4665528900    0.0072563070    
0.0052812880    0.4288739100    0.0065778517    
0.0055039490    0.3893909000    0.0059596770    
0.0057266100    0.3192710600    0.0052206400    
0.0059492710    0.2669413600    0.0047736650    
0.0061719320    0.2238556400    0.0042124592    
0.0063945930    0.1950481500    0.0039797458    
0.0066172539    0.1842927800    0.0036324869    
0.0068399149    0.1663955900    0.0033972435    
0.0070625759    0.1467609500    0.0031577929    
0.0072852369    0.1230852000    0.0028486146    
0.0075078979    0.1137184500    0.0027246258    
0.0077305589    0.1044646600    0.0025616706    
0.0079532199    0.0981074800    0.0024481011    
0.0081758809    0.0897355690    0.0023630994    
0.0083985419    0.0884024450    0.0021876165    
0.0086212029    0.0742190880    0.0020044577    
0.0088438639    0.0711671850    0.0019470475    
0.0090665249    0.0641512100    0.0017854255    
0.0092891859    0.0603064210    0.0018068453    
0.0095118469    0.0634320170    0.0017820514    
0.0097345079    0.0571884930    0.0016433746    
0.0099571689    0.0517288080    0.0015307329    
0.0101798300    0.0530877180    0.0015507088    
0.0104024910    0.0486348790    0.0014792276    
0.0106251520    0.0482409900    0.0014782279    
0.0108478130    0.0452785940    0.0013946737    
0.0110704740    0.0438456370    0.0013066437    
0.0112931350    0.0425368280    0.0012907739    
0.0115157960    0.0404162800    0.0012508524    
0.0117384570    0.0389244030    0.0012169820    
0.0119611180    0.0373877880    0.0011961413    
0.0121837790    0.0373622840    0.0011756356    
0.0124064400    0.0345840900    0.0010839331    
0.0126291010    0.0354795540    0.0010841351    
0.0128517620    0.0328603360    0.0010459560    
0.0130744230    0.0307674670    0.0010045934    
0.0132970840    0.0324811340    0.0010271436    
0.0135197450    0.0312419320    0.0009929338    
0.0137424060    0.0310838610    0.0009766304    
0.0139650670    0.0322371910    0.0009724300    
0.0141877280    0.0302879680    0.0009446558    
0.0144103890    0.0310736570    0.0009403316    
0.0146330500    0.0294441230    0.0009095320    
0.0148557110    0.0274982500    0.0008752789    
0.0150783720    0.0284431050    0.0008828325    
0.0153010330    0.0263416100    0.0008376145    
0.0155236940    0.0259239910    0.0008260071    
0.0157463550    0.0262025560    0.0008160454    
0.0159690160    0.0267102800    0.0008207870    
0.0161916770    0.0254126200    0.0007960903    
0.0164143380    0.0261535850    0.0008137314    
0.0166369990    0.0260401130    0.0007869295    
0.0168596600    0.0249991830    0.0007642473    
0.0170823210    0.0245222490    0.0007503686    
0.0173049820    0.0238928570    0.0007419569    
0.0175276430    0.0241406090    0.0007536584    
0.0177503040    0.0238416110    0.0007298832    
0.0179729650    0.0243348150    0.0007300810    
0.0181956260    0.0235371460    0.0007042506    
0.0184182870    0.0237750210    0.0007044644    
0.0186409480    0.0230622780    0.0006982161    
0.0188636090    0.0236497950    0.0007026069    
0.0190862700    0.0231805380    0.0006945138    
0.0193089310    0.0221333840    0.0006775879    
0.0195315920    0.0223762850    0.0006581260    
0.0197542530    0.0231986400    0.0006710866    
0.0199769140    0.0234121920    0.0006741685    
0.0201995750    0.0228163720    0.0006551130    
0.0204222360    0.0224635330    0.0006556077    
0.0206448970    0.0237487300    0.0006693103    
0.0208675580    0.0222740790    0.0006348494    
0.0210902190    0.0217652920    0.0006336121    
0.0213128800    0.0207299340    0.0006099678    
0.0215355410    0.0221139220    0.0006224953    
0.0217582020    0.0217109030    0.0006167970    
0.0219808630    0.0227025440    0.0006298976    
0.0222035240    0.0219497380    0.0006137536    
0.0224261850    0.0213921890    0.0006005158    
0.0226488460    0.0225831960    0.0006123729    
0.0228715070    0.0218432600    0.0006007610    
0.0230941680    0.0228511650    0.0006144652    
0.0233168290    0.0225832240    0.0006123736    
0.0235394900    0.0209668870    0.0005835403    
0.0237621510    0.0210065420    0.0005683675    
0.0239848120    0.0207160750    0.0005650773    
0.0242074730    0.0215385250    0.0005715731    
0.0244301340    0.0207363630    0.0005614685    
0.0246527950    0.0214009030    0.0005756759    
0.0248754560    0.0206125300    0.0005522755    
0.0250981170    0.0213288170    0.0005630420    
0.0253207780    0.0205777930    0.0005365281    
0.0255434390    0.0211194110    0.0005493442    
0.0257661000    0.0214719900    0.0005557026    
0.0259887610    0.0201593050    0.0005327262    
0.0262114220    0.0205881140    0.0005412305    
0.0264340830    0.0213606730    0.0005437909    
0.0266567440    0.0212205700    0.0005386556    
0.0268794050    0.0210748270    0.0005346118    
0.0271020660    0.0202050270    0.0005213441    
0.0273247270    0.0216510160    0.0005364358    
0.0275473880    0.0199895990    0.0005144174    
0.0277700490    0.0206173940    0.0005193447    
0.0279927100    0.0204134450    0.0005122607    
0.0282153710    0.0217027460    0.0005307580    
0.0284380320    0.0198481000    0.0005046308    
0.0286606930    0.0202034160    0.0005047700    
0.0288833540    0.0205967280    0.0005106278    
0.0291060150    0.0203554910    0.0005071469    
0.0293286760    0.0202712970    0.0004990448    
0.0295513370    0.0209620530    0.0005019501    
0.0297739980    0.0210330290    0.0005083349    
0.0299966590    0.0215313860    0.0005055375    
0.0302193200    0.0204774240    0.0005001938    
0.0304419810    0.0204057010    0.0005002359    
0.0306646420    0.0205555350    0.0004878986    
0.0308873030    0.0199994780    0.0004791755    
0.0311099640    0.0208536020    0.0004905712    
0.0313326250    0.0207214270    0.0004835967    
0.0315552860    0.0192469720    0.0004721140    
0.0317779470    0.0200577670    0.0004823753    
0.0320006080    0.0195666260    0.0004656082    
0.0322232690    0.0200547920    0.0004733539    
0.0324459300    0.0203508120    0.0004732747    
0.0326685910    0.0209310080    0.0004791825    
0.0328912520    0.0199876610    0.0004698105    
0.0331139130    0.0199873880    0.0004636958    
0.0333365740    0.0200740890    0.0004662093    
0.0335592350    0.0204651840    0.0004662027    
0.0337818960    0.0192768460    0.0004521047    
0.0340045570    0.0205368710    0.0004659055    
0.0342272170    0.0202283650    0.0004605690    
0.0344498780    0.0201669560    0.0004616907    
0.0346725390    0.0211985320    0.0004645852    
0.0348952000    0.0189678010    0.0004374597    
0.0351178610    0.0202923760    0.0004545475    
0.0353405220    0.0193613060    0.0004419745    
0.0355631830    0.0205775690    0.0004539292    
0.0357858440    0.0201570190    0.0004492669    
0.0360085050    0.0198961970    0.0004476994    
0.0362311660    0.0198489350    0.0004418518    
0.0364538270    0.0198800280    0.0004386486    
0.0366764880    0.0201024690    0.0004407758    
0.0368991490    0.0199959760    0.0004373906    
0.0371218100    0.0200244190    0.0004364494    
0.0373444710    0.0198504930    0.0004392820    
0.0375671320    0.0193468480    0.0004330419    
0.0377897930    0.0194250460    0.0004226833    
0.0380124540    0.0197720170    0.0004291172    
0.0382351150    0.0197627170    0.0004290165    
0.0384577760    0.0196572310    0.0004237417    
0.0386804370    0.0188176550    0.0004177577    
0.0389030980    0.0191914030    0.0004186911    
0.0391257590    0.0201842250    0.0004264696    
0.0393484200    0.0190730130    0.0004131689    
0.0395710810    0.0197346960    0.0004208408    
0.0397937420    0.0195911190    0.0004193072    
0.0400164030    0.0201217930    0.0004266771    
0.0402390640    0.0200210870    0.0004199407    
0.0404617250    0.0198203780    0.0004153655    
0.0406843860    0.0194221570    0.0004071990    
0.0409070470    0.0192972410    0.0004101157    
0.0411297080    0.0201566160    0.0004150933    
0.0413523690    0.0204067350    0.0004187374    
0.0415750300    0.0200557840    0.0004186473    
0.0417976910    0.0200020260    0.0004072727    
0.0420203520    0.0200105840    0.0004088905    
0.0422430130    0.0191184880    0.0004011853    
0.0424656740    0.0200345990    0.0004053395    
0.0426883350    0.0196707590    0.0004036354    
0.0429109960    0.0199355520    0.0004076127    
0.0431336570    0.0201392600    0.0004039178    
0.0433563180    0.0201338410    0.0004073474    
0.0435789790    0.0200411460    0.0004000237    
0.0438016400    0.0202597920    0.0004043879    
0.0440243010    0.0194869630    0.0003925761    
0.0442469620    0.0196331560    0.0003964070    
0.0444696230    0.0196276890    0.0003949305    
0.0446922840    0.0204118100    0.0004015460    
0.0449149450    0.0207309360    0.0003992629    
0.0451376060    0.0196069910    0.0003930843    
0.0453602670    0.0198230710    0.0003911010    
0.0455829280    0.0195463000    0.0003879120    
0.0458055890    0.0204291590    0.0003988883    
0.0460282500    0.0193921080    0.0003839457    
0.0462509110    0.0191591430    0.0003792589    
0.0464735720    0.0200000250    0.0003877110    
0.0466962330    0.0193328140    0.0003829219    
0.0469188940    0.0197060150    0.0003855042    
0.0471415550    0.0194975180    0.0003854288    
0.0473642160    0.0195034750    0.0003800901    
0.0475868770    0.0196768700    0.0003798794    
0.0478095380    0.0198249110    0.0003796371    
0.0480321990    0.0196417140    0.0003787069    
0.0482548600    0.0196156990    0.0003768071    
0.0484775210    0.0196749380    0.0003811227    
0.0487001820    0.0199346370    0.0003780140    
0.0489228430    0.0198272940    0.0003767923    
0.0491455040    0.0199635570    0.0003754698    
0.0493681650    0.0184260320    0.0003638213    
0.0495908260    0.0200888190    0.0003734910    
0.0498134870    0.0199352730    0.0003756027    
0.0500361480    0.0195694670    0.0003711561    
0.0502588090    0.0194723490    0.0003646865    
0.0504814700    0.0192487730    0.0003673269    
0.0507041310    0.0191359860    0.0003618947    
0.0509267920    0.0200399300    0.0003718758    
0.0511494530    0.0195761050    0.0003650963    
0.0513721140    0.0195898050    0.0003684404    
0.0515947750    0.0197687200    0.0003652117    
0.0518174360    0.0196312660    0.0003617476    
0.0520400970    0.0195045980    0.0003580785    
0.0522627580    0.0194029320    0.0003601792    
0.0524854190    0.0200255180    0.0003688873    
0.0527080800    0.0199641680    0.0003711735    
0.0529307410    0.0194346540    0.0003679381    
0.0531534020    0.0196322470    0.0003684574    
0.0533760630    0.0199501920    0.0003725918    
0.0535987240    0.0194058650    0.0003657580    
0.0538213850    0.0200486090    0.0003760730    
0.0540440460    0.0191046100    0.0003653751    
0.0542667070    0.0197159790    0.0003737332    
0.0544893680    0.0200490420    0.0003770776    
0.0547120290    0.0191806950    0.0003662947    
0.0549346900    0.0199361460    0.0003736349    
0.0551573510    0.0189602750    0.0003686649    
0.0553800120    0.0206335700    0.0003813193    
0.0556026730    0.0200956960    0.0003841189    
0.0558253340    0.0199110480    0.0003855517    
0.0560479950    0.0198513420    0.0003849734    
0.0562706560    0.0197880100    0.0003880748    
0.0564933170    0.0198001980    0.0003915653    
0.0567159780    0.0197742280    0.0003866167    
0.0569386390    0.0195650480    0.0003905985    
0.0571613000    0.0199634280    0.0003860597    
0.0573839610    0.0199416690    0.0003826455    
0.0576066220    0.0194615910    0.0003790580    
0.0578292830    0.0194063520    0.0003772671    
0.0580519440    0.0191875820    0.0003765892    
0.0582746050    0.0192458450    0.0003754974    
0.0584972660    0.0193968670    0.0003755248    
0.0587199270    0.0195855070    0.0003740936    
0.0589425880    0.0196889810    0.0003728867    
0.0591652490    0.0188852990    0.0003673460    
0.0593879100    0.0197955360    0.0003733014    
0.0596105710    0.0192128830    0.0003673786    
0.0598332320    0.0194998660    0.0003732758    
0.0600558930    0.0199080840    0.0003747581    
0.0602785540    0.0199997700    0.0003752229    
0.0605012150    0.0200207330    0.0003746285    
0.0607238760    0.0192809600    0.0003649629    
0.0609465370    0.0194594240    0.0003695345    
0.0611691980    0.0201758500    0.0003768719    
0.0613918590    0.0193176210    0.0003647432    
0.0616145200    0.0195175710    0.0003693094    
0.0618371810    0.0195951230    0.0003664080    
0.0620598420    0.0194501760    0.0003654267    
0.0622825030    0.0199434610    0.0003756903    
0.0625051640    0.0190294600    0.0003618265    
0.0627278250    0.0193005960    0.0003636447    
0.0629504860    0.0192711590    0.0003604132    
0.0631731470    0.0199513030    0.0003712553    
0.0633958080    0.0199929350    0.0003737814    
0.0636184690    0.0197059860    0.0003762576    
0.0638411300    0.0199790040    0.0003774329    
0.0640637910    0.0195307090    0.0003757991    
0.0642864520    0.0201806400    0.0003811741    
0.0645091130    0.0196713640    0.0003796316    
0.0647317740    0.0197588190    0.0003808940    
0.0649544350    0.0188361980    0.0003714858    
0.0651770960    0.0194718730    0.0003756418    
0.0653997570    0.0195462460    0.0003755423    
0.0656224180    0.0192037890    0.0003730474    
0.0658450790    0.0196694550    0.0003721167    
0.0660677400    0.0194538390    0.0003716465    
0.0662904010    0.0196302750    0.0003777848    
0.0665130620    0.0198855830    0.0003785842    
0.0667357230    0.0192401600    0.0003790107    
0.0669583840    0.0191635430    0.0003769898    
0.0671810450    0.0186224580    0.0003695776    
0.0674037060    0.0193422210    0.0003830330    
0.0676263670    0.0200915180    0.0003875236    
0.0678490280    0.0189236010    0.0003737916    
0.0680716890    0.0189856670    0.0003752372    
0.0682943500    0.0198271240    0.0003792625    
0.0685170110    0.0194179950    0.0003715045    
0.0687396720    0.0189685260    0.0003662042    
0.0689623330    0.0194948100    0.0003700731    
0.0691849940    0.0197231480    0.0003748131    
0.0694076550    0.0194317210    0.0003718351    
0.0696303160    0.0197625260    0.0003720180    
0.0698529770    0.0201888550    0.0003752212    
0.0700756380    0.0197689990    0.0003665328    
0.0702982990    0.0199241370    0.0003719754    
0.0705209600    0.0193363160    0.0003638015    
0.0707436210    0.0199661810    0.0003679816    
0.0709662820    0.0192089130    0.0003652386    
0.0711889430    0.0196952400    0.0003652908    
0.0714116040    0.0193879760    0.0003631701    
0.0716342650    0.0191363870    0.0003593410    
0.0718569260    0.0196318130    0.0003624970    
0.0720795870    0.0193658570    0.0003614896    
0.0723022480    0.0190729740    0.0003592923    
0.0725249090    0.0192333430    0.0003564788    
0.0727475700    0.0200404580    0.0003669897    
0.0729702310    0.0194112210    0.0003583016    
0.0731928920    0.0191733570    0.0003575228    
0.0734155530    0.0191965200    0.0003570249    
0.0736382140    0.0188788130    0.0003517859    
0.0738608750    0.0200465040    0.0003648439    
0.0740835360    0.0194779830    0.0003587404    
0.0743061970    0.0199994230    0.0003583919    
0.0745288580    0.0194229920    0.0003568209    
0.0747515190    0.0191641530    0.0003551354    
0.0749741800    0.0193407130    0.0003534651    
0.0751968410    0.0197374810    0.0003598759    
0.0754195020    0.0202332040    0.0003622324    
0.0756421630    0.0195592740    0.0003532374    
0.0758648240    0.0196213760    0.0003546482    
0.0760874850    0.0193527810    0.0003520434    
0.0763101460    0.0190344280    0.0003488008    
0.0765328070    0.0190737050    0.0003527332    
0.0767554680    0.0193305230    0.0003526904    
0.0769781290    0.0192871080    0.0003502697    
0.0772007900    0.0188287470    0.0003433069    
0.0774234510    0.0199298850    0.0003552118    
0.0776461120    0.0198731380    0.0003543693    
0.0778687730    0.0197294970    0.0003519199    
0.0780914340    0.0193247830    0.0003507804    
0.0783140950    0.0194502930    0.0003463341    
0.0785367560    0.0190765110    0.0003485203    
0.0787594170    0.0196054750    0.0003501536    
0.0789820780    0.0193369860    0.0003459659    
0.0792047390    0.0193141070    0.0003468916    
0.0794274000    0.0195723710    0.0003506828    
0.0796500610    0.0194940750    0.0003465648    
0.0798727220    0.0198455430    0.0003493522    
0.0800953830    0.0201033000    0.0003508050    
0.0803180440    0.0189815420    0.0003432517    
0.0805407050    0.0193117970    0.0003459030    
0.0807633660    0.0198077980    0.0003499917    
0.0809860270    0.0196801930    0.0003475742    
0.0812086880    0.0197276290    0.0003449856    
0.0814313490    0.0190008610    0.0003401155    
0.0816540100    0.0198598620    0.0003469269    
0.0818766710    0.0190374450    0.0003404432    
0.0820993320    0.0193684690    0.0003427645    
0.0823219930    0.0192288810    0.0003429357    
0.0825446540    0.0198003600    0.0003454661    
0.0827673150    0.0194222170    0.0003398527    
0.0829899760    0.0193709040    0.0003387992    
0.0832126370    0.0202443430    0.0003479046    
0.0834352980    0.0197075060    0.0003424933    
0.0836579590    0.0192109970    0.0003373987    
0.0838806200    0.0200052140    0.0003453798    
0.0841032810    0.0197458320    0.0003410034    
0.0843259420    0.0203208840    0.0003448679    
0.0845486030    0.0192205880    0.0003354016    
0.0847712640    0.0192818990    0.0003338888    
0.0849939250    0.0190706250    0.0003326328    
0.0852165860    0.0192834980    0.0003349223    
0.0854392470    0.0195363970    0.0003339189    
0.0856619080    0.0194950950    0.0003360225    
0.0858845690    0.0195664170    0.0003336046    
0.0861072300    0.0194972610    0.0003353135    
0.0863298910    0.0190260240    0.0003329710    
0.0865525520    0.0188764020    0.0003287953    
0.0867752130    0.0194182550    0.0003307901    
0.0869978740    0.0196306340    0.0003334418    
0.0872205350    0.0196654540    0.0003333128    
0.0874431960    0.0197163290    0.0003337439    
0.0876658570    0.0200957380    0.0003382335    
0.0878885180    0.0198162520    0.0003364491    
0.0881111790    0.0194691470    0.0003330615    
0.0883338400    0.0192959920    0.0003267224    
0.0885565010    0.0190897490    0.0003293785    
0.0887791620    0.0194062180    0.0003277909    
0.0890018230    0.0198973990    0.0003351326    
0.0892244840    0.0201350240    0.0003377010    
0.0894471450    0.0191340990    0.0003278098    
0.0896698060    0.0196365860    0.0003308336    
0.0898924670    0.0195265200    0.0003314344    
0.0901151280    0.0194647810    0.0003273357    
0.0903377890    0.0194281290    0.0003297643    
0.0905604500    0.0193389530    0.0003274968    
0.0907831110    0.0194746260    0.0003278259    
0.0910057720    0.0192583570    0.0003274966    
0.0912284330    0.0199607440    0.0003286415    
0.0914510940    0.0192023760    0.0003259325    
0.0916737550    0.0195310590    0.0003278944    
0.0918964160    0.0195939370    0.0003297876    
0.0921190770    0.0197590370    0.0003281797    
0.0923417380    0.0193279220    0.0003247129    
0.0925643990    0.0193365840    0.0003239909    
0.0927870600    0.0193641460    0.0003255513    
0.0930097210    0.0189496210    0.0003193051    
0.0932323820    0.0195186050    0.0003264455    
