# Diamond Light Source Ltd.
# Data extracted from: /dls/b21/data/2018/cm19678-3/processed/b21-386631_00024.dat
q(1/A)          Column          Error           
0.0035000000    2.0984328000    0.0246346520    
0.0037226610    1.8635546000    0.0227262750    
0.0039453220    1.6658800000    0.0195472520    
0.0041679830    1.3117561000    0.0142447610    
0.0043906440    0.9596693700    0.0116539930    
0.0046133050    0.7929744400    0.0101696830    
0.0048359660    0.5979434100    0.0083532509    
0.0050586270    0.4578327300    0.0071843973    
0.0052812880    0.4423311600    0.0066767443    
0.0055039490    0.3884350500    0.0059492297    
0.0057266100    0.3205558500    0.0052283848    
0.0059492710    0.2727155400    0.0048224824    
0.0061719320    0.2281340200    0.0042502886    
0.0063945930    0.1973578400    0.0040011361    
0.0066172539    0.1843137100    0.0036307841    
0.0068399149    0.1700315600    0.0034323555    
0.0070625759    0.1479642100    0.0031690453    
0.0072852369    0.1315832000    0.0029437620    
0.0075078979    0.1177725200    0.0027713099    
0.0077305589    0.0985818060    0.0024871884    
0.0079532199    0.0985536090    0.0024523716    
0.0081758809    0.0877141790    0.0023351044    
0.0083985419    0.0843618550    0.0021359143    
0.0086212029    0.0788999780    0.0020656143    
0.0088438639    0.0763604810    0.0020157780    
0.0090665249    0.0669132200    0.0018224977    
0.0092891859    0.0632714310    0.0018497572    
0.0095118469    0.0600145540    0.0017324709    
0.0097345079    0.0587323380    0.0016645338    
0.0099571689    0.0544346490    0.0015694324    
0.0101798300    0.0515839650    0.0015277852    
0.0104024910    0.0481792860    0.0014715091    
0.0106251520    0.0456111020    0.0014366147    
0.0108478130    0.0467759100    0.0014168015    
0.0110704740    0.0456277900    0.0013322337    
0.0112931350    0.0399488650    0.0012502348    
0.0115157960    0.0415726520    0.0012679540    
0.0117384570    0.0384273920    0.0012085520    
0.0119611180    0.0371191370    0.0011912098    
0.0121837790    0.0394293750    0.0012070845    
0.0124064400    0.0350228670    0.0010902142    
0.0126291010    0.0375602070    0.0011148849    
0.0128517620    0.0355862360    0.0010879030    
0.0130744230    0.0352569400    0.0010748268    
0.0132970840    0.0319927470    0.0010188566    
0.0135197450    0.0319026410    0.0010028509    
0.0137424060    0.0321546980    0.0009927884    
0.0139650670    0.0291851730    0.0009247676    
0.0141877280    0.0327873000    0.0009823428    
0.0144103890    0.0292217530    0.0009114014    
0.0146330500    0.0281502150    0.0008888557    
0.0148557110    0.0293062130    0.0009031201    
0.0150783720    0.0284679650    0.0008827541    
0.0153010330    0.0279901480    0.0008629732    
0.0155236940    0.0272375990    0.0008462310    
0.0157463550    0.0273682590    0.0008335618    
0.0159690160    0.0259515400    0.0008086201    
0.0161916770    0.0272543620    0.0008240003    
0.0164143380    0.0255444000    0.0008037760    
0.0166369990    0.0250625140    0.0007716110    
0.0168596600    0.0242494010    0.0007523038    
0.0170823210    0.0250699020    0.0007583026    
0.0173049820    0.0246503010    0.0007532298    
0.0175276430    0.0243737900    0.0007568916    
0.0177503040    0.0241736960    0.0007345626    
0.0179729650    0.0249000190    0.0007381227    
0.0181956260    0.0249227390    0.0007243024    
0.0184182870    0.0236874840    0.0007027968    
0.0186409480    0.0228902300    0.0006952412    
0.0188636090    0.0238751650    0.0007055757    
0.0190862700    0.0223870800    0.0006821652    
0.0193089310    0.0231462160    0.0006925537    
0.0195315920    0.0225268000    0.0006599887    
0.0197542530    0.0228251960    0.0006653134    
0.0199769140    0.0240469440    0.0006828873    
0.0201995750    0.0223414350    0.0006479181    
0.0204222360    0.0225163860    0.0006560335    
0.0206448970    0.0212552980    0.0006328673    
0.0208675580    0.0232086650    0.0006476907    
0.0210902190    0.0220372350    0.0006372231    
0.0213128800    0.0221245540    0.0006298207    
0.0215355410    0.0213379920    0.0006111555    
0.0217582020    0.0216880910    0.0006161489    
0.0219808630    0.0232024470    0.0006364603    
0.0222035240    0.0213437920    0.0006049046    
0.0224261850    0.0220096240    0.0006088003    
0.0226488460    0.0220784200    0.0006051722    
0.0228715070    0.0214901980    0.0005955729    
0.0230941680    0.0226455940    0.0006113736    
0.0233168290    0.0216637500    0.0005994625    
0.0235394900    0.0213017790    0.0005878730    
0.0237621510    0.0208462120    0.0005658968    
0.0239848120    0.0219415090    0.0005812448    
0.0242074730    0.0216219580    0.0005723781    
0.0244301340    0.0210183070    0.0005649756    
0.0246527950    0.0209143400    0.0005687951    
0.0248754560    0.0208125970    0.0005546576    
0.0250981170    0.0212321680    0.0005614697    
0.0253207780    0.0211291170    0.0005433823    
0.0255434390    0.0205405270    0.0005414785    
0.0257661000    0.0204581290    0.0005421393    
0.0259887610    0.0200396830    0.0005308642    
0.0262114220    0.0214334850    0.0005519403    
0.0264340830    0.0212275960    0.0005418095    
0.0266567440    0.0205972910    0.0005304072    
0.0268794050    0.0214591050    0.0005391803    
0.0271020660    0.0225220000    0.0005501358    
0.0273247270    0.0208847530    0.0005265807    
0.0275473880    0.0202992010    0.0005181133    
0.0277700490    0.0209616440    0.0005233873    
0.0279927100    0.0209698540    0.0005189223    
0.0282153710    0.0207982220    0.0005193068    
0.0284380320    0.0207115890    0.0005152200    
0.0286606930    0.0205601310    0.0005089391    
0.0288833540    0.0209165290    0.0005143063    
0.0291060150    0.0201321500    0.0005040920    
0.0293286760    0.0205077240    0.0005016828    
0.0295513370    0.0213722760    0.0005065715    
0.0297739980    0.0206427460    0.0005033319    
0.0299966590    0.0192203440    0.0004773860    
0.0302193200    0.0202484190    0.0004971276    
0.0304419810    0.0209845180    0.0005070144    
0.0306646420    0.0199208100    0.0004800544    
0.0308873030    0.0202422440    0.0004818216    
0.0311099640    0.0211314270    0.0004935687    
0.0313326250    0.0199780970    0.0004745940    
0.0315552860    0.0202100660    0.0004835276    
0.0317779470    0.0208363050    0.0004913895    
0.0320006080    0.0200994660    0.0004716573    
0.0322232690    0.0205471180    0.0004788771    
0.0324459300    0.0211540410    0.0004822706    
0.0326685910    0.0192433070    0.0004592165    
0.0328912520    0.0196357200    0.0004654112    
0.0331139130    0.0200523550    0.0004642048    
0.0333365740    0.0205180870    0.0004710893    
0.0335592350    0.0202314990    0.0004632898    
0.0337818960    0.0192989600    0.0004521262    
0.0340045570    0.0203569130    0.0004636160    
0.0342272170    0.0195576330    0.0004526308    
0.0344498780    0.0209587770    0.0004704199    
0.0346725390    0.0194878530    0.0004452114    
0.0348952000    0.0203185680    0.0004525305    
0.0351178610    0.0200879730    0.0004520147    
0.0353405220    0.0197945030    0.0004466567    
0.0355631830    0.0202858690    0.0004504635    
0.0357858440    0.0201758500    0.0004492405    
0.0360085050    0.0202878930    0.0004518473    
0.0362311660    0.0194841830    0.0004375431    
0.0364538270    0.0195884210    0.0004351908    
0.0366764880    0.0197434390    0.0004365924    
0.0368991490    0.0201278840    0.0004386003    
0.0371218100    0.0203549810    0.0004398058    
0.0373444710    0.0203831560    0.0004449029    
0.0375671320    0.0207982780    0.0004487560    
0.0377897930    0.0197262090    0.0004257235    
0.0380124540    0.0196582070    0.0004276556    
0.0382351150    0.0192209570    0.0004228729    
0.0384577760    0.0191985860    0.0004185491    
0.0386804370    0.0203450710    0.0004341532    
0.0389030980    0.0193354840    0.0004200390    
0.0391257590    0.0201810190    0.0004262116    
0.0393484200    0.0203315160    0.0004263581    
0.0395710810    0.0192298510    0.0004152047    
0.0397937420    0.0198574130    0.0004219255    
0.0400164030    0.0197120140    0.0004220881    
0.0402390640    0.0193929220    0.0004130831    
0.0404617250    0.0197473790    0.0004143820    
0.0406843860    0.0202460450    0.0004155276    
0.0409070470    0.0198690310    0.0004159287    
0.0411297080    0.0197170160    0.0004103262    
0.0413523690    0.0188832180    0.0004025916    
0.0415750300    0.0202616830    0.0004205697    
0.0417976910    0.0200804170    0.0004078556    
0.0420203520    0.0197308210    0.0004058087    
0.0422430130    0.0196702580    0.0004067195    
0.0424656740    0.0196694760    0.0004014179    
0.0426883350    0.0203285350    0.0004101130    
0.0429109960    0.0198646520    0.0004066734    
0.0431336570    0.0192521950    0.0003947145    
0.0433563180    0.0194375980    0.0004000319    
0.0435789790    0.0195893770    0.0003952814    
0.0438016400    0.0192951160    0.0003944356    
0.0440243010    0.0193637830    0.0003911277    
0.0442469620    0.0196205220    0.0003960712    
0.0444696230    0.0186703720    0.0003849766    
0.0446922840    0.0199563570    0.0003968322    
0.0449149450    0.0191421410    0.0003834568    
0.0451376060    0.0197831970    0.0003946392    
0.0453602670    0.0198330740    0.0003909940    
0.0455829280    0.0188567030    0.0003808075    
0.0458055890    0.0185170840    0.0003795632    
0.0460282500    0.0200855470    0.0003905448    
0.0462509110    0.0197089830    0.0003844603    
0.0464735720    0.0203093660    0.0003904925    
0.0466962330    0.0196458660    0.0003858068    
0.0469188940    0.0198736500    0.0003869370    
0.0471415550    0.0196140320    0.0003863756    
0.0473642160    0.0195865750    0.0003806988    
0.0475868770    0.0192092970    0.0003751415    
0.0478095380    0.0203487460    0.0003844179    
0.0480321990    0.0200514270    0.0003824352    
0.0482548600    0.0188358690    0.0003690471    
0.0484775210    0.0195362650    0.0003795776    
0.0487001820    0.0196487480    0.0003750963    
0.0489228430    0.0193486730    0.0003720211    
0.0491455040    0.0190678440    0.0003667571    
0.0493681650    0.0198203610    0.0003771375    
0.0495908260    0.0197833080    0.0003704454    
0.0498134870    0.0196174140    0.0003724005    
0.0500361480    0.0194363930    0.0003696976    
0.0502588090    0.0193359000    0.0003632156    
0.0504814700    0.0197397220    0.0003717864    
0.0507041310    0.0185826030    0.0003564362    
0.0509267920    0.0199844050    0.0003711651    
0.0511494530    0.0196643670    0.0003657261    
0.0513721140    0.0187870060    0.0003606224    
0.0515947750    0.0197209890    0.0003645789    
0.0518174360    0.0196106380    0.0003613675    
0.0520400970    0.0202130330    0.0003643319    
0.0522627580    0.0201105590    0.0003664956    
0.0524854190    0.0195225230    0.0003640336    
0.0527080800    0.0194261710    0.0003659457    
0.0529307410    0.0191428520    0.0003649735    
0.0531534020    0.0202057010    0.0003736035    
0.0533760630    0.0198597170    0.0003715506    
0.0535987240    0.0195094320    0.0003665400    
0.0538213850    0.0192030450    0.0003678636    
0.0540440460    0.0197406980    0.0003712127    
0.0542667070    0.0205940400    0.0003817641    
0.0544893680    0.0192557610    0.0003693482    
0.0547120290    0.0198313690    0.0003722601    
0.0549346900    0.0196353920    0.0003706111    
0.0551573510    0.0197924900    0.0003764709    
0.0553800120    0.0199149710    0.0003744236    
0.0556026730    0.0192457790    0.0003757107    
0.0558253340    0.0193904500    0.0003802780    
0.0560479950    0.0197260730    0.0003835551    
0.0562706560    0.0197063960    0.0003870702    
0.0564933170    0.0199108950    0.0003924520    
0.0567159780    0.0192324300    0.0003810831    
0.0569386390    0.0192796390    0.0003875353    
0.0571613000    0.0199126200    0.0003853655    
0.0573839610    0.0199060460    0.0003821027    
0.0576066220    0.0190871300    0.0003751962    
0.0578292830    0.0196130830    0.0003790720    
0.0580519440    0.0198540810    0.0003828727    
0.0582746050    0.0185669600    0.0003686214    
0.0584972660    0.0191005090    0.0003724492    
0.0587199270    0.0200859930    0.0003786442    
0.0589425880    0.0191391960    0.0003674505    
0.0591652490    0.0189796620    0.0003680691    
0.0593879100    0.0194512510    0.0003698465    
0.0596105710    0.0193611130    0.0003685993    
0.0598332320    0.0196435480    0.0003744516    
0.0600558930    0.0193092960    0.0003688851    
0.0602785540    0.0195919800    0.0003711827    
0.0605012150    0.0198106240    0.0003724618    
0.0607238760    0.0196195530    0.0003679601    
0.0609465370    0.0192497040    0.0003673447    
0.0611691980    0.0199436800    0.0003745003    
0.0613918590    0.0194624350    0.0003659154    
0.0616145200    0.0188548400    0.0003627944    
0.0618371810    0.0197251060    0.0003674281    
0.0620598420    0.0197177900    0.0003677387    
0.0622825030    0.0196679950    0.0003728907    
0.0625051640    0.0195180340    0.0003662494    
0.0627278250    0.0199373660    0.0003694006    
0.0629504860    0.0191027740    0.0003586467    
0.0631731470    0.0193437470    0.0003653668    
0.0633958080    0.0193576220    0.0003676013    
0.0636184690    0.0188815060    0.0003681088    
0.0638411300    0.0200719750    0.0003781113    
0.0640637910    0.0198063440    0.0003782427    
0.0642864520    0.0199940170    0.0003792082    
0.0645091130    0.0198775740    0.0003814156    
0.0647317740    0.0194079890    0.0003772990    
0.0649544350    0.0194019040    0.0003768248    
0.0651770960    0.0194224560    0.0003749677    
0.0653997570    0.0193599310    0.0003735518    
0.0656224180    0.0193428710    0.0003741991    
0.0658450790    0.0192901310    0.0003683174    
0.0660677400    0.0197029120    0.0003738215    
0.0662904010    0.0198565850    0.0003797566    
0.0665130620    0.0198142890    0.0003777064    
0.0667357230    0.0197718550    0.0003840100    
0.0669583840    0.0192323090    0.0003774671    
0.0671810450    0.0195993440    0.0003789480    
0.0674037060    0.0202084310    0.0003913101    
0.0676263670    0.0200928070    0.0003873323    
0.0678490280    0.0195380210    0.0003796117    
0.0680716890    0.0198251030    0.0003832414    
0.0682943500    0.0197265730    0.0003781008    
0.0685170110    0.0188011800    0.0003653643    
0.0687396720    0.0197113420    0.0003731095    
0.0689623330    0.0202182100    0.0003766787    
0.0691849940    0.0188699270    0.0003664236    
0.0694076550    0.0199088470    0.0003761747    
0.0696303160    0.0190212070    0.0003647821    
0.0698529770    0.0195058360    0.0003686257    
0.0700756380    0.0201283920    0.0003696551    
0.0702982990    0.0196395830    0.0003691156    
0.0705209600    0.0196510370    0.0003665575    
0.0707436210    0.0201213480    0.0003692146    
0.0709662820    0.0198269660    0.0003708729    
0.0711889430    0.0191872500    0.0003603597    
0.0714116040    0.0190889830    0.0003601695    
0.0716342650    0.0195746390    0.0003632415    
0.0718569260    0.0195844390    0.0003618691    
0.0720795870    0.0197903880    0.0003652383    
0.0723022480    0.0197560940    0.0003654778    
0.0725249090    0.0191999330    0.0003559818    
0.0727475700    0.0199656930    0.0003661120    
0.0729702310    0.0198202640    0.0003618668    
0.0731928920    0.0191265730    0.0003568987    
0.0734155530    0.0193819760    0.0003585568    
0.0736382140    0.0199983730    0.0003618763    
0.0738608750    0.0197335830    0.0003617949    
0.0740835360    0.0192463090    0.0003564131    
0.0743061970    0.0204595850    0.0003623010    
0.0745288580    0.0200901540    0.0003627067    
0.0747515190    0.0190585520    0.0003539695    
0.0749741800    0.0196559490    0.0003561468    
0.0751968410    0.0192447980    0.0003551692    
0.0754195020    0.0191754340    0.0003524515    
0.0756421630    0.0194303870    0.0003518866    
0.0758648240    0.0193766400    0.0003522443    
0.0760874850    0.0197930470    0.0003558381    
0.0763101460    0.0193400610    0.0003514052    
0.0765328070    0.0195554190    0.0003569720    
0.0767554680    0.0197087580    0.0003559370    
0.0769781290    0.0191778800    0.0003490929    
0.0772007900    0.0194217550    0.0003484879    
0.0774234510    0.0196053770    0.0003521230    
0.0776461120    0.0188107230    0.0003445858    
0.0778687730    0.0189813670    0.0003450017    
0.0780914340    0.0206592890    0.0003624995    
0.0783140950    0.0185181190    0.0003377555    
0.0785367560    0.0197879390    0.0003547730    
0.0787594170    0.0198535020    0.0003521764    
0.0789820780    0.0196753000    0.0003487958    
0.0792047390    0.0196796890    0.0003499752    
0.0794274000    0.0196836150    0.0003514931    
0.0796500610    0.0194612830    0.0003460912    
0.0798727220    0.0196281030    0.0003472505    
0.0800953830    0.0195318130    0.0003456011    
0.0803180440    0.0200405110    0.0003525114    
0.0805407050    0.0197123650    0.0003492883    
0.0807633660    0.0196819650    0.0003486949    
0.0809860270    0.0191873430    0.0003430142    
0.0812086880    0.0193694120    0.0003416595    
0.0814313490    0.0196681250    0.0003458541    
0.0816540100    0.0193425650    0.0003421989    
0.0818766710    0.0193580160    0.0003431172    
0.0820993320    0.0190087840    0.0003393885    
0.0823219930    0.0196791180    0.0003467450    
0.0825446540    0.0197012800    0.0003444195    
0.0827673150    0.0192473550    0.0003381415    
0.0829899760    0.0197116340    0.0003415864    
0.0832126370    0.0194645570    0.0003409591    
0.0834352980    0.0198176070    0.0003432682    
0.0836579590    0.0194749440    0.0003395301    
0.0838806200    0.0194600180    0.0003404620    
0.0841032810    0.0198486240    0.0003417101    
0.0843259420    0.0192179040    0.0003352017    
0.0845486030    0.0189431400    0.0003327970    
0.0847712640    0.0192962930    0.0003338379    
0.0849939250    0.0197924410    0.0003386913    
0.0852165860    0.0198559510    0.0003396786    
0.0854392470    0.0196755080    0.0003349296    
0.0856619080    0.0199895360    0.0003400781    
0.0858845690    0.0194947200    0.0003328179    
0.0861072300    0.0190389650    0.0003311750    
0.0863298910    0.0192563410    0.0003348043    
0.0865525520    0.0190911310    0.0003304864    
0.0867752130    0.0198425500    0.0003342088    
0.0869978740    0.0191234340    0.0003289331    
0.0872205350    0.0188547100    0.0003261982    
0.0874431960    0.0200737230    0.0003365782    
0.0876658570    0.0195912390    0.0003337854    
0.0878885180    0.0188139330    0.0003276575    
0.0881111790    0.0196080580    0.0003340719    
0.0883338400    0.0200825570    0.0003331398    
0.0885565010    0.0197055360    0.0003344729    
0.0887791620    0.0196955570    0.0003300519    
0.0890018230    0.0197806340    0.0003339723    
0.0892244840    0.0195876820    0.0003329044    
0.0894471450    0.0190578910    0.0003269844    
0.0896698060    0.0200001430    0.0003337067    
0.0898924670    0.0195790590    0.0003317055    
0.0901151280    0.0193178530    0.0003259266    
0.0903377890    0.0191616940    0.0003273233    
0.0905604500    0.0191247270    0.0003255066    
0.0907831110    0.0188312330    0.0003221958    
0.0910057720    0.0194996000    0.0003293682    
0.0912284330    0.0191506130    0.0003217341    
0.0914510940    0.0196243130    0.0003293208    
0.0916737550    0.0194610460    0.0003271342    
0.0918964160    0.0194180930    0.0003281319    
0.0921190770    0.0188670690    0.0003205183    
0.0923417380    0.0204465610    0.0003338019    
0.0925643990    0.0193867630    0.0003242405    
0.0927870600    0.0191469720    0.0003235505    
0.0930097210    0.0192844410    0.0003219444    
0.0932323820    0.0184618330    0.0003173186    
