# Diamond Light Source Ltd.
# Data extracted from: /dls/b21/data/2018/cm19678-3/processed/b21-386631_00030.dat
q(1/A)          Column          Error           
0.0035000000    2.1261026000    0.0248061160    
0.0037226610    1.9149203000    0.0230462520    
0.0039453220    1.6416883000    0.0194122980    
0.0041679830    1.3102930000    0.0142423150    
0.0043906440    0.9751408400    0.0117520970    
0.0046133050    0.7901936500    0.0101557580    
0.0048359660    0.6085658100    0.0084303773    
0.0050586270    0.4602174300    0.0072058664    
0.0052812880    0.4324861900    0.0066045747    
0.0055039490    0.3789781100    0.0058786331    
0.0057266100    0.3283137500    0.0052933179    
0.0059492710    0.2684031400    0.0047860503    
0.0061719320    0.2196724100    0.0041723325    
0.0063945930    0.1973480000    0.0040025821    
0.0066172539    0.1883929400    0.0036721606    
0.0068399149    0.1658638200    0.0033913381    
0.0070625759    0.1465162700    0.0031547197    
0.0072852369    0.1314871700    0.0029438245    
0.0075078979    0.1153183100    0.0027433423    
0.0077305589    0.1019235700    0.0025299699    
0.0079532199    0.1026604700    0.0025039138    
0.0081758809    0.0929456130    0.0024046595    
0.0083985419    0.0837234940    0.0021286399    
0.0086212029    0.0783115160    0.0020586919    
0.0088438639    0.0718396510    0.0019559522    
0.0090665249    0.0656733250    0.0018062309    
0.0092891859    0.0634826890    0.0018535586    
0.0095118469    0.0626135250    0.0017702700    
0.0097345079    0.0577862970    0.0016517114    
0.0099571689    0.0548389900    0.0015758591    
0.0101798300    0.0499030370    0.0015032672    
0.0104024910    0.0488462140    0.0014822314    
0.0106251520    0.0487709530    0.0014861183    
0.0108478130    0.0469838480    0.0014204957    
0.0110704740    0.0445341280    0.0013166791    
0.0112931350    0.0447961030    0.0013244246    
0.0115157960    0.0408307380    0.0012570745    
0.0117384570    0.0379245480    0.0012010825    
0.0119611180    0.0375303970    0.0011982534    
0.0121837790    0.0350959660    0.0011392633    
0.0124064400    0.0367141270    0.0011166585    
0.0126291010    0.0364963320    0.0010994068    
0.0128517620    0.0344820870    0.0010713063    
0.0130744230    0.0320705720    0.0010255038    
0.0132970840    0.0325694970    0.0010283965    
0.0135197450    0.0309492860    0.0009881347    
0.0137424060    0.0311979030    0.0009782840    
0.0139650670    0.0287678530    0.0009184869    
0.0141877280    0.0312809900    0.0009598828    
0.0144103890    0.0296141580    0.0009178549    
0.0146330500    0.0290988640    0.0009040577    
0.0148557110    0.0307214960    0.0009250274    
0.0150783720    0.0279968700    0.0008757578    
0.0153010330    0.0280117800    0.0008636402    
0.0155236940    0.0276270090    0.0008525880    
0.0157463550    0.0266271820    0.0008225164    
0.0159690160    0.0289217680    0.0008539710    
0.0161916770    0.0278737890    0.0008336334    
0.0164143380    0.0268550040    0.0008244561    
0.0166369990    0.0267223100    0.0007970597    
0.0168596600    0.0256695750    0.0007743189    
0.0170823210    0.0260304120    0.0007729911    
0.0173049820    0.0239553000    0.0007428223    
0.0175276430    0.0246513720    0.0007614834    
0.0177503040    0.0253316320    0.0007522404    
0.0179729650    0.0247440840    0.0007360921    
0.0181956260    0.0240993650    0.0007125127    
0.0184182870    0.0242066180    0.0007107308    
0.0186409480    0.0241758870    0.0007147751    
0.0188636090    0.0241440300    0.0007098116    
0.0190862700    0.0244014290    0.0007124695    
0.0193089310    0.0217746730    0.0006719810    
0.0195315920    0.0220023740    0.0006525132    
0.0197542530    0.0225905360    0.0006621403    
0.0199769140    0.0227069900    0.0006638449    
0.0201995750    0.0239947040    0.0006717228    
0.0204222360    0.0221703390    0.0006512243    
0.0206448970    0.0230820840    0.0006597575    
0.0208675580    0.0226477450    0.0006400631    
0.0210902190    0.0224599460    0.0006435541    
0.0213128800    0.0219801660    0.0006280047    
0.0215355410    0.0224931550    0.0006277227    
0.0217582020    0.0220902490    0.0006220755    
0.0219808630    0.0216304200    0.0006147586    
0.0222035240    0.0219779340    0.0006140621    
0.0224261850    0.0217906940    0.0006059989    
0.0226488460    0.0218132710    0.0006017597    
0.0228715070    0.0195741670    0.0005686226    
0.0230941680    0.0224483580    0.0006089405    
0.0233168290    0.0213318780    0.0005950830    
0.0235394900    0.0212857690    0.0005878791    
0.0237621510    0.0213696600    0.0005731789    
0.0239848120    0.0214499540    0.0005749191    
0.0242074730    0.0215476860    0.0005716150    
0.0244301340    0.0207305830    0.0005613120    
0.0246527950    0.0206518430    0.0005654327    
0.0248754560    0.0209914060    0.0005572503    
0.0250981170    0.0215606190    0.0005660145    
0.0253207780    0.0216209390    0.0005498824    
0.0255434390    0.0212278060    0.0005506754    
0.0257661000    0.0223861830    0.0005673300    
0.0259887610    0.0203929410    0.0005357296    
0.0262114220    0.0197858220    0.0005305063    
0.0264340830    0.0215346360    0.0005459247    
0.0266567440    0.0200254320    0.0005231944    
0.0268794050    0.0211909740    0.0005360082    
0.0271020660    0.0202800860    0.0005222388    
0.0273247270    0.0207680210    0.0005253099    
0.0275473880    0.0191370230    0.0005032575    
0.0277700490    0.0209516880    0.0005234651    
0.0279927100    0.0206390770    0.0005150122    
0.0282153710    0.0212165670    0.0005247062    
0.0284380320    0.0207275960    0.0005156182    
0.0286606930    0.0215846490    0.0005216667    
0.0288833540    0.0207048900    0.0005118955    
0.0291060150    0.0204508720    0.0005082629    
0.0293286760    0.0211131200    0.0005092306    
0.0295513370    0.0207759690    0.0004996476    
0.0297739980    0.0205850060    0.0005028217    
0.0299966590    0.0208608750    0.0004975344    
0.0302193200    0.0211557350    0.0005083399    
0.0304419810    0.0202161190    0.0004978373    
0.0306646420    0.0208160850    0.0004909126    
0.0308873030    0.0211072270    0.0004921985    
0.0311099640    0.0195556190    0.0004749925    
0.0313326250    0.0193616870    0.0004673955    
0.0315552860    0.0199941370    0.0004811234    
0.0317779470    0.0201797490    0.0004837725    
0.0320006080    0.0196276320    0.0004662685    
0.0322232690    0.0197923040    0.0004701804    
0.0324459300    0.0198059780    0.0004668314    
0.0326685910    0.0205303600    0.0004745081    
0.0328912520    0.0197944140    0.0004674687    
0.0331139130    0.0206055770    0.0004707464    
0.0333365740    0.0195056240    0.0004594967    
0.0335592350    0.0197162720    0.0004575292    
0.0337818960    0.0203739120    0.0004647268    
0.0340045570    0.0205839800    0.0004663746    
0.0342272170    0.0209356070    0.0004684859    
0.0344498780    0.0202247360    0.0004622872    
0.0346725390    0.0201034730    0.0004523635    
0.0348952000    0.0202434930    0.0004518682    
0.0351178610    0.0205106580    0.0004569220    
0.0353405220    0.0198098010    0.0004470019    
0.0355631830    0.0197609730    0.0004447693    
0.0357858440    0.0203416030    0.0004512563    
0.0360085050    0.0191151680    0.0004387630    
0.0362311660    0.0205710600    0.0004497548    
0.0364538270    0.0197099960    0.0004367079    
0.0366764880    0.0201161900    0.0004408647    
0.0368991490    0.0199234500    0.0004365358    
0.0371218100    0.0200758980    0.0004369491    
0.0373444710    0.0202822890    0.0004439722    
0.0375671320    0.0201554250    0.0004419369    
0.0377897930    0.0206701390    0.0004359586    
0.0380124540    0.0204275620    0.0004361122    
0.0382351150    0.0195616850    0.0004267694    
0.0384577760    0.0203001140    0.0004305551    
0.0386804370    0.0203237080    0.0004340929    
0.0389030980    0.0203914610    0.0004315230    
0.0391257590    0.0202957070    0.0004275861    
0.0393484200    0.0207051390    0.0004304240    
0.0395710810    0.0206712440    0.0004306509    
0.0397937420    0.0193523890    0.0004166866    
0.0400164030    0.0209664190    0.0004354793    
0.0402390640    0.0195840250    0.0004152738    
0.0404617250    0.0199888970    0.0004170694    
0.0406843860    0.0206201550    0.0004195111    
0.0409070470    0.0191088780    0.0004080523    
0.0411297080    0.0199458990    0.0004128604    
0.0413523690    0.0188376830    0.0004022612    
0.0415750300    0.0194473770    0.0004121910    
0.0417976910    0.0201373880    0.0004085916    
0.0420203520    0.0198546560    0.0004072375    
0.0422430130    0.0197696220    0.0004079030    
0.0424656740    0.0197420670    0.0004023133    
0.0426883350    0.0197066770    0.0004039475    
0.0429109960    0.0197050340    0.0004051927    
0.0431336570    0.0188621340    0.0003908464    
0.0433563180    0.0198069030    0.0004039702    
0.0435789790    0.0196045160    0.0003955869    
0.0438016400    0.0200766190    0.0004024995    
0.0440243010    0.0196317550    0.0003939769    
0.0442469620    0.0194436490    0.0003944343    
0.0444696230    0.0202180350    0.0004007699    
0.0446922840    0.0194189820    0.0003916041    
0.0449149450    0.0202101040    0.0003941607    
0.0451376060    0.0190264010    0.0003871668    
0.0453602670    0.0198561160    0.0003913723    
0.0455829280    0.0199641480    0.0003919817    
0.0458055890    0.0203533890    0.0003980925    
0.0460282500    0.0194475000    0.0003844401    
0.0462509110    0.0187635220    0.0003752704    
0.0464735720    0.0199794230    0.0003874572    
0.0466962330    0.0200174200    0.0003895885    
0.0469188940    0.0196854440    0.0003852492    
0.0471415550    0.0188751010    0.0003791741    
0.0473642160    0.0190981550    0.0003760675    
0.0475868770    0.0194660940    0.0003777866    
0.0478095380    0.0203862760    0.0003849209    
0.0480321990    0.0196727380    0.0003789531    
0.0482548600    0.0189300240    0.0003701113    
0.0484775210    0.0198613510    0.0003828705    
0.0487001820    0.0197499270    0.0003762062    
0.0489228430    0.0200150460    0.0003785193    
0.0491455040    0.0203745200    0.0003792619    
0.0493681650    0.0192324220    0.0003716453    
0.0495908260    0.0195695120    0.0003685806    
0.0498134870    0.0198023700    0.0003742965    
0.0500361480    0.0203170160    0.0003781260    
0.0502588090    0.0187977670    0.0003582640    
0.0504814700    0.0192854550    0.0003676255    
0.0507041310    0.0194385490    0.0003646937    
0.0509267920    0.0193996480    0.0003658358    
0.0511494530    0.0199246230    0.0003682805    
0.0513721140    0.0191132680    0.0003638808    
0.0515947750    0.0194326990    0.0003620441    
0.0518174360    0.0198123890    0.0003633619    
0.0520400970    0.0199592020    0.0003621769    
0.0522627580    0.0200325230    0.0003659252    
0.0524854190    0.0197617900    0.0003663991    
0.0527080800    0.0186961000    0.0003591422    
0.0529307410    0.0196242260    0.0003696767    
0.0531534020    0.0190737140    0.0003631277    
0.0533760630    0.0191515770    0.0003650072    
0.0535987240    0.0198828840    0.0003701745    
0.0538213850    0.0188864220    0.0003649593    
0.0540440460    0.0198607420    0.0003724835    
0.0542667070    0.0190943100    0.0003677427    
0.0544893680    0.0196180530    0.0003729506    
0.0547120290    0.0195599750    0.0003698470    
0.0549346900    0.0193005390    0.0003675793    
0.0551573510    0.0197432890    0.0003761480    
0.0553800120    0.0203319280    0.0003784691    
0.0556026730    0.0184312120    0.0003678159    
0.0558253340    0.0197487630    0.0003839237    
0.0560479950    0.0199055190    0.0003854446    
0.0562706560    0.0198281470    0.0003884140    
0.0564933170    0.0195856620    0.0003893839    
0.0567159780    0.0205017300    0.0003936095    
0.0569386390    0.0194270670    0.0003891645    
0.0571613000    0.0197190270    0.0003836357    
0.0573839610    0.0194149530    0.0003775057    
0.0576066220    0.0196702140    0.0003810311    
0.0578292830    0.0194815970    0.0003779452    
0.0580519440    0.0190861750    0.0003755404    
0.0582746050    0.0194895010    0.0003778142    
0.0584972660    0.0191516120    0.0003730912    
0.0587199270    0.0200872290    0.0003788021    
0.0589425880    0.0196976130    0.0003729164    
0.0591652490    0.0197872490    0.0003759634    
0.0593879100    0.0195788870    0.0003712013    
0.0596105710    0.0201064540    0.0003757723    
0.0598332320    0.0190158210    0.0003685624    
0.0600558930    0.0201916930    0.0003773654    
0.0602785540    0.0196915740    0.0003722687    
0.0605012150    0.0194755290    0.0003694409    
0.0607238760    0.0196761530    0.0003686328    
0.0609465370    0.0194610160    0.0003694982    
0.0611691980    0.0193749600    0.0003692646    
0.0613918590    0.0196289440    0.0003676193    
0.0616145200    0.0197636300    0.0003715782    
0.0618371810    0.0204321530    0.0003740998    
0.0620598420    0.0196506650    0.0003672540    
0.0622825030    0.0188412470    0.0003651103    
0.0625051640    0.0189003550    0.0003605468    
0.0627278250    0.0190760300    0.0003614726    
0.0629504860    0.0192523100    0.0003601868    
0.0631731470    0.0202565310    0.0003740322    
0.0633958080    0.0192328590    0.0003665563    
0.0636184690    0.0202678790    0.0003815310    
0.0638411300    0.0193033770    0.0003709445    
0.0640637910    0.0199083980    0.0003793624    
0.0642864520    0.0201678170    0.0003809999    
0.0645091130    0.0194168530    0.0003771152    
0.0647317740    0.0196872470    0.0003801505    
0.0649544350    0.0188016510    0.0003710932    
0.0651770960    0.0189158500    0.0003701881    
0.0653997570    0.0196922780    0.0003768900    
0.0656224180    0.0188796700    0.0003698343    
0.0658450790    0.0199173390    0.0003744019    
0.0660677400    0.0193703390    0.0003707964    
0.0662904010    0.0186726380    0.0003684034    
0.0665130620    0.0195485870    0.0003753103    
0.0667357230    0.0192646540    0.0003791990    
0.0669583840    0.0193806270    0.0003790662    
0.0671810450    0.0192332000    0.0003755367    
0.0674037060    0.0194960750    0.0003844998    
0.0676263670    0.0202428400    0.0003889260    
0.0678490280    0.0198040850    0.0003823353    
0.0680716890    0.0199219810    0.0003843250    
0.0682943500    0.0195605010    0.0003766513    
0.0685170110    0.0199881390    0.0003768665    
0.0687396720    0.0197689830    0.0003737990    
0.0689623330    0.0199669540    0.0003744755    
0.0691849940    0.0190198070    0.0003680181    
0.0694076550    0.0191915680    0.0003694788    
0.0696303160    0.0201420760    0.0003755211    
0.0698529770    0.0190607750    0.0003645367    
0.0700756380    0.0189550140    0.0003588575    
0.0702982990    0.0197172460    0.0003699875    
0.0705209600    0.0193514550    0.0003638932    
0.0707436210    0.0193029460    0.0003617678    
0.0709662820    0.0196409500    0.0003692717    
0.0711889430    0.0198455350    0.0003666308    
0.0714116040    0.0194981880    0.0003641501    
0.0716342650    0.0189624080    0.0003576540    
0.0718569260    0.0195058930    0.0003612822    
0.0720795870    0.0194279180    0.0003620179    
0.0723022480    0.0199743530    0.0003676330    
0.0725249090    0.0188580860    0.0003529349    
0.0727475700    0.0198534700    0.0003652226    
0.0729702310    0.0187842960    0.0003524190    
0.0731928920    0.0189614040    0.0003554916    
0.0734155530    0.0196160170    0.0003608545    
0.0736382140    0.0196599490    0.0003589399    
0.0738608750    0.0203794680    0.0003678101    
0.0740835360    0.0198952960    0.0003625124    
0.0743061970    0.0196856590    0.0003555199    
0.0745288580    0.0197583530    0.0003598380    
0.0747515190    0.0189877500    0.0003534479    
0.0749741800    0.0191157490    0.0003513545    
0.0751968410    0.0201190100    0.0003632869    
0.0754195020    0.0194236480    0.0003548623    
0.0756421630    0.0193880040    0.0003516384    
0.0758648240    0.0191416900    0.0003502375    
0.0760874850    0.0197187140    0.0003553066    
0.0763101460    0.0190099530    0.0003485279    
0.0765328070    0.0192901140    0.0003546792    
0.0767554680    0.0192736700    0.0003521223    
0.0769781290    0.0201529720    0.0003579959    
0.0772007900    0.0198435220    0.0003523876    
0.0774234510    0.0198357210    0.0003543223    
0.0776461120    0.0195896420    0.0003517836    
0.0778687730    0.0196110380    0.0003508129    
0.0780914340    0.0196695010    0.0003538459    
0.0783140950    0.0198949270    0.0003502216    
0.0785367560    0.0199687370    0.0003565278    
0.0787594170    0.0201126740    0.0003546045    
0.0789820780    0.0195976850    0.0003482417    
0.0792047390    0.0194146110    0.0003477445    
0.0794274000    0.0190329870    0.0003457687    
0.0796500610    0.0193408140    0.0003451516    
0.0798727220    0.0193481620    0.0003448985    
0.0800953830    0.0199814190    0.0003496912    
0.0803180440    0.0195223300    0.0003480585    
0.0805407050    0.0198143150    0.0003503257    
0.0807633660    0.0198950130    0.0003507125    
0.0809860270    0.0198219920    0.0003487756    
0.0812086880    0.0193481940    0.0003416042    
0.0814313490    0.0192694520    0.0003424632    
0.0816540100    0.0196240960    0.0003448134    
0.0818766710    0.0197259870    0.0003464968    
0.0820993320    0.0195328700    0.0003441682    
0.0823219930    0.0196943270    0.0003470130    
0.0825446540    0.0194152140    0.0003420420    
0.0827673150    0.0199043040    0.0003439967    
0.0829899760    0.0195254530    0.0003401007    
0.0832126370    0.0193241930    0.0003398588    
0.0834352980    0.0202316050    0.0003469692    
0.0836579590    0.0199579920    0.0003438479    
0.0838806200    0.0194989020    0.0003409337    
0.0841032810    0.0197050040    0.0003406032    
0.0843259420    0.0190572210    0.0003339264    
0.0845486030    0.0194551290    0.0003373947    
0.0847712640    0.0198834320    0.0003390097    
0.0849939250    0.0191871150    0.0003336007    
0.0852165860    0.0192432310    0.0003345258    
0.0854392470    0.0193997180    0.0003327024    
0.0856619080    0.0201671090    0.0003417173    
0.0858845690    0.0197486120    0.0003351075    
0.0861072300    0.0200337460    0.0003398480    
0.0863298910    0.0195450280    0.0003374349    
0.0865525520    0.0193062770    0.0003324717    
0.0867752130    0.0193508750    0.0003301697    
0.0869978740    0.0195232430    0.0003324821    
0.0872205350    0.0194792430    0.0003316847    
0.0874431960    0.0192759530    0.0003299497    
0.0876658570    0.0195380850    0.0003334610    
0.0878885180    0.0196850920    0.0003352871    
0.0881111790    0.0194751120    0.0003330661    
0.0883338400    0.0203192990    0.0003352271    
0.0885565010    0.0187946680    0.0003267773    
0.0887791620    0.0199100450    0.0003319724    
0.0890018230    0.0196209850    0.0003327503    
0.0892244840    0.0195122240    0.0003323909    
0.0894471450    0.0188536530    0.0003253532    
0.0896698060    0.0196478300    0.0003308822    
0.0898924670    0.0198753930    0.0003343355    
0.0901151280    0.0192832530    0.0003257604    
0.0903377890    0.0196801170    0.0003318498    
0.0905604500    0.0195775200    0.0003294647    
0.0907831110    0.0195740190    0.0003286156    
0.0910057720    0.0189968770    0.0003252203    
0.0912284330    0.0193817880    0.0003237952    
0.0914510940    0.0195620500    0.0003289250    
0.0916737550    0.0196246740    0.0003286335    
0.0918964160    0.0191667410    0.0003261273    
0.0921190770    0.0195246610    0.0003261821    
0.0923417380    0.0196333970    0.0003272233    
0.0925643990    0.0196676720    0.0003267073    
0.0927870600    0.0198566710    0.0003296195    
0.0930097210    0.0188367630    0.0003183085    
0.0932323820    0.0192511690    0.0003241562    
