# Diamond Light Source Ltd.
# Data extracted from: /dls/b21/data/2018/cm19678-3/processed/b21-386631_00027.dat
q(1/A)          Column          Error           
0.0035000000    2.0982219000    0.0246406680    
0.0037226610    1.8968205000    0.0229349700    
0.0039453220    1.6149942000    0.0192520590    
0.0041679830    1.2944196000    0.0141544840    
0.0043906440    0.9708551200    0.0117251670    
0.0046133050    0.7833929800    0.0101110320    
0.0048359660    0.5926909600    0.0083189305    
0.0050586270    0.4539285900    0.0071558059    
0.0052812880    0.4368437500    0.0066371542    
0.0055039490    0.3841964300    0.0059184239    
0.0057266100    0.3209153100    0.0052328558    
0.0059492710    0.2721082200    0.0048185282    
0.0061719320    0.2218505700    0.0041925816    
0.0063945930    0.1972305900    0.0040010237    
0.0066172539    0.1768364100    0.0035574214    
0.0068399149    0.1695077600    0.0034280736    
0.0070625759    0.1525336600    0.0032185540    
0.0072852369    0.1246098000    0.0028655398    
0.0075078979    0.1136006200    0.0027225843    
0.0077305589    0.1034117500    0.0025481390    
0.0079532199    0.0985505980    0.0024530562    
0.0081758809    0.0916845160    0.0023880711    
0.0083985419    0.0832752350    0.0021227388    
0.0086212029    0.0802991990    0.0020844634    
0.0088438639    0.0697499300    0.0019271172    
0.0090665249    0.0670519690    0.0018249234    
0.0092891859    0.0641203480    0.0018626733    
0.0095118469    0.0592492370    0.0017218960    
0.0097345079    0.0590973480    0.0016701898    
0.0099571689    0.0549194680    0.0015768701    
0.0101798300    0.0541950660    0.0015664361    
0.0104024910    0.0478029350    0.0014661822    
0.0106251520    0.0486714430    0.0014844651    
0.0108478130    0.0453864760    0.0013960114    
0.0110704740    0.0442534990    0.0013124035    
0.0112931350    0.0426737610    0.0012925510    
0.0115157960    0.0412101880    0.0012627861    
0.0117384570    0.0397811340    0.0012300176    
0.0119611180    0.0360317430    0.0011739776    
0.0121837790    0.0368273560    0.0011669194    
0.0124064400    0.0371827790    0.0011236597    
0.0126291010    0.0345691210    0.0010698875    
0.0128517620    0.0346754200    0.0010742067    
0.0130744230    0.0328843300    0.0010383375    
0.0132970840    0.0320440570    0.0010199736    
0.0135197450    0.0322368610    0.0010083871    
0.0137424060    0.0315908930    0.0009843358    
0.0139650670    0.0309908610    0.0009532266    
0.0141877280    0.0315402880    0.0009637645    
0.0144103890    0.0299500290    0.0009229604    
0.0146330500    0.0311435450    0.0009351952    
0.0148557110    0.0291842370    0.0009015041    
0.0150783720    0.0289229590    0.0008900425    
0.0153010330    0.0293643710    0.0008841642    
0.0155236940    0.0282532930    0.0008621184    
0.0157463550    0.0265968880    0.0008219729    
0.0159690160    0.0261937200    0.0008126236    
0.0161916770    0.0265973790    0.0008142479    
0.0164143380    0.0267488450    0.0008227494    
0.0166369990    0.0256477540    0.0007807979    
0.0168596600    0.0263420940    0.0007843245    
0.0170823210    0.0249699170    0.0007570118    
0.0173049820    0.0251714740    0.0007613749    
0.0175276430    0.0233768720    0.0007414694    
0.0177503040    0.0225352040    0.0007094404    
0.0179729650    0.0246957510    0.0007353053    
0.0181956260    0.0244529920    0.0007176553    
0.0184182870    0.0223035520    0.0006821583    
0.0186409480    0.0246996680    0.0007224102    
0.0188636090    0.0253288400    0.0007269524    
0.0190862700    0.0235649960    0.0007000877    
0.0193089310    0.0233464550    0.0006957477    
0.0195315920    0.0229463700    0.0006663028    
0.0197542530    0.0235954000    0.0006766445    
0.0199769140    0.0235566010    0.0006760881    
0.0201995750    0.0229186300    0.0006564275    
0.0204222360    0.0220897650    0.0006499802    
0.0206448970    0.0224367930    0.0006504101    
0.0208675580    0.0226978430    0.0006407118    
0.0210902190    0.0207780870    0.0006189329    
0.0213128800    0.0224425600    0.0006345177    
0.0215355410    0.0222613310    0.0006244222    
0.0217582020    0.0232771990    0.0006385108    
0.0219808630    0.0230414250    0.0006344347    
0.0222035240    0.0217165910    0.0006103442    
0.0224261850    0.0214665460    0.0006014195    
0.0226488460    0.0219586430    0.0006037061    
0.0228715070    0.0219652830    0.0006022974    
0.0230941680    0.0209578610    0.0005883234    
0.0233168290    0.0222574270    0.0006077998    
0.0235394900    0.0217850920    0.0005946797    
0.0237621510    0.0210890550    0.0005693510    
0.0239848120    0.0220468730    0.0005828102    
0.0242074730    0.0211040600    0.0005656482    
0.0244301340    0.0210914690    0.0005661247    
0.0246527950    0.0208028330    0.0005674438    
0.0248754560    0.0207952750    0.0005545899    
0.0250981170    0.0203532890    0.0005498881    
0.0253207780    0.0206941220    0.0005379181    
0.0255434390    0.0223236650    0.0005646587    
0.0257661000    0.0211314350    0.0005511506    
0.0259887610    0.0220073850    0.0005564807    
0.0262114220    0.0216594330    0.0005550053    
0.0264340830    0.0211017270    0.0005403599    
0.0266567440    0.0208280900    0.0005335277    
0.0268794050    0.0217564080    0.0005430623    
0.0271020660    0.0206797360    0.0005273110    
0.0273247270    0.0207774910    0.0005253814    
0.0275473880    0.0206419580    0.0005226231    
0.0277700490    0.0200325150    0.0005118069    
0.0279927100    0.0197872600    0.0005042261    
0.0282153710    0.0201877150    0.0005117789    
0.0284380320    0.0200697580    0.0005073235    
0.0286606930    0.0204209740    0.0005073632    
0.0288833540    0.0212704930    0.0005187925    
0.0291060150    0.0205986690    0.0005100493    
0.0293286760    0.0214408000    0.0005131199    
0.0295513370    0.0201834680    0.0004924262    
0.0297739980    0.0197830270    0.0004928843    
0.0299966590    0.0200146940    0.0004872944    
0.0302193200    0.0209564510    0.0005058935    
0.0304419810    0.0209968780    0.0005073131    
0.0306646420    0.0199788450    0.0004808947    
0.0308873030    0.0198754770    0.0004775772    
0.0311099640    0.0201403180    0.0004819969    
0.0313326250    0.0206328790    0.0004824507    
0.0315552860    0.0202682700    0.0004843660    
0.0317779470    0.0201760420    0.0004836836    
0.0320006080    0.0201445280    0.0004723248    
0.0322232690    0.0199673480    0.0004722116    
0.0324459300    0.0210454860    0.0004811733    
0.0326685910    0.0192217470    0.0004590943    
0.0328912520    0.0198128530    0.0004676434    
0.0331139130    0.0200211560    0.0004639801    
0.0333365740    0.0198483590    0.0004634735    
0.0335592350    0.0200523400    0.0004613697    
0.0337818960    0.0199250360    0.0004595367    
0.0340045570    0.0206541530    0.0004671260    
0.0342272170    0.0202504570    0.0004607138    
0.0344498780    0.0210450750    0.0004715262    
0.0346725390    0.0199878320    0.0004510191    
0.0348952000    0.0201691820    0.0004509966    
0.0351178610    0.0209343290    0.0004615746    
0.0353405220    0.0198162460    0.0004470336    
0.0355631830    0.0205280200    0.0004532776    
0.0357858440    0.0196272420    0.0004432211    
0.0360085050    0.0198366510    0.0004469256    
0.0362311660    0.0197217810    0.0004403324    
0.0364538270    0.0196483300    0.0004359841    
0.0366764880    0.0197937090    0.0004372766    
0.0368991490    0.0193173190    0.0004298047    
0.0371218100    0.0198725340    0.0004346905    
0.0373444710    0.0203854460    0.0004450589    
0.0375671320    0.0201129690    0.0004414307    
0.0377897930    0.0201791020    0.0004307096    
0.0380124540    0.0200700700    0.0004322395    
0.0382351150    0.0206286200    0.0004382130    
0.0384577760    0.0197577040    0.0004247250    
0.0386804370    0.0201531130    0.0004322275    
0.0389030980    0.0206707500    0.0004344282    
0.0391257590    0.0196885340    0.0004211030    
0.0393484200    0.0200661610    0.0004236914    
0.0395710810    0.0200126190    0.0004236958    
0.0397937420    0.0195372100    0.0004186331    
0.0400164030    0.0197688410    0.0004228206    
0.0402390640    0.0194483650    0.0004137950    
0.0404617250    0.0201766380    0.0004189850    
0.0406843860    0.0197715740    0.0004107506    
0.0409070470    0.0191402150    0.0004083493    
0.0411297080    0.0199593240    0.0004129614    
0.0413523690    0.0198304690    0.0004126872    
0.0415750300    0.0200290410    0.0004182714    
0.0417976910    0.0197689790    0.0004047996    
0.0420203520    0.0191996080    0.0004004266    
0.0422430130    0.0198837950    0.0004090415    
0.0424656740    0.0197876220    0.0004027402    
0.0426883350    0.0200590360    0.0004075054    
0.0429109960    0.0203761770    0.0004119974    
0.0431336570    0.0201056570    0.0004034873    
0.0433563180    0.0196220370    0.0004020436    
0.0435789790    0.0200318790    0.0003998387    
0.0438016400    0.0196130610    0.0003977891    
0.0440243010    0.0198020590    0.0003956457    
0.0442469620    0.0197600790    0.0003975943    
0.0444696230    0.0196345000    0.0003949077    
0.0446922840    0.0195654330    0.0003930419    
0.0449149450    0.0198912680    0.0003910032    
0.0451376060    0.0195585400    0.0003925076    
0.0453602670    0.0201918270    0.0003946306    
0.0455829280    0.0193987550    0.0003863558    
0.0458055890    0.0197891390    0.0003924995    
0.0460282500    0.0198238410    0.0003881064    
0.0462509110    0.0200282560    0.0003876759    
0.0464735720    0.0203363540    0.0003908670    
0.0466962330    0.0192404850    0.0003819181    
0.0469188940    0.0199230460    0.0003875316    
0.0471415550    0.0192904950    0.0003832885    
0.0473642160    0.0197239780    0.0003821443    
0.0475868770    0.0199463320    0.0003823832    
0.0478095380    0.0193361550    0.0003748415    
0.0480321990    0.0198369870    0.0003804968    
0.0482548600    0.0194185210    0.0003748218    
0.0484775210    0.0196658410    0.0003809464    
0.0487001820    0.0192662550    0.0003715369    
0.0489228430    0.0195533120    0.0003740933    
0.0491455040    0.0197213970    0.0003730993    
0.0493681650    0.0198679370    0.0003777010    
0.0495908260    0.0200031830    0.0003726080    
0.0498134870    0.0201028930    0.0003770913    
0.0500361480    0.0188145900    0.0003638430    
0.0502588090    0.0195998820    0.0003657942    
0.0504814700    0.0190997430    0.0003658176    
0.0507041310    0.0195854780    0.0003660357    
0.0509267920    0.0193133130    0.0003649873    
0.0511494530    0.0196078900    0.0003653080    
0.0513721140    0.0198162430    0.0003704780    
0.0515947750    0.0194358740    0.0003620404    
0.0518174360    0.0193023710    0.0003586216    
0.0520400970    0.0199423940    0.0003619911    
0.0522627580    0.0200422090    0.0003659800    
0.0524854190    0.0197309920    0.0003660799    
0.0527080800    0.0199411420    0.0003708737    
0.0529307410    0.0198016490    0.0003713099    
0.0531534020    0.0196093460    0.0003681573    
0.0533760630    0.0189880860    0.0003634125    
0.0535987240    0.0195691560    0.0003672087    
0.0538213850    0.0202156170    0.0003775489    
0.0540440460    0.0196405730    0.0003703791    
0.0542667070    0.0204008170    0.0003800808    
0.0544893680    0.0191182400    0.0003681353    
0.0547120290    0.0200947590    0.0003748344    
0.0549346900    0.0194859740    0.0003693070    
0.0551573510    0.0199331180    0.0003779172    
0.0553800120    0.0193279840    0.0003689729    
0.0556026730    0.0195726850    0.0003789997    
0.0558253340    0.0193944090    0.0003804288    
0.0560479950    0.0197078430    0.0003834907    
0.0562706560    0.0195582510    0.0003857260    
0.0564933170    0.0193576060    0.0003870747    
0.0567159780    0.0196593080    0.0003854025    
0.0569386390    0.0192909950    0.0003877636    
0.0571613000    0.0193124400    0.0003796252    
0.0573839610    0.0199397880    0.0003825390    
0.0576066220    0.0195854250    0.0003801741    
0.0578292830    0.0194267030    0.0003773776    
0.0580519440    0.0193707930    0.0003782954    
0.0582746050    0.0199106430    0.0003818393    
0.0584972660    0.0192498290    0.0003740123    
0.0587199270    0.0189908010    0.0003682851    
0.0589425880    0.0197434070    0.0003733154    
0.0591652490    0.0201264350    0.0003791372    
0.0593879100    0.0190053410    0.0003656902    
0.0596105710    0.0197446600    0.0003723420    
0.0598332320    0.0194765650    0.0003729665    
0.0600558930    0.0195745180    0.0003715193    
0.0602785540    0.0196879570    0.0003722004    
0.0605012150    0.0198292990    0.0003727470    
0.0607238760    0.0192029940    0.0003641401    
0.0609465370    0.0193522280    0.0003684301    
0.0611691980    0.0195262030    0.0003706690    
0.0613918590    0.0194738980    0.0003661309    
0.0616145200    0.0207308870    0.0003805274    
0.0618371810    0.0193052830    0.0003636040    
0.0620598420    0.0196882300    0.0003675711    
0.0622825030    0.0194532150    0.0003709583    
0.0625051640    0.0195157760    0.0003663360    
0.0627278250    0.0198600810    0.0003687924    
0.0629504860    0.0196530180    0.0003638824    
0.0631731470    0.0194449070    0.0003664288    
0.0633958080    0.0193620380    0.0003677515    
0.0636184690    0.0195532590    0.0003747100    
0.0638411300    0.0197274490    0.0003749625    
0.0640637910    0.0190229770    0.0003707964    
0.0642864520    0.0199842040    0.0003792267    
0.0645091130    0.0196256530    0.0003791026    
0.0647317740    0.0197863790    0.0003810714    
0.0649544350    0.0194719150    0.0003776152    
0.0651770960    0.0197308730    0.0003780444    
0.0653997570    0.0191910350    0.0003720283    
0.0656224180    0.0197454060    0.0003781840    
0.0658450790    0.0191677960    0.0003672558    
0.0660677400    0.0197783870    0.0003746471    
0.0662904010    0.0200862940    0.0003820593    
0.0665130620    0.0191703780    0.0003716278    
0.0667357230    0.0195596220    0.0003820559    
0.0669583840    0.0197402940    0.0003825322    
0.0671810450    0.0190390560    0.0003736022    
0.0674037060    0.0196062180    0.0003855490    
0.0676263670    0.0192753530    0.0003794832    
0.0678490280    0.0194462090    0.0003788303    
0.0680716890    0.0189027610    0.0003743304    
0.0682943500    0.0196511750    0.0003774886    
0.0685170110    0.0194729560    0.0003719438    
0.0687396720    0.0196664190    0.0003727938    
0.0689623330    0.0195911250    0.0003709004    
0.0691849940    0.0192726170    0.0003704218    
0.0694076550    0.0194369610    0.0003717993    
0.0696303160    0.0191654060    0.0003662700    
0.0698529770    0.0199564650    0.0003729692    
0.0700756380    0.0203779910    0.0003720495    
0.0702982990    0.0197552730    0.0003703101    
0.0705209600    0.0184995480    0.0003557605    
0.0707436210    0.0198417080    0.0003667480    
0.0709662820    0.0188737840    0.0003619548    
0.0711889430    0.0203565590    0.0003712871    
0.0714116040    0.0193110150    0.0003623647    
0.0716342650    0.0199638630    0.0003669431    
0.0718569260    0.0195825940    0.0003619586    
0.0720795870    0.0192085230    0.0003599349    
0.0723022480    0.0194294730    0.0003625507    
0.0725249090    0.0197857960    0.0003614786    
0.0727475700    0.0191310650    0.0003584835    
0.0729702310    0.0190651030    0.0003550108    
0.0731928920    0.0193310820    0.0003589073    
0.0734155530    0.0188624300    0.0003538226    
0.0736382140    0.0197284110    0.0003595313    
0.0738608750    0.0197584800    0.0003621297    
0.0740835360    0.0197529550    0.0003611801    
0.0743061970    0.0193867480    0.0003527780    
0.0745288580    0.0192043430    0.0003547248    
0.0747515190    0.0193592120    0.0003568556    
0.0749741800    0.0196998100    0.0003566489    
0.0751968410    0.0195512720    0.0003580915    
0.0754195020    0.0195821300    0.0003562744    
0.0756421630    0.0196586310    0.0003540516    
0.0758648240    0.0195930830    0.0003543105    
0.0760874850    0.0196702850    0.0003548374    
0.0763101460    0.0193195090    0.0003513219    
0.0765328070    0.0194039330    0.0003556914    
0.0767554680    0.0190578750    0.0003501133    
0.0769781290    0.0186296500    0.0003441683    
0.0772007900    0.0195145300    0.0003494221    
0.0774234510    0.0191486490    0.0003480997    
0.0776461120    0.0191376050    0.0003476692    
0.0778687730    0.0195258690    0.0003500182    
0.0780914340    0.0194176780    0.0003515412    
0.0783140950    0.0197371730    0.0003487982    
0.0785367560    0.0201941870    0.0003585018    
0.0787594170    0.0194526400    0.0003487055    
0.0789820780    0.0190805670    0.0003435849    
0.0792047390    0.0194608640    0.0003481265    
0.0794274000    0.0198270970    0.0003528758    
0.0796500610    0.0198484060    0.0003496194    
0.0798727220    0.0198486620    0.0003492989    
0.0800953830    0.0194943670    0.0003453713    
0.0803180440    0.0194070670    0.0003469976    
0.0805407050    0.0193709880    0.0003463526    
0.0807633660    0.0196688330    0.0003486812    
0.0809860270    0.0194992940    0.0003458931    
0.0812086880    0.0193084590    0.0003412219    
0.0814313490    0.0195336640    0.0003447714    
0.0816540100    0.0193721310    0.0003425612    
0.0818766710    0.0191503480    0.0003413723    
0.0820993320    0.0195050290    0.0003438912    
0.0823219930    0.0194156140    0.0003445172    
0.0825446540    0.0198153040    0.0003455165    
0.0827673150    0.0198055440    0.0003431107    
0.0829899760    0.0196521700    0.0003411712    
0.0832126370    0.0192310020    0.0003390072    
0.0834352980    0.0187702910    0.0003341730    
0.0836579590    0.0197529470    0.0003420456    
0.0838806200    0.0198052430    0.0003435698    
0.0841032810    0.0191186430    0.0003354664    
0.0843259420    0.0191297720    0.0003345306    
0.0845486030    0.0196446090    0.0003390026    
0.0847712640    0.0195272610    0.0003359288    
0.0849939250    0.0197693040    0.0003385929    
0.0852165860    0.0196176280    0.0003377334    
0.0854392470    0.0194532020    0.0003331301    
0.0856619080    0.0188666490    0.0003304856    
0.0858845690    0.0194493500    0.0003325282    
0.0861072300    0.0191769880    0.0003324712    
0.0863298910    0.0193608770    0.0003358107    
0.0865525520    0.0196690930    0.0003355504    
0.0867752130    0.0196965300    0.0003330749    
0.0869978740    0.0202103170    0.0003382510    
0.0872205350    0.0192102680    0.0003293565    
0.0874431960    0.0196450980    0.0003330635    
0.0876658570    0.0192955070    0.0003313541    
0.0878885180    0.0194245370    0.0003330301    
0.0881111790    0.0192494260    0.0003311002    
0.0883338400    0.0191322430    0.0003252579    
0.0885565010    0.0193819910    0.0003318134    
0.0887791620    0.0200170720    0.0003328329    
0.0890018230    0.0192506480    0.0003295648    
0.0892244840    0.0195312840    0.0003325227    
0.0894471450    0.0194059280    0.0003300538    
0.0896698060    0.0197612170    0.0003318051    
0.0898924670    0.0196805590    0.0003326622    
0.0901151280    0.0190541210    0.0003237894    
0.0903377890    0.0191282230    0.0003271335    
0.0905604500    0.0188255580    0.0003230457    
0.0907831110    0.0193553030    0.0003267445    
0.0910057720    0.0200009500    0.0003336737    
0.0912284330    0.0191402590    0.0003217418    
0.0914510940    0.0191492610    0.0003254061    
0.0916737550    0.0200117300    0.0003318280    
0.0918964160    0.0195404930    0.0003292614    
0.0921190770    0.0198970040    0.0003292474    
0.0923417380    0.0197770140    0.0003283878    
0.0925643990    0.0191377310    0.0003222461    
0.0927870600    0.0193114280    0.0003250327    
0.0930097210    0.0196937620    0.0003254389    
0.0932323820    0.0191112030    0.0003229460    
