# Diamond Light Source Ltd.
# Data extracted from: /dls/b21/data/2018/cm19678-3/processed/b21-386631_00040.dat
q(1/A)          Column          Error           
0.0035000000    2.0947555000    0.0246424770    
0.0037226610    1.9016275000    0.0229846940    
0.0039453220    1.6420452000    0.0194301070    
0.0041679830    1.2786102000    0.0140804490    
0.0043906440    0.9808325100    0.0117958750    
0.0046133050    0.7965707800    0.0102049010    
0.0048359660    0.5964493400    0.0083527803    
0.0050586270    0.4622051100    0.0072272501    
0.0052812880    0.4290439700    0.0065835581    
0.0055039490    0.3816919800    0.0059044146    
0.0057266100    0.3234596400    0.0052582899    
0.0059492710    0.2662729600    0.0047708750    
0.0061719320    0.2201865700    0.0041805902    
0.0063945930    0.2003505600    0.0040361770    
0.0066172539    0.1939313700    0.0037287601    
0.0068399149    0.1696048400    0.0034321432    
0.0070625759    0.1473656400    0.0031664090    
0.0072852369    0.1297194500    0.0029263335    
0.0075078979    0.1146551100    0.0027376543    
0.0077305589    0.0964273710    0.0024628006    
0.0079532199    0.0975047810    0.0024422030    
0.0081758809    0.0939683760    0.0024198088    
0.0083985419    0.0785466190    0.0020634469    
0.0086212029    0.0776793120    0.0020520232    
0.0088438639    0.0698756140    0.0019305897    
0.0090665249    0.0634907270    0.0017773991    
0.0092891859    0.0630433230    0.0018486268    
0.0095118469    0.0616620610    0.0017581887    
0.0097345079    0.0557045690    0.0016229987    
0.0099571689    0.0533855650    0.0015560932    
0.0101798300    0.0487591280    0.0014871395    
0.0104024910    0.0494208020    0.0014921294    
0.0106251520    0.0434523360    0.0014038812    
0.0108478130    0.0454682590    0.0013985269    
0.0110704740    0.0417987980    0.0012766340    
0.0112931350    0.0425545520    0.0012919067    
0.0115157960    0.0405866810    0.0012543253    
0.0117384570    0.0392813140    0.0012233668    
0.0119611180    0.0380126290    0.0012069022    
0.0121837790    0.0361899200    0.0011578181    
0.0124064400    0.0368755810    0.0011200160    
0.0126291010    0.0358919430    0.0010911472    
0.0128517620    0.0355713450    0.0010889754    
0.0130744230    0.0325494440    0.0010339672    
0.0132970840    0.0328498640    0.0010336485    
0.0135197450    0.0315049550    0.0009977720    
0.0137424060    0.0307567620    0.0009721283    
0.0139650670    0.0298130610    0.0009357795    
0.0141877280    0.0296204570    0.0009348133    
0.0144103890    0.0303744170    0.0009303135    
0.0146330500    0.0291740770    0.0009059573    
0.0148557110    0.0279814270    0.0008835261    
0.0150783720    0.0279872890    0.0008763160    
0.0153010330    0.0283238030    0.0008691391    
0.0155236940    0.0273554590    0.0008490736    
0.0157463550    0.0262630830    0.0008175340    
0.0159690160    0.0259631040    0.0008097669    
0.0161916770    0.0273445260    0.0008263487    
0.0164143380    0.0253012780    0.0008008980    
0.0166369990    0.0249319610    0.0007705186    
0.0168596600    0.0250092560    0.0007649128    
0.0170823210    0.0250149110    0.0007583759    
0.0173049820    0.0251476180    0.0007616994    
0.0175276430    0.0249504190    0.0007667078    
0.0177503040    0.0252607440    0.0007517945    
0.0179729650    0.0245209230    0.0007333578    
0.0181956260    0.0242860550    0.0007158455    
0.0184182870    0.0246011080    0.0007170781    
0.0186409480    0.0223946430    0.0006884958    
0.0188636090    0.0225527720    0.0006865769    
0.0190862700    0.0229823720    0.0006920016    
0.0193089310    0.0240324350    0.0007065308    
0.0195315920    0.0243444970    0.0006869197    
0.0197542530    0.0216940100    0.0006493932    
0.0199769140    0.0237739990    0.0006798123    
0.0201995750    0.0212836080    0.0006331492    
0.0204222360    0.0235473950    0.0006716870    
0.0206448970    0.0221183420    0.0006463595    
0.0208675580    0.0234816020    0.0006522667    
0.0210902190    0.0214435030    0.0006293317    
0.0213128800    0.0221415320    0.0006308154    
0.0215355410    0.0224769080    0.0006280034    
0.0217582020    0.0221435350    0.0006233289    
0.0219808630    0.0232754470    0.0006382227    
0.0222035240    0.0216354310    0.0006097512    
0.0224261850    0.0221466710    0.0006114227    
0.0226488460    0.0213829920    0.0005962769    
0.0228715070    0.0223357630    0.0006079025    
0.0230941680    0.0213927060    0.0005949308    
0.0233168290    0.0219816100    0.0006045661    
0.0235394900    0.0226537370    0.0006069659    
0.0237621510    0.0209884680    0.0005685031    
0.0239848120    0.0212068400    0.0005721140    
0.0242074730    0.0220533850    0.0005787513    
0.0244301340    0.0204292180    0.0005576677    
0.0246527950    0.0212589850    0.0005741479    
0.0248754560    0.0205364050    0.0005516236    
0.0250981170    0.0212085390    0.0005618279    
0.0253207780    0.0218660360    0.0005534375    
0.0255434390    0.0209759850    0.0005478421    
0.0257661000    0.0206654760    0.0005455310    
0.0259887610    0.0206232870    0.0005391824    
0.0262114220    0.0217127090    0.0005561879    
0.0264340830    0.0217080980    0.0005485622    
0.0266567440    0.0215501880    0.0005431862    
0.0268794050    0.0207907050    0.0005313511    
0.0271020660    0.0210806920    0.0005328779    
0.0273247270    0.0211742670    0.0005308518    
0.0275473880    0.0209045030    0.0005264098    
0.0277700490    0.0200686120    0.0005127291    
0.0279927100    0.0199516360    0.0005067721    
0.0282153710    0.0208089780    0.0005200620    
0.0284380320    0.0209281450    0.0005185256    
0.0286606930    0.0210891840    0.0005160616    
0.0288833540    0.0214482600    0.0005214250    
0.0291060150    0.0201296970    0.0005046638    
0.0293286760    0.0216762680    0.0005163945    
0.0295513370    0.0211225080    0.0005042047    
0.0297739980    0.0203599670    0.0005004700    
0.0299966590    0.0206688020    0.0004956390    
0.0302193200    0.0208596350    0.0005051781    
0.0304419810    0.0204084600    0.0005006045    
0.0306646420    0.0211396650    0.0004951135    
0.0308873030    0.0197388490    0.0004763615    
0.0311099640    0.0206966250    0.0004890483    
0.0313326250    0.0205909490    0.0004823943    
0.0315552860    0.0194698720    0.0004751577    
0.0317779470    0.0209209940    0.0004929756    
0.0320006080    0.0198036160    0.0004687328    
0.0322232690    0.0195670130    0.0004678748    
0.0324459300    0.0203890780    0.0004740364    
0.0326685910    0.0203878190    0.0004732404    
0.0328912520    0.0199591310    0.0004697892    
0.0331139130    0.0195617270    0.0004590387    
0.0333365740    0.0198190720    0.0004635486    
0.0335592350    0.0196099230    0.0004566626    
0.0337818960    0.0199078520    0.0004597521    
0.0340045570    0.0202891840    0.0004633973    
0.0342272170    0.0198984290    0.0004571031    
0.0344498780    0.0196012600    0.0004554739    
0.0346725390    0.0203806890    0.0004558400    
0.0348952000    0.0205490200    0.0004556335    
0.0351178610    0.0195446870    0.0004463933    
0.0353405220    0.0200338040    0.0004498856    
0.0355631830    0.0199232930    0.0004469533    
0.0357858440    0.0196425550    0.0004437933    
0.0360085050    0.0205986960    0.0004558394    
0.0362311660    0.0200626410    0.0004445213    
0.0364538270    0.0195674350    0.0004354775    
0.0366764880    0.0192777530    0.0004319284    
0.0368991490    0.0194575100    0.0004317500    
0.0371218100    0.0201274300    0.0004378633    
0.0373444710    0.0201788260    0.0004431964    
0.0375671320    0.0197803910    0.0004381601    
0.0377897930    0.0202154630    0.0004314857    
0.0380124540    0.0202834230    0.0004349222    
0.0382351150    0.0197238940    0.0004288816    
0.0384577760    0.0197109870    0.0004246046    
0.0386804370    0.0195114940    0.0004256744    
0.0389030980    0.0198665060    0.0004262767    
0.0391257590    0.0194623470    0.0004190541    
0.0393484200    0.0196183580    0.0004193144    
0.0395710810    0.0199138840    0.0004230299    
0.0397937420    0.0193118080    0.0004165861    
0.0400164030    0.0195598520    0.0004209585    
0.0402390640    0.0192629090    0.0004121882    
0.0404617250    0.0200299540    0.0004178351    
0.0406843860    0.0197217140    0.0004106018    
0.0409070470    0.0199514680    0.0004172888    
0.0411297080    0.0197470600    0.0004111295    
0.0413523690    0.0201329200    0.0004161969    
0.0415750300    0.0202051420    0.0004204844    
0.0417976910    0.0204024760    0.0004116047    
0.0420203520    0.0192091060    0.0004008863    
0.0422430130    0.0201978080    0.0004126300    
0.0424656740    0.0198068540    0.0004032987    
0.0426883350    0.0197551470    0.0004047710    
0.0429109960    0.0201959130    0.0004105403    
0.0431336570    0.0201337740    0.0004041330    
0.0433563180    0.0201360380    0.0004076422    
0.0435789790    0.0201799080    0.0004016747    
0.0438016400    0.0202465030    0.0004045257    
0.0440243010    0.0194259390    0.0003922232    
0.0442469620    0.0190743850    0.0003909868    
0.0444696230    0.0190969700    0.0003898153    
0.0446922840    0.0194266710    0.0003919983    
0.0449149450    0.0188953360    0.0003814322    
0.0451376060    0.0200751450    0.0003980156    
0.0453602670    0.0200582270    0.0003936771    
0.0455829280    0.0197035160    0.0003897295    
0.0458055890    0.0198793900    0.0003937478    
0.0460282500    0.0205141890    0.0003951618    
0.0462509110    0.0189442310    0.0003773781    
0.0464735720    0.0200418520    0.0003883759    
0.0466962330    0.0194726150    0.0003845610    
0.0469188940    0.0197626030    0.0003863156    
0.0471415550    0.0198440540    0.0003890991    
0.0473642160    0.0197372680    0.0003826173    
0.0475868770    0.0196297750    0.0003796784    
0.0478095380    0.0197131390    0.0003788187    
0.0480321990    0.0197996170    0.0003804806    
0.0482548600    0.0191201060    0.0003722656    
0.0484775210    0.0197234550    0.0003818476    
0.0487001820    0.0189277280    0.0003685899    
0.0489228430    0.0195742060    0.0003746302    
0.0491455040    0.0194175160    0.0003705471    
0.0493681650    0.0197023270    0.0003764623    
0.0495908260    0.0195385940    0.0003685871    
0.0498134870    0.0197210290    0.0003738290    
0.0500361480    0.0195886170    0.0003715861    
0.0502588090    0.0192316900    0.0003626685    
0.0504814700    0.0195974220    0.0003708867    
0.0507041310    0.0197783940    0.0003681653    
0.0509267920    0.0189058710    0.0003614420    
0.0511494530    0.0196227670    0.0003657757    
0.0513721140    0.0191094970    0.0003641391    
0.0515947750    0.0199303060    0.0003669467    
0.0518174360    0.0202916610    0.0003680280    
0.0520400970    0.0198795890    0.0003617462    
0.0522627580    0.0201117980    0.0003669450    
0.0524854190    0.0195420030    0.0003646505    
0.0527080800    0.0188991010    0.0003613786    
0.0529307410    0.0197187530    0.0003708656    
0.0531534020    0.0197970190    0.0003702480    
0.0533760630    0.0198375430    0.0003717869    
0.0535987240    0.0194180390    0.0003661175    
0.0538213850    0.0203721300    0.0003793489    
0.0540440460    0.0191931610    0.0003664659    
0.0542667070    0.0195792130    0.0003726840    
0.0544893680    0.0197634170    0.0003746325    
0.0547120290    0.0202780630    0.0003768792    
0.0549346900    0.0192406110    0.0003673050    
0.0551573510    0.0198685450    0.0003776444    
0.0553800120    0.0189182570    0.0003653699    
0.0556026730    0.0193947440    0.0003776128    
0.0558253340    0.0199900340    0.0003865742    
0.0560479950    0.0196536470    0.0003833080    
0.0562706560    0.0198602270    0.0003890425    
0.0564933170    0.0196173500    0.0003900139    
0.0567159780    0.0193844010    0.0003830431    
0.0569386390    0.0200519360    0.0003956934    
0.0571613000    0.0192201520    0.0003790581    
0.0573839610    0.0194978290    0.0003786165    
0.0576066220    0.0197685740    0.0003822915    
0.0578292830    0.0197407820    0.0003807586    
0.0580519440    0.0189394280    0.0003743964    
0.0582746050    0.0190368590    0.0003737030    
0.0584972660    0.0192335570    0.0003741909    
0.0587199270    0.0194042330    0.0003726075    
0.0589425880    0.0196163380    0.0003724472    
0.0591652490    0.0190035960    0.0003687413    
0.0593879100    0.0195400730    0.0003711330    
0.0596105710    0.0194566650    0.0003699494    
0.0598332320    0.0193256310    0.0003718531    
0.0600558930    0.0205069240    0.0003806072    
0.0602785540    0.0196035980    0.0003717366    
0.0605012150    0.0196755050    0.0003716331    
0.0607238760    0.0192514320    0.0003649274    
0.0609465370    0.0198719520    0.0003736808    
0.0611691980    0.0196671250    0.0003723392    
0.0613918590    0.0195986370    0.0003676324    
0.0616145200    0.0186970160    0.0003617046    
0.0618371810    0.0189078510    0.0003601659    
0.0620598420    0.0198749510    0.0003696426    
0.0622825030    0.0196583480    0.0003732448    
0.0625051640    0.0204327330    0.0003751810    
0.0627278250    0.0200330810    0.0003707288    
0.0629504860    0.0190404750    0.0003584893    
0.0631731470    0.0195629570    0.0003678704    
0.0633958080    0.0197817870    0.0003720511    
0.0636184690    0.0193942620    0.0003735195    
0.0638411300    0.0199557720    0.0003774658    
0.0640637910    0.0200636980    0.0003811472    
0.0642864520    0.0197318430    0.0003771640    
0.0645091130    0.0199838100    0.0003828906    
0.0647317740    0.0198073280    0.0003816164    
0.0649544350    0.0199104940    0.0003821881    
0.0651770960    0.0190843250    0.0003721336    
0.0653997570    0.0195146140    0.0003754894    
0.0656224180    0.0197737290    0.0003787960    
0.0658450790    0.0196746400    0.0003724147    
0.0660677400    0.0202832500    0.0003797403    
0.0662904010    0.0196783960    0.0003785007    
0.0665130620    0.0195729980    0.0003758482    
0.0667357230    0.0195500100    0.0003823060    
0.0669583840    0.0196199150    0.0003817075    
0.0671810450    0.0196829470    0.0003802093    
0.0674037060    0.0200820770    0.0003905511    
0.0676263670    0.0195944980    0.0003829564    
0.0678490280    0.0196512950    0.0003811656    
0.0680716890    0.0197240000    0.0003827198    
0.0682943500    0.0200933930    0.0003820561    
0.0685170110    0.0197998470    0.0003753905    
0.0687396720    0.0197372530    0.0003738009    
0.0689623330    0.0194083560    0.0003694987    
0.0691849940    0.0188437410    0.0003666070    
0.0694076550    0.0192796160    0.0003706248    
0.0696303160    0.0194453750    0.0003692677    
0.0698529770    0.0194826640    0.0003688470    
0.0700756380    0.0192510720    0.0003619415    
0.0702982990    0.0198117320    0.0003711729    
0.0705209600    0.0193142250    0.0003638369    
0.0707436210    0.0186279050    0.0003556732    
0.0709662820    0.0199926090    0.0003728641    
0.0711889430    0.0198301530    0.0003667851    
0.0714116040    0.0196114770    0.0003655018    
0.0716342650    0.0191755190    0.0003599490    
0.0718569260    0.0200736420    0.0003667987    
0.0720795870    0.0194728640    0.0003627295    
0.0723022480    0.0193018270    0.0003616833    
0.0725249090    0.0196031210    0.0003601301    
0.0727475700    0.0195760350    0.0003629551    
0.0729702310    0.0189338930    0.0003541056    
0.0731928920    0.0201002310    0.0003663074    
0.0734155530    0.0192288680    0.0003575646    
0.0736382140    0.0195276590    0.0003580195    
0.0738608750    0.0191956730    0.0003572563    
0.0740835360    0.0195768350    0.0003598902    
0.0743061970    0.0194409740    0.0003535892    
0.0745288580    0.0193570990    0.0003564535    
0.0747515190    0.0195588430    0.0003590139    
0.0749741800    0.0192825150    0.0003531691    
0.0751968410    0.0202369760    0.0003646450    
0.0754195020    0.0196304030    0.0003570345    
0.0756421630    0.0204414450    0.0003613571    
0.0758648240    0.0195321070    0.0003540773    
0.0760874850    0.0198403920    0.0003566893    
0.0763101460    0.0194247230    0.0003525945    
0.0765328070    0.0192298770    0.0003544113    
0.0767554680    0.0199363200    0.0003584139    
0.0769781290    0.0190963590    0.0003487665    
0.0772007900    0.0190670630    0.0003457038    
0.0774234510    0.0196586120    0.0003530222    
0.0776461120    0.0194188590    0.0003505301    
0.0778687730    0.0190833410    0.0003463407    
0.0780914340    0.0194590430    0.0003522323    
0.0783140950    0.0190131980    0.0003426497    
0.0785367560    0.0197651380    0.0003549924    
0.0787594170    0.0195628380    0.0003500067    
0.0789820780    0.0190219780    0.0003433659    
0.0792047390    0.0197579560    0.0003510896    
0.0794274000    0.0191644470    0.0003472413    
0.0796500610    0.0194954950    0.0003468093    
0.0798727220    0.0192439870    0.0003442469    
0.0800953830    0.0192352650    0.0003433774    
0.0803180440    0.0198336130    0.0003511061    
0.0805407050    0.0187792960    0.0003413289    
0.0807633660    0.0197166590    0.0003494192    
0.0809860270    0.0196880990    0.0003478767    
0.0812086880    0.0193553330    0.0003419435    
0.0814313490    0.0188068350    0.0003386009    
0.0816540100    0.0192310520    0.0003416189    
0.0818766710    0.0187459270    0.0003380527    
0.0820993320    0.0198621000    0.0003473372    
0.0823219930    0.0196159540    0.0003466019    
0.0825446540    0.0196337290    0.0003442395    
0.0827673150    0.0192576660    0.0003386364    
0.0829899760    0.0194087040    0.0003393566    
0.0832126370    0.0194512480    0.0003412500    
0.0834352980    0.0196146870    0.0003419144    
0.0836579590    0.0195808640    0.0003408591    
0.0838806200    0.0202767980    0.0003479489    
0.0841032810    0.0195245970    0.0003393146    
0.0843259420    0.0194631340    0.0003377368    
0.0845486030    0.0195159090    0.0003381946    
0.0847712640    0.0197824450    0.0003384211    
0.0849939250    0.0193982550    0.0003357024    
0.0852165860    0.0192568900    0.0003349151    
0.0854392470    0.0194368200    0.0003332897    
0.0856619080    0.0194515990    0.0003358720    
0.0858845690    0.0189205390    0.0003282719    
0.0861072300    0.0194367460    0.0003350167    
0.0863298910    0.0194249390    0.0003366687    
0.0865525520    0.0202837430    0.0003410598    
0.0867752130    0.0198053750    0.0003342947    
0.0869978740    0.0197136280    0.0003343695    
0.0872205350    0.0190355760    0.0003281508    
0.0874431960    0.0197596950    0.0003343343    
0.0876658570    0.0194499850    0.0003329774    
0.0878885180    0.0193794590    0.0003329430    
0.0881111790    0.0186907550    0.0003265539    
0.0883338400    0.0190670070    0.0003249953    
0.0885565010    0.0192974090    0.0003313867    
0.0887791620    0.0197482130    0.0003308879    
0.0890018230    0.0195340340    0.0003322807    
0.0892244840    0.0193736500    0.0003314763    
0.0894471450    0.0195364970    0.0003314605    
0.0896698060    0.0186526620    0.0003226544    
0.0898924670    0.0198512180    0.0003344023    
0.0901151280    0.0193750850    0.0003267992    
0.0903377890    0.0196390960    0.0003317718    
0.0905604500    0.0192260080    0.0003267575    
0.0907831110    0.0191525690    0.0003253215    
0.0910057720    0.0197860400    0.0003321751    
0.0912284330    0.0197815780    0.0003273822    
0.0914510940    0.0193167170    0.0003271202    
0.0916737550    0.0199595950    0.0003316939    
0.0918964160    0.0192700070    0.0003272691    
0.0921190770    0.0199383150    0.0003298858    
0.0923417380    0.0191844580    0.0003237221    
0.0925643990    0.0198136450    0.0003281827    
0.0927870600    0.0203053160    0.0003335920    
0.0930097210    0.0195460720    0.0003245083    
0.0932323820    0.0191784420    0.0003238050    
