# Diamond Light Source Ltd.
# Data extracted from: /dls/b21/data/2018/cm19678-3/processed/b21-386631_00041.dat
q(1/A)          Column          Error           
0.0035000000    2.1022394000    0.0246861450    
0.0037226610    1.8651868000    0.0227631130    
0.0039453220    1.6222315000    0.0193122800    
0.0041679830    1.2919125000    0.0141533250    
0.0043906440    0.9835029500    0.0118117720    
0.0046133050    0.7772022400    0.0100799440    
0.0048359660    0.6078973700    0.0084324525    
0.0050586270    0.4760930900    0.0073349330    
0.0052812880    0.4308514600    0.0065973276    
0.0055039490    0.3816823000    0.0059042650    
0.0057266100    0.3194339400    0.0052253996    
0.0059492710    0.2682322200    0.0047883344    
0.0061719320    0.2201809900    0.0041804843    
0.0063945930    0.2059558000    0.0040921961    
0.0066172539    0.1805200800    0.0035974740    
0.0068399149    0.1639055200    0.0033739417    
0.0070625759    0.1481783200    0.0031750876    
0.0072852369    0.1243690800    0.0028653125    
0.0075078979    0.1164824500    0.0027593491    
0.0077305589    0.1055453500    0.0025765771    
0.0079532199    0.0965847850    0.0024306233    
0.0081758809    0.0904765400    0.0023743934    
0.0083985419    0.0813091390    0.0020993929    
0.0086212029    0.0786530520    0.0020648185    
0.0088438639    0.0741409480    0.0019886151    
0.0090665249    0.0651808340    0.0018008779    
0.0092891859    0.0665651230    0.0018995361    
0.0095118469    0.0623121940    0.0017674107    
0.0097345079    0.0573108880    0.0016462122    
0.0099571689    0.0544727600    0.0015718383    
0.0101798300    0.0493021660    0.0014953788    
0.0104024910    0.0503205440    0.0015056317    
0.0106251520    0.0468529490    0.0014577625    
0.0108478130    0.0461983650    0.0014096928    
0.0110704740    0.0439032220    0.0013083598    
0.0112931350    0.0422789350    0.0012876999    
0.0115157960    0.0394227390    0.0012361931    
0.0117384570    0.0384802340    0.0012108128    
0.0119611180    0.0382798930    0.0012111222    
0.0121837790    0.0375965590    0.0011800898    
0.0124064400    0.0363984060    0.0011127317    
0.0126291010    0.0320763670    0.0010315064    
0.0128517620    0.0343369790    0.0010699007    
0.0130744230    0.0338623880    0.0010546012    
0.0132970840    0.0336296030    0.0010458309    
0.0135197450    0.0304613910    0.0009810954    
0.0137424060    0.0329067510    0.0010055190    
0.0139650670    0.0305172260    0.0009467543    
0.0141877280    0.0312423000    0.0009600526    
0.0144103890    0.0293478950    0.0009144466    
0.0146330500    0.0288076160    0.0009002380    
0.0148557110    0.0289571140    0.0008987866    
0.0150783720    0.0291938440    0.0008949947    
0.0153010330    0.0280297200    0.0008646043    
0.0155236940    0.0259316850    0.0008266719    
0.0157463550    0.0258552480    0.0008111513    
0.0159690160    0.0271241890    0.0008276651    
0.0161916770    0.0248966220    0.0007884839    
0.0164143380    0.0247175560    0.0007915953    
0.0166369990    0.0254551970    0.0007785520    
0.0168596600    0.0239792680    0.0007489865    
0.0170823210    0.0251982050    0.0007611396    
0.0173049820    0.0254007570    0.0007655138    
0.0175276430    0.0245257110    0.0007601447    
0.0177503040    0.0239400450    0.0007318685    
0.0179729650    0.0241474520    0.0007277424    
0.0181956260    0.0233992640    0.0007026457    
0.0184182870    0.0234091270    0.0006994814    
0.0186409480    0.0240662220    0.0007137197    
0.0188636090    0.0242242820    0.0007115562    
0.0190862700    0.0227942680    0.0006891551    
0.0193089310    0.0234294730    0.0006976024    
0.0195315920    0.0224638190    0.0006598449    
0.0197542530    0.0235206870    0.0006761722    
0.0199769140    0.0232096780    0.0006716870    
0.0201995750    0.0231476910    0.0006602855    
0.0204222360    0.0229145410    0.0006625911    
0.0206448970    0.0219666780    0.0006441315    
0.0208675580    0.0233722980    0.0006507386    
0.0210902190    0.0227542850    0.0006482729    
0.0213128800    0.0226621460    0.0006381804    
0.0215355410    0.0226693430    0.0006306780    
0.0217582020    0.0216516880    0.0006163596    
0.0219808630    0.0224873620    0.0006273168    
0.0222035240    0.0225628280    0.0006226746    
0.0224261850    0.0212514880    0.0005989306    
0.0226488460    0.0217815010    0.0006017999    
0.0228715070    0.0214583330    0.0005958350    
0.0230941680    0.0221035810    0.0006047271    
0.0233168290    0.0207506460    0.0005873870    
0.0235394900    0.0211570460    0.0005865653    
0.0237621510    0.0205875790    0.0005630404    
0.0239848120    0.0207741500    0.0005662402    
0.0242074730    0.0214149340    0.0005703050    
0.0244301340    0.0216921740    0.0005746397    
0.0246527950    0.0207157430    0.0005667575    
0.0248754560    0.0208470350    0.0005557727    
0.0250981170    0.0220860870    0.0005733263    
0.0253207780    0.0216973930    0.0005512922    
0.0255434390    0.0212902280    0.0005519234    
0.0257661000    0.0205641480    0.0005441850    
0.0259887610    0.0203831280    0.0005360270    
0.0262114220    0.0214272220    0.0005525123    
0.0264340830    0.0198639310    0.0005247375    
0.0266567440    0.0209746200    0.0005358765    
0.0268794050    0.0213061980    0.0005378913    
0.0271020660    0.0212956740    0.0005355814    
0.0273247270    0.0205083080    0.0005224305    
0.0275473880    0.0201218970    0.0005164556    
0.0277700490    0.0208802590    0.0005229880    
0.0279927100    0.0215214770    0.0005263249    
0.0282153710    0.0200026270    0.0005098797    
0.0284380320    0.0197328520    0.0005034939    
0.0286606930    0.0197627170    0.0004995621    
0.0288833540    0.0199646300    0.0005030614    
0.0291060150    0.0202177500    0.0005057600    
0.0293286760    0.0198058500    0.0004936061    
0.0295513370    0.0203276420    0.0004946206    
0.0297739980    0.0202610370    0.0004992463    
0.0299966590    0.0198600880    0.0004858396    
0.0302193200    0.0211404900    0.0005085611    
0.0304419810    0.0210096210    0.0005079175    
0.0306646420    0.0212318960    0.0004961861    
0.0308873030    0.0204740820    0.0004851460    
0.0311099640    0.0209503240    0.0004920303    
0.0313326250    0.0206356310    0.0004829113    
0.0315552860    0.0199100200    0.0004804924    
0.0317779470    0.0208507670    0.0004921413    
0.0320006080    0.0200249970    0.0004713395    
0.0322232690    0.0196112660    0.0004683976    
0.0324459300    0.0206971450    0.0004775982    
0.0326685910    0.0204971470    0.0004745015    
0.0328912520    0.0196821900    0.0004665126    
0.0331139130    0.0202398420    0.0004669213    
0.0333365740    0.0206316950    0.0004729503    
0.0335592350    0.0205452330    0.0004674202    
0.0337818960    0.0198754950    0.0004593726    
0.0340045570    0.0197700760    0.0004574250    
0.0342272170    0.0207589420    0.0004668764    
0.0344498780    0.0199394370    0.0004593804    
0.0346725390    0.0202272450    0.0004541151    
0.0348952000    0.0199221430    0.0004486241    
0.0351178610    0.0200335610    0.0004519359    
0.0353405220    0.0193160170    0.0004417470    
0.0355631830    0.0192409820    0.0004392277    
0.0357858440    0.0194014190    0.0004410553    
0.0360085050    0.0199626770    0.0004487411    
0.0362311660    0.0202689580    0.0004467954    
0.0364538270    0.0194312590    0.0004339541    
0.0366764880    0.0191901680    0.0004309406    
0.0368991490    0.0202808990    0.0004407850    
0.0371218100    0.0194029990    0.0004299058    
0.0373444710    0.0206747420    0.0004486037    
0.0375671320    0.0197604790    0.0004379339    
0.0377897930    0.0201965320    0.0004312782    
0.0380124540    0.0197140550    0.0004287691    
0.0382351150    0.0190799350    0.0004218170    
0.0384577760    0.0202409780    0.0004302697    
0.0386804370    0.0196595840    0.0004272813    
0.0389030980    0.0198019780    0.0004255785    
0.0391257590    0.0205084810    0.0004301637    
0.0393484200    0.0200928470    0.0004243495    
0.0395710810    0.0204076190    0.0004282366    
0.0397937420    0.0194461110    0.0004180268    
0.0400164030    0.0203022310    0.0004288672    
0.0402390640    0.0202325980    0.0004224302    
0.0404617250    0.0204739630    0.0004224355    
0.0406843860    0.0190800830    0.0004038622    
0.0409070470    0.0197065930    0.0004147149    
0.0411297080    0.0194384200    0.0004078988    
0.0413523690    0.0198398880    0.0004131517    
0.0415750300    0.0197933610    0.0004161724    
0.0417976910    0.0204268690    0.0004118454    
0.0420203520    0.0201707230    0.0004107928    
0.0422430130    0.0190508720    0.0004007381    
0.0424656740    0.0187963270    0.0003928711    
0.0426883350    0.0201776050    0.0004090709    
0.0429109960    0.0206627320    0.0004152527    
0.0431336570    0.0195248850    0.0003979701    
0.0433563180    0.0200612570    0.0004068794    
0.0435789790    0.0202113770    0.0004019827    
0.0438016400    0.0195347530    0.0003973467    
0.0440243010    0.0191245230    0.0003891634    
0.0442469620    0.0191780870    0.0003920432    
0.0444696230    0.0195738980    0.0003946479    
0.0446922840    0.0205493530    0.0004031611    
0.0449149450    0.0197957120    0.0003904092    
0.0451376060    0.0200825270    0.0003980838    
0.0453602670    0.0197486620    0.0003906225    
0.0455829280    0.0197415590    0.0003901006    
0.0458055890    0.0197073150    0.0003920350    
0.0460282500    0.0190826600    0.0003811200    
0.0462509110    0.0194248620    0.0003821305    
0.0464735720    0.0195295860    0.0003833755    
0.0466962330    0.0193809880    0.0003836503    
0.0469188940    0.0195355590    0.0003840853    
0.0471415550    0.0193857990    0.0003845753    
0.0473642160    0.0196255120    0.0003815277    
0.0475868770    0.0200258290    0.0003834846    
0.0478095380    0.0198363890    0.0003799963    
0.0480321990    0.0196236430    0.0003787812    
0.0482548600    0.0196559570    0.0003774412    
0.0484775210    0.0200112590    0.0003846186    
0.0487001820    0.0190779770    0.0003700453    
0.0489228430    0.0196167290    0.0003750322    
0.0491455040    0.0190705440    0.0003672169    
0.0493681650    0.0186804110    0.0003665645    
0.0495908260    0.0200178600    0.0003730756    
0.0498134870    0.0200606600    0.0003770295    
0.0500361480    0.0198348220    0.0003739093    
0.0502588090    0.0187798300    0.0003583780    
0.0504814700    0.0194425090    0.0003694132    
0.0507041310    0.0200794260    0.0003709518    
0.0509267920    0.0202320870    0.0003738997    
0.0511494530    0.0190086480    0.0003600019    
0.0513721140    0.0190743190    0.0003637991    
0.0515947750    0.0191528760    0.0003597141    
0.0518174360    0.0196703980    0.0003623457    
0.0520400970    0.0198593380    0.0003615573    
0.0522627580    0.0193012130    0.0003594697    
0.0524854190    0.0190788260    0.0003602987    
0.0527080800    0.0195481540    0.0003675270    
0.0529307410    0.0193764790    0.0003676281    
0.0531534020    0.0201981250    0.0003739752    
0.0533760630    0.0196140730    0.0003696823    
0.0535987240    0.0199490610    0.0003710851    
0.0538213850    0.0200254940    0.0003761029    
0.0540440460    0.0198293980    0.0003724857    
0.0542667070    0.0195858110    0.0003727420    
0.0544893680    0.0196705990    0.0003737470    
0.0547120290    0.0194860590    0.0003694413    
0.0549346900    0.0193803570    0.0003686318    
0.0551573510    0.0193297090    0.0003724836    
0.0553800120    0.0199056510    0.0003747786    
0.0556026730    0.0192839740    0.0003765281    
0.0558253340    0.0198026390    0.0003847531    
0.0560479950    0.0198923650    0.0003856239    
0.0562706560    0.0189680930    0.0003801992    
0.0564933170    0.0197331580    0.0003911584    
0.0567159780    0.0194217540    0.0003834071    
0.0569386390    0.0199030720    0.0003942168    
0.0571613000    0.0197803310    0.0003845374    
0.0573839610    0.0192326650    0.0003760284    
0.0576066220    0.0190805520    0.0003755752    
0.0578292830    0.0196227800    0.0003796141    
0.0580519440    0.0194644140    0.0003795452    
0.0582746050    0.0196525830    0.0003796936    
0.0584972660    0.0194150630    0.0003759476    
0.0587199270    0.0202623140    0.0003807522    
0.0589425880    0.0192127760    0.0003685915    
0.0591652490    0.0195182590    0.0003736964    
0.0593879100    0.0198920230    0.0003744557    
0.0596105710    0.0191818430    0.0003673227    
0.0598332320    0.0196327980    0.0003747918    
0.0600558930    0.0192066520    0.0003683385    
0.0602785540    0.0193634370    0.0003694478    
0.0605012150    0.0202646250    0.0003771509    
0.0607238760    0.0199565120    0.0003715453    
0.0609465370    0.0190071670    0.0003654549    
0.0611691980    0.0193635200    0.0003694494    
0.0613918590    0.0192740330    0.0003645706    
0.0616145200    0.0189274500    0.0003639221    
0.0618371810    0.0191200460    0.0003621766    
0.0620598420    0.0193726020    0.0003649366    
0.0622825030    0.0193814780    0.0003706024    
0.0625051640    0.0194402260    0.0003659509    
0.0627278250    0.0198610610    0.0003691290    
0.0629504860    0.0200119030    0.0003675158    
0.0631731470    0.0195762960    0.0003679911    
0.0633958080    0.0196833240    0.0003711193    
0.0636184690    0.0193721900    0.0003733022    
0.0638411300    0.0199267070    0.0003771861    
0.0640637910    0.0192739840    0.0003735661    
0.0642864520    0.0196304150    0.0003761886    
0.0645091130    0.0194477750    0.0003777157    
0.0647317740    0.0199979830    0.0003834438    
0.0649544350    0.0201887590    0.0003848446    
0.0651770960    0.0193160410    0.0003743812    
0.0653997570    0.0190228350    0.0003707232    
0.0656224180    0.0191056550    0.0003723373    
0.0658450790    0.0197234850    0.0003728720    
0.0660677400    0.0201050040    0.0003780632    
0.0662904010    0.0195468560    0.0003772287    
0.0665130620    0.0186342920    0.0003667202    
0.0667357230    0.0191607670    0.0003784762    
0.0669583840    0.0193669350    0.0003792339    
0.0671810450    0.0202112300    0.0003852730    
0.0674037060    0.0190258430    0.0003801369    
0.0676263670    0.0194742520    0.0003817747    
0.0678490280    0.0197099410    0.0003817291    
0.0680716890    0.0191888270    0.0003774872    
0.0682943500    0.0204270380    0.0003852102    
0.0685170110    0.0198135790    0.0003755159    
0.0687396720    0.0198004650    0.0003743942    
0.0689623330    0.0191546260    0.0003670708    
0.0691849940    0.0198631670    0.0003763881    
0.0694076550    0.0194643670    0.0003723917    
0.0696303160    0.0197323830    0.0003719782    
0.0698529770    0.0196148440    0.0003700914    
0.0700756380    0.0197745480    0.0003668249    
0.0702982990    0.0194079120    0.0003673659    
0.0705209600    0.0196632740    0.0003671052    
0.0707436210    0.0192046590    0.0003611328    
0.0709662820    0.0197348130    0.0003704476    
0.0711889430    0.0199178430    0.0003675905    
0.0714116040    0.0200741780    0.0003697836    
0.0716342650    0.0193574590    0.0003616480    
0.0718569260    0.0197648320    0.0003639617    
0.0720795870    0.0197629010    0.0003654162    
0.0723022480    0.0199316140    0.0003675318    
0.0725249090    0.0196621670    0.0003606675    
0.0727475700    0.0200936950    0.0003677180    
0.0729702310    0.0196684980    0.0003609051    
0.0731928920    0.0192519420    0.0003584899    
0.0734155530    0.0193547080    0.0003587282    
0.0736382140    0.0191202120    0.0003542603    
0.0738608750    0.0197669860    0.0003625292    
0.0740835360    0.0196424980    0.0003604887    
0.0743061970    0.0195948220    0.0003549810    
0.0745288580    0.0189890360    0.0003530439    
0.0747515190    0.0192025010    0.0003557239    
0.0749741800    0.0188227760    0.0003489291    
0.0751968410    0.0199539410    0.0003620815    
0.0754195020    0.0187013330    0.0003484788    
0.0756421630    0.0192975120    0.0003510961    
0.0758648240    0.0190758960    0.0003499134    
0.0760874850    0.0191281160    0.0003502237    
0.0763101460    0.0193986310    0.0003523531    
0.0765328070    0.0192947070    0.0003550038    
0.0767554680    0.0193881270    0.0003534474    
0.0769781290    0.0191723090    0.0003494549    
0.0772007900    0.0199691400    0.0003537826    
0.0774234510    0.0195376670    0.0003519301    
0.0776461120    0.0196588020    0.0003526845    
0.0778687730    0.0193531350    0.0003487759    
0.0780914340    0.0192800300    0.0003506040    
0.0783140950    0.0196055120    0.0003479416    
0.0785367560    0.0197391340    0.0003547543    
0.0787594170    0.0197126290    0.0003513397    
0.0789820780    0.0198644160    0.0003508826    
0.0792047390    0.0192334180    0.0003463935    
0.0794274000    0.0190192570    0.0003459190    
0.0796500610    0.0192297210    0.0003444329    
0.0798727220    0.0199516600    0.0003505149    
0.0800953830    0.0197251470    0.0003477181    
0.0803180440    0.0200630770    0.0003531269    
0.0805407050    0.0196721630    0.0003493446    
0.0807633660    0.0194003540    0.0003466007    
0.0809860270    0.0190299130    0.0003420080    
0.0812086880    0.0196387620    0.0003444337    
0.0814313490    0.0198975530    0.0003482768    
0.0816540100    0.0196614160    0.0003454159    
0.0818766710    0.0199341880    0.0003485978    
0.0820993320    0.0194303510    0.0003435370    
0.0823219930    0.0202339900    0.0003520153    
0.0825446540    0.0195427000    0.0003434363    
0.0827673150    0.0194119970    0.0003399863    
0.0829899760    0.0193192110    0.0003385690    
0.0832126370    0.0196183820    0.0003427086    
0.0834352980    0.0195843900    0.0003416459    
0.0836579590    0.0196100350    0.0003411086    
0.0838806200    0.0195120430    0.0003413200    
0.0841032810    0.0194238580    0.0003384338    
0.0843259420    0.0200076650    0.0003424244    
0.0845486030    0.0204706730    0.0003463641    
0.0847712640    0.0195330050    0.0003362765    
0.0849939250    0.0185612020    0.0003283754    
0.0852165860    0.0192680510    0.0003350079    
0.0854392470    0.0188648390    0.0003283449    
0.0856619080    0.0191321410    0.0003330983    
0.0858845690    0.0194725110    0.0003330216    
0.0861072300    0.0194362530    0.0003350082    
0.0863298910    0.0192844080    0.0003354444    
0.0865525520    0.0188725210    0.0003289773    
0.0867752130    0.0189867220    0.0003273086    
0.0869978740    0.0194692660    0.0003322865    
0.0872205350    0.0199514940    0.0003359485    
0.0874431960    0.0194310990    0.0003315385    
0.0876658570    0.0198941170    0.0003367534    
0.0878885180    0.0194190070    0.0003332784    
0.0881111790    0.0199682490    0.0003375250    
0.0883338400    0.0192770200    0.0003267761    
0.0885565010    0.0199627240    0.0003370466    
0.0887791620    0.0194483370    0.0003283618    
0.0890018230    0.0189570280    0.0003273322    
0.0892244840    0.0192257040    0.0003302041    
0.0894471450    0.0193616740    0.0003299699    
0.0896698060    0.0196121460    0.0003308447    
0.0898924670    0.0192648820    0.0003294225    
0.0901151280    0.0194021540    0.0003270232    
0.0903377890    0.0192967160    0.0003288629    
0.0905604500    0.0189423020    0.0003243336    
0.0907831110    0.0195278310    0.0003284889    
0.0910057720    0.0198859160    0.0003330082    
0.0912284330    0.0197323150    0.0003269701    
0.0914510940    0.0200197440    0.0003330155    
0.0916737550    0.0196283670    0.0003289260    
0.0918964160    0.0196419030    0.0003304078    
0.0921190770    0.0192610260    0.0003242303    
0.0923417380    0.0195827270    0.0003270609    
0.0925643990    0.0190032230    0.0003213968    
0.0927870600    0.0197129210    0.0003286857    
0.0930097210    0.0194809270    0.0003239630    
0.0932323820    0.0193091620    0.0003249025    
