# Diamond Light Source Ltd.
# Data extracted from: /dls/b21/data/2018/cm19678-3/processed/b21-386631_00034.dat
q(1/A)          Column          Error           
0.0035000000    2.0582212000    0.0244145600    
0.0037226610    1.8681078000    0.0227699540    
0.0039453220    1.6300857000    0.0193496460    
0.0041679830    1.2858657000    0.0141133600    
0.0043906440    0.9595964800    0.0116617100    
0.0046133050    0.7767146400    0.0100719260    
0.0048359660    0.5907178200    0.0083084400    
0.0050586270    0.4553129600    0.0071696160    
0.0052812880    0.4193348200    0.0065054211    
0.0055039490    0.3887966800    0.0059561659    
0.0057266100    0.3219442500    0.0052433639    
0.0059492710    0.2666074400    0.0047715098    
0.0061719320    0.2248059500    0.0042221267    
0.0063945930    0.1977967600    0.0040083874    
0.0066172539    0.1839989200    0.0036302222    
0.0068399149    0.1671474400    0.0034055035    
0.0070625759    0.1472199300    0.0031632781    
0.0072852369    0.1255023000    0.0028769499    
0.0075078979    0.1146070400    0.0027357268    
0.0077305589    0.0999766790    0.0025064764    
0.0079532199    0.0991805410    0.0024618819    
0.0081758809    0.0903893680    0.0023721057    
0.0083985419    0.0871335700    0.0021722384    
0.0086212029    0.0786855790    0.0020642502    
0.0088438639    0.0712452820    0.0019484551    
0.0090665249    0.0655654100    0.0018053125    
0.0092891859    0.0605440600    0.0018107173    
0.0095118469    0.0598482130    0.0017312797    
0.0097345079    0.0550826000    0.0016131144    
0.0099571689    0.0545109020    0.0015716309    
0.0101798300    0.0529702870    0.0015492627    
0.0104024910    0.0473466500    0.0014597598    
0.0106251520    0.0464906200    0.0014514152    
0.0108478130    0.0442200330    0.0013785146    
0.0110704740    0.0429650060    0.0012936808    
0.0112931350    0.0413761960    0.0012732644    
0.0115157960    0.0400818320    0.0012458834    
0.0117384570    0.0390140970    0.0012185957    
0.0119611180    0.0353336320    0.0011630207    
0.0121837790    0.0348589520    0.0011357660    
0.0124064400    0.0359215390    0.0011048859    
0.0126291010    0.0352268110    0.0010804550    
0.0128517620    0.0342372870    0.0010678316    
0.0130744230    0.0336656990    0.0010510272    
0.0132970840    0.0317451310    0.0010156167    
0.0135197450    0.0326102690    0.0010146219    
0.0137424060    0.0310640020    0.0009764885    
0.0139650670    0.0331874190    0.0009868296    
0.0141877280    0.0318606110    0.0009690390    
0.0144103890    0.0282663900    0.0008970068    
0.0146330500    0.0300446000    0.0009189197    
0.0148557110    0.0288456030    0.0008966221    
0.0150783720    0.0288916020    0.0008899207    
0.0153010330    0.0270435340    0.0008488490    
0.0155236940    0.0281709040    0.0008612097    
0.0157463550    0.0260337250    0.0008135539    
0.0159690160    0.0253571190    0.0007998653    
0.0161916770    0.0259952710    0.0008053052    
0.0164143380    0.0259854130    0.0008112523    
0.0166369990    0.0256923530    0.0007817934    
0.0168596600    0.0250546420    0.0007652279    
0.0170823210    0.0247145490    0.0007534363    
0.0173049820    0.0241547190    0.0007461418    
0.0175276430    0.0245491550    0.0007601414    
0.0177503040    0.0244534350    0.0007393179    
0.0179729650    0.0240803640    0.0007263805    
0.0181956260    0.0243674360    0.0007166893    
0.0184182870    0.0246394240    0.0007172814    
0.0186409480    0.0243179330    0.0007170967    
0.0188636090    0.0229480890    0.0006922256    
0.0190862700    0.0236881940    0.0007022000    
0.0193089310    0.0225976180    0.0006847763    
0.0195315920    0.0233135280    0.0006718847    
0.0197542530    0.0236728040    0.0006780283    
0.0199769140    0.0230125370    0.0006685060    
0.0201995750    0.0229184080    0.0006566906    
0.0204222360    0.0224139410    0.0006549977    
0.0206448970    0.0219643830    0.0006437875    
0.0208675580    0.0217931280    0.0006280675    
0.0210902190    0.0213669440    0.0006278966    
0.0213128800    0.0217425990    0.0006247976    
0.0215355410    0.0218937540    0.0006194967    
0.0217582020    0.0220164660    0.0006212305    
0.0219808630    0.0216614770    0.0006153928    
0.0222035240    0.0215625350    0.0006084221    
0.0224261850    0.0221079090    0.0006105853    
0.0226488460    0.0217937370    0.0006016789    
0.0228715070    0.0201318950    0.0005768475    
0.0230941680    0.0206277630    0.0005839086    
0.0233168290    0.0223585410    0.0006094259    
0.0235394900    0.0216403020    0.0005929406    
0.0237621510    0.0216599720    0.0005772402    
0.0239848120    0.0212012890    0.0005717562    
0.0242074730    0.0209846230    0.0005642741    
0.0244301340    0.0212910770    0.0005690280    
0.0246527950    0.0215477810    0.0005777487    
0.0248754560    0.0207677400    0.0005544475    
0.0250981170    0.0202954600    0.0005493291    
0.0253207780    0.0208648440    0.0005403515    
0.0255434390    0.0206693600    0.0005435542    
0.0257661000    0.0210910320    0.0005508468    
0.0259887610    0.0216731750    0.0005524630    
0.0262114220    0.0211646150    0.0005488515    
0.0264340830    0.0214235130    0.0005446851    
0.0266567440    0.0201747760    0.0005253064    
0.0268794050    0.0219232900    0.0005453622    
0.0271020660    0.0210733040    0.0005325210    
0.0273247270    0.0214724250    0.0005343119    
0.0275473880    0.0209897750    0.0005272215    
0.0277700490    0.0210826150    0.0005252629    
0.0279927100    0.0204077020    0.0005122779    
0.0282153710    0.0205287100    0.0005162924    
0.0284380320    0.0222935800    0.0005349090    
0.0286606930    0.0208034000    0.0005122996    
0.0288833540    0.0207305460    0.0005123732    
0.0291060150    0.0202235500    0.0005055887    
0.0293286760    0.0209297290    0.0005071732    
0.0295513370    0.0197910370    0.0004878133    
0.0297739980    0.0212861600    0.0005114738    
0.0299966590    0.0200784270    0.0004882676    
0.0302193200    0.0199956700    0.0004943611    
0.0304419810    0.0196645080    0.0004911525    
0.0306646420    0.0203657620    0.0004857259    
0.0308873030    0.0200638740    0.0004800299    
0.0311099640    0.0206415270    0.0004881554    
0.0313326250    0.0204012370    0.0004799295    
0.0315552860    0.0202615450    0.0004844820    
0.0317779470    0.0201924120    0.0004840760    
0.0320006080    0.0200943710    0.0004719278    
0.0322232690    0.0197600180    0.0004699441    
0.0324459300    0.0200386100    0.0004697123    
0.0326685910    0.0198628570    0.0004668770    
0.0328912520    0.0209446500    0.0004810098    
0.0331139130    0.0209951490    0.0004753247    
0.0333365740    0.0202327240    0.0004681294    
0.0335592350    0.0199517460    0.0004603977    
0.0337818960    0.0211716160    0.0004738859    
0.0340045570    0.0203960030    0.0004643858    
0.0342272170    0.0202144360    0.0004604906    
0.0344498780    0.0198567850    0.0004582064    
0.0346725390    0.0208596190    0.0004609368    
0.0348952000    0.0197616500    0.0004465981    
0.0351178610    0.0198411080    0.0004495432    
0.0353405220    0.0197112110    0.0004460281    
0.0355631830    0.0197232890    0.0004444843    
0.0357858440    0.0204745700    0.0004528708    
0.0360085050    0.0198628230    0.0004474017    
0.0362311660    0.0206528440    0.0004507893    
0.0364538270    0.0190349370    0.0004292988    
0.0366764880    0.0202835010    0.0004428332    
0.0368991490    0.0205389110    0.0004433662    
0.0371218100    0.0202597860    0.0004390834    
0.0373444710    0.0197504440    0.0004382500    
0.0375671320    0.0203619960    0.0004443352    
0.0377897930    0.0203242830    0.0004324316    
0.0380124540    0.0206080770    0.0004381723    
0.0382351150    0.0205987740    0.0004380735    
0.0384577760    0.0200387250    0.0004279084    
0.0386804370    0.0195571440    0.0004259613    
0.0389030980    0.0195087710    0.0004222124    
0.0391257590    0.0199749260    0.0004243266    
0.0393484200    0.0202794160    0.0004261096    
0.0395710810    0.0203340920    0.0004272585    
0.0397937420    0.0202892180    0.0004267869    
0.0400164030    0.0196581700    0.0004218064    
0.0402390640    0.0200721240    0.0004205489    
0.0404617250    0.0200188560    0.0004175128    
0.0406843860    0.0203341870    0.0004167227    
0.0409070470    0.0198619880    0.0004161461    
0.0411297080    0.0200610290    0.0004141801    
0.0413523690    0.0195199370    0.0004096093    
0.0415750300    0.0198617100    0.0004166894    
0.0417976910    0.0190881870    0.0003979297    
0.0420203520    0.0206444140    0.0004153881    
0.0422430130    0.0200852000    0.0004112747    
0.0424656740    0.0197462510    0.0004024821    
0.0426883350    0.0200670260    0.0004077518    
0.0429109960    0.0195589920    0.0004038150    
0.0431336570    0.0199355800    0.0004019401    
0.0433563180    0.0197451330    0.0004034663    
0.0435789790    0.0192254400    0.0003918666    
0.0438016400    0.0194028890    0.0003958125    
0.0440243010    0.0199130620    0.0003969140    
0.0442469620    0.0195839550    0.0003959790    
0.0444696230    0.0200399410    0.0003991260    
0.0446922840    0.0196129150    0.0003936781    
0.0449149450    0.0193381830    0.0003856853    
0.0451376060    0.0197320760    0.0003944050    
0.0453602670    0.0196138510    0.0003890994    
0.0455829280    0.0200382840    0.0003928320    
0.0458055890    0.0197662390    0.0003924315    
0.0460282500    0.0191783400    0.0003818902    
0.0462509110    0.0202923400    0.0003903817    
0.0464735720    0.0196987350    0.0003848466    
0.0466962330    0.0198251290    0.0003878344    
0.0469188940    0.0194865600    0.0003834184    
0.0471415550    0.0196491300    0.0003869919    
0.0473642160    0.0192805670    0.0003779777    
0.0475868770    0.0199258330    0.0003823417    
0.0478095380    0.0201009000    0.0003823371    
0.0480321990    0.0199918640    0.0003821342    
0.0482548600    0.0197166670    0.0003778415    
0.0484775210    0.0193125320    0.0003776621    
0.0487001820    0.0198698800    0.0003774652    
0.0489228430    0.0195620140    0.0003743283    
0.0491455040    0.0190309770    0.0003666590    
0.0493681650    0.0197044030    0.0003762960    
0.0495908260    0.0197415580    0.0003703134    
0.0498134870    0.0203245020    0.0003793179    
0.0500361480    0.0198016280    0.0003734163    
0.0502588090    0.0190691940    0.0003609545    
0.0504814700    0.0196341420    0.0003710504    
0.0507041310    0.0197793760    0.0003679924    
0.0509267920    0.0195636920    0.0003674945    
0.0511494530    0.0199984290    0.0003690777    
0.0513721140    0.0197144770    0.0003696753    
0.0515947750    0.0199510950    0.0003669564    
0.0518174360    0.0190179580    0.0003561141    
0.0520400970    0.0195837350    0.0003588667    
0.0522627580    0.0195367760    0.0003614824    
0.0524854190    0.0198761540    0.0003675731    
0.0527080800    0.0197985460    0.0003696951    
0.0529307410    0.0195459530    0.0003690544    
0.0531534020    0.0202132530    0.0003739350    
0.0533760630    0.0201311720    0.0003743432    
0.0535987240    0.0199091520    0.0003705351    
0.0538213850    0.0195686740    0.0003716092    
0.0540440460    0.0194048600    0.0003682992    
0.0542667070    0.0196094620    0.0003727873    
0.0544893680    0.0200985980    0.0003776091    
0.0547120290    0.0199711110    0.0003738309    
0.0549346900    0.0195227990    0.0003698057    
0.0551573510    0.0197700200    0.0003765206    
0.0553800120    0.0202459940    0.0003777869    
0.0556026730    0.0194637040    0.0003780964    
0.0558253340    0.0199179890    0.0003856861    
0.0560479950    0.0200673750    0.0003871299    
0.0562706560    0.0196959340    0.0003872383    
0.0564933170    0.0199930100    0.0003935357    
0.0567159780    0.0202272550    0.0003910885    
0.0569386390    0.0198682940    0.0003936825    
0.0571613000    0.0195073490    0.0003816908    
0.0573839610    0.0206170020    0.0003891386    
0.0576066220    0.0199336660    0.0003836947    
0.0578292830    0.0191049730    0.0003743915    
0.0580519440    0.0200593440    0.0003851162    
0.0582746050    0.0192085820    0.0003751991    
0.0584972660    0.0193599930    0.0003752331    
0.0587199270    0.0200569470    0.0003786352    
0.0589425880    0.0195545540    0.0003716763    
0.0591652490    0.0197496300    0.0003757236    
0.0593879100    0.0192531510    0.0003682159    
0.0596105710    0.0198098710    0.0003731076    
0.0598332320    0.0192993740    0.0003714166    
0.0600558930    0.0196397990    0.0003722892    
0.0602785540    0.0198095620    0.0003734995    
0.0605012150    0.0196350120    0.0003710668    
0.0607238760    0.0194328060    0.0003664611    
0.0609465370    0.0191643520    0.0003667860    
0.0611691980    0.0202040100    0.0003772005    
0.0613918590    0.0193725800    0.0003653254    
0.0616145200    0.0193426230    0.0003677145    
0.0618371810    0.0195813920    0.0003663435    
0.0620598420    0.0198759020    0.0003694687    
0.0622825030    0.0196955470    0.0003734130    
0.0625051640    0.0196899000    0.0003681159    
0.0627278250    0.0202737180    0.0003727643    
0.0629504860    0.0193183340    0.0003609170    
0.0631731470    0.0204005470    0.0003754773    
0.0633958080    0.0193637670    0.0003679171    
0.0636184690    0.0195403770    0.0003747385    
0.0638411300    0.0193154900    0.0003711773    
0.0640637910    0.0192120130    0.0003727854    
0.0642864520    0.0192153820    0.0003720113    
0.0645091130    0.0198614450    0.0003815278    
0.0647317740    0.0195012820    0.0003784695    
0.0649544350    0.0197368980    0.0003803301    
0.0651770960    0.0199571090    0.0003803597    
0.0653997570    0.0201810100    0.0003816580    
0.0656224180    0.0193554690    0.0003745830    
0.0658450790    0.0197608200    0.0003730449    
0.0660677400    0.0197731270    0.0003747492    
0.0662904010    0.0200444070    0.0003818155    
0.0665130620    0.0196257440    0.0003761682    
0.0667357230    0.0196725840    0.0003833130    
0.0669583840    0.0199862940    0.0003850645    
0.0671810450    0.0194580450    0.0003778439    
0.0674037060    0.0192730860    0.0003824145    
0.0676263670    0.0199938420    0.0003866478    
0.0678490280    0.0198608280    0.0003830028    
0.0680716890    0.0196822400    0.0003821254    
0.0682943500    0.0187091630    0.0003684791    
0.0685170110    0.0195882970    0.0003731951    
0.0687396720    0.0195550720    0.0003718877    
0.0689623330    0.0196772970    0.0003718659    
0.0691849940    0.0192526270    0.0003703798    
0.0694076550    0.0187765470    0.0003655766    
0.0696303160    0.0192860380    0.0003675699    
0.0698529770    0.0201261320    0.0003747032    
0.0700756380    0.0200886060    0.0003695482    
0.0702982990    0.0191182780    0.0003644388    
0.0705209600    0.0193019740    0.0003635417    
0.0707436210    0.0192336460    0.0003612311    
0.0709662820    0.0197435870    0.0003703514    
0.0711889430    0.0191734630    0.0003604824    
0.0714116040    0.0201024730    0.0003698659    
0.0716342650    0.0201285610    0.0003686030    
0.0718569260    0.0193440430    0.0003598931    
0.0720795870    0.0195548590    0.0003633126    
0.0723022480    0.0193572190    0.0003620228    
0.0725249090    0.0186716370    0.0003512960    
0.0727475700    0.0195230640    0.0003622844    
0.0729702310    0.0198149480    0.0003620717    
0.0731928920    0.0201603840    0.0003666737    
0.0734155530    0.0194356960    0.0003593047    
0.0736382140    0.0189575260    0.0003525799    
0.0738608750    0.0191368370    0.0003565320    
0.0740835360    0.0198615150    0.0003623182    
0.0743061970    0.0191197920    0.0003504828    
0.0745288580    0.0191150050    0.0003540423    
0.0747515190    0.0194078360    0.0003574484    
0.0749741800    0.0194250000    0.0003542962    
0.0751968410    0.0198231280    0.0003607187    
0.0754195020    0.0188909060    0.0003500718    
0.0756421630    0.0195852380    0.0003535334    
0.0758648240    0.0190126300    0.0003491643    
0.0760874850    0.0203076450    0.0003606865    
0.0763101460    0.0193671530    0.0003518975    
0.0765328070    0.0192695920    0.0003546017    
0.0767554680    0.0196913060    0.0003560285    
0.0769781290    0.0195356410    0.0003525807    
0.0772007900    0.0184971770    0.0003403300    
0.0774234510    0.0191325200    0.0003480942    
0.0776461120    0.0193870150    0.0003500693    
0.0778687730    0.0190519120    0.0003458843    
0.0780914340    0.0198156040    0.0003552690    
0.0783140950    0.0193645380    0.0003456300    
0.0785367560    0.0196182030    0.0003534955    
0.0787594170    0.0190555320    0.0003452678    
0.0789820780    0.0196161740    0.0003485152    
0.0792047390    0.0202744170    0.0003554728    
0.0794274000    0.0200191760    0.0003547247    
0.0796500610    0.0190694360    0.0003428291    
0.0798727220    0.0196248380    0.0003474647    
0.0800953830    0.0196020390    0.0003464642    
0.0803180440    0.0194166030    0.0003472237    
0.0805407050    0.0195168580    0.0003477952    
0.0807633660    0.0194806430    0.0003471498    
0.0809860270    0.0198774150    0.0003493724    
0.0812086880    0.0193784400    0.0003419784    
0.0814313490    0.0195190610    0.0003447823    
0.0816540100    0.0199455970    0.0003477356    
0.0818766710    0.0196774630    0.0003461789    
0.0820993320    0.0191931810    0.0003412694    
0.0823219930    0.0190581570    0.0003414695    
0.0825446540    0.0199580030    0.0003468990    
0.0827673150    0.0192148280    0.0003380923    
0.0829899760    0.0200771250    0.0003449800    
0.0832126370    0.0196114420    0.0003424828    
0.0834352980    0.0198155970    0.0003434911    
0.0836579590    0.0197808280    0.0003424257    
0.0838806200    0.0195171030    0.0003411997    
0.0841032810    0.0192578670    0.0003368222    
0.0843259420    0.0195082920    0.0003379611    
0.0845486030    0.0198186280    0.0003406389    
0.0847712640    0.0196819120    0.0003373932    
0.0849939250    0.0196402470    0.0003376228    
0.0852165860    0.0196219070    0.0003379072    
0.0854392470    0.0193547980    0.0003324213    
0.0856619080    0.0200523010    0.0003408501    
0.0858845690    0.0196301360    0.0003342056    
0.0861072300    0.0194290640    0.0003347849    
0.0863298910    0.0195922690    0.0003379485    
0.0865525520    0.0193871400    0.0003332718    
0.0867752130    0.0196674150    0.0003329636    
0.0869978740    0.0193598550    0.0003311918    
0.0872205350    0.0189998000    0.0003276802    
0.0874431960    0.0188924540    0.0003267534    
0.0876658570    0.0199034240    0.0003366698    
0.0878885180    0.0190917210    0.0003302987    
0.0881111790    0.0193904380    0.0003324455    
0.0883338400    0.0191311640    0.0003253806    
0.0885565010    0.0194716230    0.0003327146    
0.0887791620    0.0198173050    0.0003313023    
0.0890018230    0.0197575230    0.0003340108    
0.0892244840    0.0194281490    0.0003317781    
0.0894471450    0.0200396600    0.0003355358    
0.0896698060    0.0194817350    0.0003295840    
0.0898924670    0.0198597270    0.0003343085    
0.0901151280    0.0194275130    0.0003270792    
0.0903377890    0.0195804820    0.0003311125    
0.0905604500    0.0201723390    0.0003345371    
0.0907831110    0.0195034960    0.0003281260    
0.0910057720    0.0198277580    0.0003323607    
0.0912284330    0.0201517370    0.0003302676    
0.0914510940    0.0193806290    0.0003274989    
0.0916737550    0.0191083430    0.0003243832    
0.0918964160    0.0193397940    0.0003276990    
0.0921190770    0.0194278590    0.0003254745    
0.0923417380    0.0196839170    0.0003277468    
0.0925643990    0.0194465030    0.0003249671    
0.0927870600    0.0194584990    0.0003264003    
0.0930097210    0.0187624670    0.0003177798    
0.0932323820    0.0200661120    0.0003310501    
