# Diamond Light Source Ltd.
# Data extracted from: /dls/b21/data/2018/cm19678-3/processed/b21-386631_00039.dat
q(1/A)          Column          Error           
0.0035000000    2.1248032000    0.0248163040    
0.0037226610    1.8965558000    0.0229519120    
0.0039453220    1.6445017000    0.0194428470    
0.0041679830    1.3106212000    0.0142543060    
0.0043906440    0.9729929800    0.0117475590    
0.0046133050    0.7857059400    0.0101341350    
0.0048359660    0.5881529800    0.0082937222    
0.0050586270    0.4590694300    0.0072020305    
0.0052812880    0.4163395300    0.0064847562    
0.0055039490    0.3934019200    0.0059937500    
0.0057266100    0.3143408400    0.0051831639    
0.0059492710    0.2732321300    0.0048323730    
0.0061719320    0.2186382300    0.0041654823    
0.0063945930    0.1968992700    0.0040008939    
0.0066172539    0.1868710200    0.0036599187    
0.0068399149    0.1674904300    0.0034103688    
0.0070625759    0.1487670300    0.0031811364    
0.0072852369    0.1325997200    0.0029583710    
0.0075078979    0.1130001200    0.0027175743    
0.0077305589    0.0964096350    0.0024623476    
0.0079532199    0.0993216070    0.0024646243    
0.0081758809    0.0938887900    0.0024185614    
0.0083985419    0.0824885900    0.0021143971    
0.0086212029    0.0740879890    0.0020038423    
0.0088438639    0.0716226640    0.0019543956    
0.0090665249    0.0661157190    0.0018136030    
0.0092891859    0.0636279010    0.0018570070    
0.0095118469    0.0575907940    0.0016989987    
0.0097345079    0.0555524870    0.0016206326    
0.0099571689    0.0534210950    0.0015564678    
0.0101798300    0.0506094680    0.0015149548    
0.0104024910    0.0495017970    0.0014932142    
0.0106251520    0.0498385530    0.0015033724    
0.0108478130    0.0453738790    0.0013969462    
0.0110704740    0.0435064170    0.0013023305    
0.0112931350    0.0388214360    0.0012338262    
0.0115157960    0.0384863050    0.0012213260    
0.0117384570    0.0389312500    0.0012177914    
0.0119611180    0.0401894290    0.0012408637    
0.0121837790    0.0360721590    0.0011558265    
0.0124064400    0.0366647280    0.0011167066    
0.0126291010    0.0360511700    0.0010934643    
0.0128517620    0.0334982440    0.0010566691    
0.0130744230    0.0348093490    0.0010691607    
0.0132970840    0.0313479650    0.0010096500    
0.0135197450    0.0328577000    0.0010188740    
0.0137424060    0.0318263190    0.0009887956    
0.0139650670    0.0302774500    0.0009429528    
0.0141877280    0.0287006020    0.0009200990    
0.0144103890    0.0309386020    0.0009388274    
0.0146330500    0.0302938300    0.0009230949    
0.0148557110    0.0290083070    0.0008995094    
0.0150783720    0.0272963050    0.0008653510    
0.0153010330    0.0272519800    0.0008524573    
0.0155236940    0.0273767770    0.0008493262    
0.0157463550    0.0268180210    0.0008260502    
0.0159690160    0.0261603390    0.0008127622    
0.0161916770    0.0265904690    0.0008148003    
0.0164143380    0.0252712770    0.0008003494    
0.0166369990    0.0270463220    0.0008024520    
0.0168596600    0.0256829860    0.0007750761    
0.0170823210    0.0233782030    0.0007330788    
0.0173049820    0.0255120640    0.0007671283    
0.0175276430    0.0245924900    0.0007611185    
0.0177503040    0.0248981720    0.0007463111    
0.0179729650    0.0238804770    0.0007236508    
0.0181956260    0.0237330900    0.0007075840    
0.0184182870    0.0246592760    0.0007178593    
0.0186409480    0.0244856670    0.0007198554    
0.0188636090    0.0247637800    0.0007193790    
0.0190862700    0.0227698210    0.0006887308    
0.0193089310    0.0228650340    0.0006890936    
0.0195315920    0.0237586490    0.0006785417    
0.0197542530    0.0223702620    0.0006593764    
0.0199769140    0.0239834180    0.0006827371    
0.0201995750    0.0221459460    0.0006457889    
0.0204222360    0.0231024690    0.0006652498    
0.0206448970    0.0231151760    0.0006607033    
0.0208675580    0.0218106860    0.0006285735    
0.0210902190    0.0209963630    0.0006226785    
0.0213128800    0.0219757410    0.0006283915    
0.0215355410    0.0220692810    0.0006222256    
0.0217582020    0.0220342040    0.0006217310    
0.0219808630    0.0223263220    0.0006250170    
0.0222035240    0.0215970880    0.0006091546    
0.0224261850    0.0207418080    0.0005916579    
0.0226488460    0.0219941650    0.0006046827    
0.0228715070    0.0217030600    0.0005991755    
0.0230941680    0.0204789630    0.0005820330    
0.0233168290    0.0219443180    0.0006039975    
0.0235394900    0.0207959800    0.0005814925    
0.0237621510    0.0212617340    0.0005721394    
0.0239848120    0.0216658850    0.0005782197    
0.0242074730    0.0209559730    0.0005641158    
0.0244301340    0.0198623150    0.0005498252    
0.0246527950    0.0220147380    0.0005842105    
0.0248754560    0.0213770440    0.0005627487    
0.0250981170    0.0210707140    0.0005599479    
0.0253207780    0.0214418600    0.0005479928    
0.0255434390    0.0213297690    0.0005523919    
0.0257661000    0.0209640410    0.0005494072    
0.0259887610    0.0209154680    0.0005429385    
0.0262114220    0.0202985040    0.0005377205    
0.0264340830    0.0199855180    0.0005262993    
0.0266567440    0.0211355600    0.0005378858    
0.0268794050    0.0202437880    0.0005242675    
0.0271020660    0.0208613330    0.0005300494    
0.0273247270    0.0211570660    0.0005305873    
0.0275473880    0.0218151450    0.0005377039    
0.0277700490    0.0215711000    0.0005315272    
0.0279927100    0.0203855350    0.0005122058    
0.0282153710    0.0198045290    0.0005073084    
0.0284380320    0.0199352410    0.0005060293    
0.0286606930    0.0203024970    0.0005062983    
0.0288833540    0.0214950110    0.0005219450    
0.0291060150    0.0201386440    0.0005047295    
0.0293286760    0.0202209030    0.0004987118    
0.0295513370    0.0202642510    0.0004938096    
0.0297739980    0.0205653190    0.0005029413    
0.0299966590    0.0213779970    0.0005040242    
0.0302193200    0.0204643700    0.0005003229    
0.0304419810    0.0199013410    0.0004943003    
0.0306646420    0.0204981100    0.0004874978    
0.0308873030    0.0197352190    0.0004762739    
0.0311099640    0.0200111460    0.0004808372    
0.0313326250    0.0189148790    0.0004623021    
0.0315552860    0.0203358400    0.0004855649    
0.0317779470    0.0203015940    0.0004855785    
0.0320006080    0.0196224940    0.0004665415    
0.0322232690    0.0206148500    0.0004801949    
0.0324459300    0.0202530990    0.0004724096    
0.0326685910    0.0203511210    0.0004727708    
0.0328912520    0.0204419090    0.0004753932    
0.0331139130    0.0199350750    0.0004633559    
0.0333365740    0.0200105460    0.0004657395    
0.0335592350    0.0201698380    0.0004630936    
0.0337818960    0.0203712750    0.0004650297    
0.0340045570    0.0194600670    0.0004537885    
0.0342272170    0.0203462070    0.0004621751    
0.0344498780    0.0199680210    0.0004596731    
0.0346725390    0.0193881650    0.0004445611    
0.0348952000    0.0201210020    0.0004508218    
0.0351178610    0.0210497420    0.0004632194    
0.0353405220    0.0199291100    0.0004486672    
0.0355631830    0.0193181300    0.0004400725    
0.0357858440    0.0198594920    0.0004461962    
0.0360085050    0.0203730230    0.0004532938    
0.0362311660    0.0199112410    0.0004428002    
0.0364538270    0.0200870890    0.0004411815    
0.0366764880    0.0202998430    0.0004431900    
0.0368991490    0.0202106330    0.0004399858    
0.0371218100    0.0204189650    0.0004409825    
0.0373444710    0.0192505430    0.0004328425    
0.0375671320    0.0201260970    0.0004419317    
0.0377897930    0.0203866980    0.0004332695    
0.0380124540    0.0201211840    0.0004331395    
0.0382351150    0.0202610580    0.0004346426    
0.0384577760    0.0199634200    0.0004272756    
0.0386804370    0.0191365030    0.0004215252    
0.0389030980    0.0197622580    0.0004251177    
0.0391257590    0.0198196170    0.0004228440    
0.0393484200    0.0203047150    0.0004265471    
0.0395710810    0.0190207300    0.0004133965    
0.0397937420    0.0194789670    0.0004183466    
0.0400164030    0.0199819810    0.0004254375    
0.0402390640    0.0197796510    0.0004176418    
0.0404617250    0.0206798680    0.0004245207    
0.0406843860    0.0200428760    0.0004138935    
0.0409070470    0.0199914290    0.0004176681    
0.0411297080    0.0192556190    0.0004059441    
0.0413523690    0.0196216860    0.0004108409    
0.0415750300    0.0204638950    0.0004231294    
0.0417976910    0.0200417250    0.0004079120    
0.0420203520    0.0198747560    0.0004077356    
0.0422430130    0.0199412460    0.0004099632    
0.0424656740    0.0193680660    0.0003987698    
0.0426883350    0.0198178500    0.0004053756    
0.0429109960    0.0201004150    0.0004095309    
0.0431336570    0.0204788190    0.0004075437    
0.0433563180    0.0191587220    0.0003975900    
0.0435789790    0.0201602090    0.0004014417    
0.0438016400    0.0191841740    0.0003937339    
0.0440243010    0.0196599000    0.0003945417    
0.0442469620    0.0193753700    0.0003940232    
0.0444696230    0.0203027100    0.0004018960    
0.0446922840    0.0200162300    0.0003978654    
0.0449149450    0.0192305900    0.0003847657    
0.0451376060    0.0200241140    0.0003974729    
0.0453602670    0.0197687060    0.0003907897    
0.0455829280    0.0195688680    0.0003883599    
0.0458055890    0.0195170510    0.0003901070    
0.0460282500    0.0200537830    0.0003906664    
0.0462509110    0.0199930100    0.0003876478    
0.0464735720    0.0199779690    0.0003877208    
0.0466962330    0.0196057110    0.0003858376    
0.0469188940    0.0201364800    0.0003899169    
0.0471415550    0.0205192960    0.0003956274    
0.0473642160    0.0193183490    0.0003785002    
0.0475868770    0.0194205780    0.0003776151    
0.0478095380    0.0193237650    0.0003750244    
0.0480321990    0.0199933500    0.0003823023    
0.0482548600    0.0196745800    0.0003775900    
0.0484775210    0.0197789570    0.0003823493    
0.0487001820    0.0190103640    0.0003693597    
0.0489228430    0.0200724160    0.0003793330    
0.0491455040    0.0189826810    0.0003663409    
0.0493681650    0.0196987030    0.0003763931    
0.0495908260    0.0193890090    0.0003671397    
0.0498134870    0.0194906830    0.0003716052    
0.0500361480    0.0196554890    0.0003721856    
0.0502588090    0.0193580730    0.0003638247    
0.0504814700    0.0202394590    0.0003768784    
0.0507041310    0.0193841940    0.0003644444    
0.0509267920    0.0197936260    0.0003697967    
0.0511494530    0.0192851280    0.0003625818    
0.0513721140    0.0192932960    0.0003658524    
0.0515947750    0.0195618810    0.0003635058    
0.0518174360    0.0199208780    0.0003646165    
0.0520400970    0.0197179790    0.0003602396    
0.0522627580    0.0194922720    0.0003612158    
0.0524854190    0.0191506340    0.0003609474    
0.0527080800    0.0201737560    0.0003733321    
0.0529307410    0.0197499950    0.0003711251    
0.0531534020    0.0197933780    0.0003701799    
0.0533760630    0.0196179300    0.0003696893    
0.0535987240    0.0200563250    0.0003720519    
0.0538213850    0.0199022550    0.0003749141    
0.0540440460    0.0199381870    0.0003734765    
0.0542667070    0.0195756120    0.0003726154    
0.0544893680    0.0197171810    0.0003741596    
0.0547120290    0.0199241720    0.0003735418    
0.0549346900    0.0195455390    0.0003701700    
0.0551573510    0.0198074780    0.0003770289    
0.0553800120    0.0195356280    0.0003712495    
0.0556026730    0.0196190490    0.0003797551    
0.0558253340    0.0193958850    0.0003807509    
0.0560479950    0.0190147130    0.0003769912    
0.0562706560    0.0196660850    0.0003871007    
0.0564933170    0.0199315930    0.0003930891    
0.0567159780    0.0203116600    0.0003920615    
0.0569386390    0.0196032510    0.0003912053    
0.0571613000    0.0196875020    0.0003836037    
0.0573839610    0.0197294680    0.0003808238    
0.0576066220    0.0193510130    0.0003781977    
0.0578292830    0.0203172230    0.0003862422    
0.0580519440    0.0190765400    0.0003757147    
0.0582746050    0.0192387280    0.0003756446    
0.0584972660    0.0193391980    0.0003751826    
0.0587199270    0.0194793550    0.0003732938    
0.0589425880    0.0190895350    0.0003673783    
0.0591652490    0.0194078590    0.0003726085    
0.0593879100    0.0199100120    0.0003745953    
0.0596105710    0.0197062720    0.0003722806    
0.0598332320    0.0193006150    0.0003715782    
0.0600558930    0.0197968770    0.0003739256    
0.0602785540    0.0196140880    0.0003718018    
0.0605012150    0.0190753430    0.0003658875    
0.0607238760    0.0199671800    0.0003716151    
0.0609465370    0.0193554310    0.0003687585    
0.0611691980    0.0200370440    0.0003757900    
0.0613918590    0.0199397730    0.0003707841    
0.0616145200    0.0194421600    0.0003688079    
0.0618371810    0.0190758570    0.0003617292    
0.0620598420    0.0192664270    0.0003639064    
0.0622825030    0.0198035250    0.0003745860    
0.0625051640    0.0194302550    0.0003658280    
0.0627278250    0.0188907380    0.0003599706    
0.0629504860    0.0198467700    0.0003659673    
0.0631731470    0.0201610790    0.0003734173    
0.0633958080    0.0195752600    0.0003700698    
0.0636184690    0.0200020480    0.0003792923    
0.0638411300    0.0199092700    0.0003769911    
0.0640637910    0.0191550990    0.0003723827    
0.0642864520    0.0192524870    0.0003725203    
0.0645091130    0.0195400440    0.0003785807    
0.0647317740    0.0195022920    0.0003786318    
0.0649544350    0.0195327540    0.0003785105    
0.0651770960    0.0192694470    0.0003738998    
0.0653997570    0.0195543670    0.0003758371    
0.0656224180    0.0191679210    0.0003729139    
0.0658450790    0.0193115720    0.0003689286    
0.0660677400    0.0195687050    0.0003729572    
0.0662904010    0.0204681730    0.0003859859    
0.0665130620    0.0191653100    0.0003718791    
0.0667357230    0.0197108580    0.0003838402    
0.0669583840    0.0186139600    0.0003717591    
0.0671810450    0.0197380710    0.0003807063    
0.0674037060    0.0198809410    0.0003885546    
0.0676263670    0.0195235460    0.0003822273    
0.0678490280    0.0201207620    0.0003856562    
0.0680716890    0.0190001630    0.0003755971    
0.0682943500    0.0196611750    0.0003778900    
0.0685170110    0.0192269400    0.0003698857    
0.0687396720    0.0188347090    0.0003651207    
0.0689623330    0.0198900820    0.0003740217    
0.0691849940    0.0197387890    0.0003751781    
0.0694076550    0.0196108730    0.0003737609    
0.0696303160    0.0192595100    0.0003674649    
0.0698529770    0.0193464280    0.0003675213    
0.0700756380    0.0195060700    0.0003642973    
0.0702982990    0.0203017260    0.0003757003    
0.0705209600    0.0187898740    0.0003588311    
0.0707436210    0.0190658170    0.0003597964    
0.0709662820    0.0200515060    0.0003733786    
0.0711889430    0.0198197230    0.0003666549    
0.0714116040    0.0197440830    0.0003667016    
0.0716342650    0.0190571490    0.0003588033    
0.0718569260    0.0194333410    0.0003608681    
0.0720795870    0.0201718510    0.0003691483    
0.0723022480    0.0189120410    0.0003579798    
0.0725249090    0.0193415400    0.0003576863    
0.0727475700    0.0192965770    0.0003603219    
0.0729702310    0.0196852430    0.0003610300    
0.0731928920    0.0191754710    0.0003577488    
0.0734155530    0.0188862950    0.0003543326    
0.0736382140    0.0198062640    0.0003605313    
0.0738608750    0.0195843610    0.0003608220    
0.0740835360    0.0190175900    0.0003546799    
0.0743061970    0.0190451790    0.0003499391    
0.0745288580    0.0191829080    0.0003548134    
0.0747515190    0.0190281510    0.0003540772    
0.0749741800    0.0198028180    0.0003578693    
0.0751968410    0.0196091760    0.0003589113    
0.0754195020    0.0198150750    0.0003586769    
0.0756421630    0.0199267430    0.0003567459    
0.0758648240    0.0198750610    0.0003571395    
0.0760874850    0.0192981890    0.0003517494    
0.0763101460    0.0192803720    0.0003512496    
0.0765328070    0.0197161420    0.0003588314    
0.0767554680    0.0194494770    0.0003539781    
0.0769781290    0.0188826850    0.0003467779    
0.0772007900    0.0197466360    0.0003517782    
0.0774234510    0.0198578210    0.0003547737    
0.0776461120    0.0190483640    0.0003471381    
0.0778687730    0.0195448860    0.0003504717    
0.0780914340    0.0198506930    0.0003557266    
0.0783140950    0.0195344900    0.0003472832    
0.0785367560    0.0191112850    0.0003490391    
0.0787594170    0.0193150620    0.0003477511    
0.0789820780    0.0198860540    0.0003510458    
0.0792047390    0.0191804680    0.0003458889    
0.0794274000    0.0199157850    0.0003539500    
0.0796500610    0.0195535930    0.0003472937    
0.0798727220    0.0194620980    0.0003461604    
0.0800953830    0.0199058790    0.0003492797    
0.0803180440    0.0195192480    0.0003482805    
0.0805407050    0.0201900780    0.0003538853    
0.0807633660    0.0202021440    0.0003536624    
0.0809860270    0.0196353130    0.0003473781    
0.0812086880    0.0193396940    0.0003417739    
0.0814313490    0.0190959400    0.0003411621    
0.0816540100    0.0193913340    0.0003430080    
0.0818766710    0.0193398000    0.0003433341    
0.0820993320    0.0195062170    0.0003441797    
0.0823219930    0.0192204670    0.0003430586    
0.0825446540    0.0196844280    0.0003446520    
0.0827673150    0.0189207190    0.0003356299    
0.0829899760    0.0192686870    0.0003380992    
0.0832126370    0.0193399270    0.0003402408    
0.0834352980    0.0196706690    0.0003423705    
0.0836579590    0.0200222000    0.0003446473    
0.0838806200    0.0197238570    0.0003431404    
0.0841032810    0.0193441320    0.0003377117    
0.0843259420    0.0192954870    0.0003362481    
0.0845486030    0.0196119320    0.0003389944    
0.0847712640    0.0195067540    0.0003360238    
0.0849939250    0.0196793050    0.0003380945    
0.0852165860    0.0191019300    0.0003335342    
0.0854392470    0.0189761270    0.0003292859    
0.0856619080    0.0190073390    0.0003319838    
0.0858845690    0.0192188660    0.0003308193    
0.0861072300    0.0194620380    0.0003352038    
0.0863298910    0.0197830740    0.0003397269    
0.0865525520    0.0196206400    0.0003354078    
0.0867752130    0.0191755230    0.0003289059    
0.0869978740    0.0195965950    0.0003333449    
0.0872205350    0.0196825030    0.0003336497    
0.0874431960    0.0194789210    0.0003319199    
0.0876658570    0.0198168710    0.0003360723    
0.0878885180    0.0193644560    0.0003327835    
0.0881111790    0.0194459900    0.0003330555    
0.0883338400    0.0195287340    0.0003288766    
0.0885565010    0.0200619730    0.0003378567    
0.0887791620    0.0192512440    0.0003266679    
0.0890018230    0.0195699990    0.0003325558    
0.0892244840    0.0189391350    0.0003277079    
0.0894471450    0.0193754710    0.0003300613    
0.0896698060    0.0193021210    0.0003281933    
0.0898924670    0.0195715930    0.0003320082    
0.0901151280    0.0202036980    0.0003336834    
0.0903377890    0.0197083320    0.0003323255    
0.0905604500    0.0191558420    0.0003261307    
0.0907831110    0.0196020820    0.0003290868    
0.0910057720    0.0193363490    0.0003283484    
0.0912284330    0.0192416440    0.0003228537    
0.0914510940    0.0191303900    0.0003255087    
0.0916737550    0.0196307650    0.0003289200    
0.0918964160    0.0192553480    0.0003271145    
0.0921190770    0.0194162270    0.0003255082    
0.0923417380    0.0196724680    0.0003277834    
0.0925643990    0.0196523910    0.0003268144    
0.0927870600    0.0194577370    0.0003265254    
0.0930097210    0.0196448210    0.0003252971    
0.0932323820    0.0195028770    0.0003265023    
