# Diamond Light Source Ltd.
# Data extracted from: /dls/b21/data/2018/cm19678-3/processed/b21-386631_00037.dat
q(1/A)          Column          Error           
0.0035000000    2.1086525000    0.0247171840    
0.0037226610    1.8822409000    0.0228608510    
0.0039453220    1.6310184000    0.0193593540    
0.0041679830    1.3039320000    0.0142152230    
0.0043906440    0.9578835300    0.0116538090    
0.0046133050    0.7826680500    0.0101126320    
0.0048359660    0.6053522900    0.0084125404    
0.0050586270    0.4513303100    0.0071397295    
0.0052812880    0.4205253100    0.0065160534    
0.0055039490    0.3832134000    0.0059145195    
0.0057266100    0.3202889800    0.0052309946    
0.0059492710    0.2730444600    0.0048298093    
0.0061719320    0.2233956000    0.0042097692    
0.0063945930    0.1980445800    0.0040117624    
0.0066172539    0.1807821900    0.0035991257    
0.0068399149    0.1680524900    0.0034154471    
0.0070625759    0.1434755300    0.0031234647    
0.0072852369    0.1329459700    0.0029616768    
0.0075078979    0.1190989900    0.0027894253    
0.0077305589    0.1014657100    0.0025256172    
0.0079532199    0.0966556070    0.0024308666    
0.0081758809    0.0891204970    0.0023559051    
0.0083985419    0.0808865860    0.0020933729    
0.0086212029    0.0764982430    0.0020357953    
0.0088438639    0.0689836560    0.0019176929    
0.0090665249    0.0651461140    0.0017999186    
0.0092891859    0.0635499160    0.0018555214    
0.0095118469    0.0621286900    0.0017643362    
0.0097345079    0.0577057090    0.0016514330    
0.0099571689    0.0558490360    0.0015911471    
0.0101798300    0.0500012160    0.0015055418    
0.0104024910    0.0454309600    0.0014302315    
0.0106251520    0.0462386750    0.0014477891    
0.0108478130    0.0459587950    0.0014056584    
0.0110704740    0.0439188050    0.0013082434    
0.0112931350    0.0435499780    0.0013065647    
0.0115157960    0.0396341980    0.0012391739    
0.0117384570    0.0387262890    0.0012143543    
0.0119611180    0.0358467400    0.0011716874    
0.0121837790    0.0375395110    0.0011788801    
0.0124064400    0.0358690310    0.0011043161    
0.0126291010    0.0349767740    0.0010768458    
0.0128517620    0.0349184320    0.0010786340    
0.0130744230    0.0360765670    0.0010882442    
0.0132970840    0.0319863650    0.0010196881    
0.0135197450    0.0333507200    0.0010262975    
0.0137424060    0.0325207150    0.0009993373    
0.0139650670    0.0291505900    0.0009250660    
0.0141877280    0.0298987880    0.0009389330    
0.0144103890    0.0301296440    0.0009262989    
0.0146330500    0.0298044990    0.0009154379    
0.0148557110    0.0282725170    0.0008878620    
0.0150783720    0.0282459040    0.0008801098    
0.0153010330    0.0284679300    0.0008711045    
0.0155236940    0.0273665330    0.0008490084    
0.0157463550    0.0266299450    0.0008229945    
0.0159690160    0.0269835310    0.0008252964    
0.0161916770    0.0246088200    0.0007837045    
0.0164143380    0.0257939160    0.0008084318    
0.0166369990    0.0267744080    0.0007982586    
0.0168596600    0.0246445710    0.0007591034    
0.0170823210    0.0248630790    0.0007558598    
0.0173049820    0.0249260600    0.0007581249    
0.0175276430    0.0254780820    0.0007745565    
0.0177503040    0.0242179980    0.0007359088    
0.0179729650    0.0245730020    0.0007339313    
0.0181956260    0.0247997080    0.0007231742    
0.0184182870    0.0254647540    0.0007293528    
0.0186409480    0.0225725420    0.0006910322    
0.0188636090    0.0237726900    0.0007047048    
0.0190862700    0.0231986180    0.0006950555    
0.0193089310    0.0230225570    0.0006913338    
0.0195315920    0.0237497600    0.0006782878    
0.0197542530    0.0232555910    0.0006721718    
0.0199769140    0.0233138840    0.0006730139    
0.0201995750    0.0226835720    0.0006534584    
0.0204222360    0.0217342390    0.0006451289    
0.0206448970    0.0217661980    0.0006410146    
0.0208675580    0.0230701140    0.0006463459    
0.0210902190    0.0228529220    0.0006495034    
0.0213128800    0.0221830630    0.0006312306    
0.0215355410    0.0215349260    0.0006145316    
0.0217582020    0.0225520570    0.0006288769    
0.0219808630    0.0216883080    0.0006159066    
0.0222035240    0.0225679840    0.0006225799    
0.0224261850    0.0219487350    0.0006085144    
0.0226488460    0.0214707700    0.0005973328    
0.0228715070    0.0221910130    0.0006057604    
0.0230941680    0.0215461260    0.0005968937    
0.0233168290    0.0211716670    0.0005931579    
0.0235394900    0.0215683660    0.0005920819    
0.0237621510    0.0203457600    0.0005595749    
0.0239848120    0.0209173420    0.0005680370    
0.0242074730    0.0214035270    0.0005700012    
0.0244301340    0.0219544800    0.0005779496    
0.0246527950    0.0201313000    0.0005585567    
0.0248754560    0.0203472410    0.0005489239    
0.0250981170    0.0212859540    0.0005626953    
0.0253207780    0.0204538450    0.0005351184    
0.0255434390    0.0213360880    0.0005523704    
0.0257661000    0.0214023800    0.0005550174    
0.0259887610    0.0210626180    0.0005447431    
0.0262114220    0.0211737410    0.0005490882    
0.0264340830    0.0202828360    0.0005301004    
0.0266567440    0.0207308240    0.0005326111    
0.0268794050    0.0212134150    0.0005365758    
0.0271020660    0.0214054930    0.0005368175    
0.0273247270    0.0207368080    0.0005251929    
0.0275473880    0.0212108010    0.0005301044    
0.0277700490    0.0209869670    0.0005241830    
0.0279927100    0.0199405030    0.0005064893    
0.0282153710    0.0209402590    0.0005215543    
0.0284380320    0.0202102630    0.0005094125    
0.0286606930    0.0206987800    0.0005111199    
0.0288833540    0.0204480940    0.0005089804    
0.0291060150    0.0204472390    0.0005084868    
0.0293286760    0.0197707090    0.0004930367    
0.0295513370    0.0206897100    0.0004988732    
0.0297739980    0.0203854910    0.0005006439    
0.0299966590    0.0202058730    0.0004899203    
0.0302193200    0.0203955750    0.0004993878    
0.0304419810    0.0205566160    0.0005022781    
0.0306646420    0.0194821440    0.0004751742    
0.0308873030    0.0205091350    0.0004854318    
0.0311099640    0.0195763280    0.0004754955    
0.0313326250    0.0204213290    0.0004802693    
0.0315552860    0.0204673070    0.0004870408    
0.0317779470    0.0210602470    0.0004944756    
0.0320006080    0.0202139190    0.0004734315    
0.0322232690    0.0196455450    0.0004686819    
0.0324459300    0.0198049220    0.0004670660    
0.0326685910    0.0208814620    0.0004788017    
0.0328912520    0.0199369420    0.0004693970    
0.0331139130    0.0208534810    0.0004738204    
0.0333365740    0.0212383510    0.0004797255    
0.0335592350    0.0195139520    0.0004554166    
0.0337818960    0.0205864970    0.0004673923    
0.0340045570    0.0201509280    0.0004616869    
0.0342272170    0.0202126580    0.0004605696    
0.0344498780    0.0208808290    0.0004699744    
0.0346725390    0.0204814040    0.0004568374    
0.0348952000    0.0208404670    0.0004587252    
0.0351178610    0.0201757360    0.0004534160    
0.0353405220    0.0204668990    0.0004545955    
0.0355631830    0.0197317940    0.0004446760    
0.0357858440    0.0200324430    0.0004480511    
0.0360085050    0.0202343360    0.0004516638    
0.0362311660    0.0198447290    0.0004419773    
0.0364538270    0.0204089050    0.0004446184    
0.0366764880    0.0200407710    0.0004402705    
0.0368991490    0.0200115730    0.0004377318    
0.0371218100    0.0204303660    0.0004410230    
0.0373444710    0.0201286510    0.0004425215    
0.0375671320    0.0195365450    0.0004353294    
0.0377897930    0.0192192860    0.0004206027    
0.0380124540    0.0207008480    0.0004392521    
0.0382351150    0.0203094000    0.0004350794    
0.0384577760    0.0199468090    0.0004270179    
0.0386804370    0.0201039090    0.0004319677    
0.0389030980    0.0190052580    0.0004168181    
0.0391257590    0.0202991640    0.0004278489    
0.0393484200    0.0196432390    0.0004194631    
0.0395710810    0.0202710090    0.0004266872    
0.0397937420    0.0198488970    0.0004222214    
0.0400164030    0.0197753030    0.0004231524    
0.0402390640    0.0201601150    0.0004215605    
0.0404617250    0.0199665080    0.0004170564    
0.0406843860    0.0198046920    0.0004113499    
0.0409070470    0.0202020190    0.0004197836    
0.0411297080    0.0199926860    0.0004135631    
0.0413523690    0.0193649730    0.0004080681    
0.0415750300    0.0198790210    0.0004169608    
0.0417976910    0.0188474430    0.0003954976    
0.0420203520    0.0193990670    0.0004027512    
0.0422430130    0.0195546550    0.0004058940    
0.0424656740    0.0194510990    0.0003995489    
0.0426883350    0.0200259460    0.0004074221    
0.0429109960    0.0191253660    0.0003993997    
0.0431336570    0.0191739740    0.0003942726    
0.0433563180    0.0201412980    0.0004075816    
0.0435789790    0.0205282310    0.0004050135    
0.0438016400    0.0194839580    0.0003967241    
0.0440243010    0.0190510170    0.0003883114    
0.0442469620    0.0192239410    0.0003924071    
0.0444696230    0.0200247240    0.0003990605    
0.0446922840    0.0205858400    0.0004034113    
0.0449149450    0.0193080450    0.0003854677    
0.0451376060    0.0194014540    0.0003911711    
0.0453602670    0.0205953150    0.0003988016    
0.0455829280    0.0203088760    0.0003955607    
0.0458055890    0.0194395970    0.0003892593    
0.0460282500    0.0196354640    0.0003864979    
0.0462509110    0.0202635240    0.0003901885    
0.0464735720    0.0193160930    0.0003811727    
0.0466962330    0.0190139160    0.0003798986    
0.0469188940    0.0192911830    0.0003815737    
0.0471415550    0.0197796050    0.0003883583    
0.0473642160    0.0195335130    0.0003805310    
0.0475868770    0.0195894630    0.0003791825    
0.0478095380    0.0195784540    0.0003774171    
0.0480321990    0.0197812610    0.0003801980    
0.0482548600    0.0197034380    0.0003777962    
0.0484775210    0.0188406090    0.0003730997    
0.0487001820    0.0191467260    0.0003706126    
0.0489228430    0.0195417850    0.0003742154    
0.0491455040    0.0201628770    0.0003774867    
0.0493681650    0.0200364160    0.0003795348    
0.0495908260    0.0192427670    0.0003656841    
0.0498134870    0.0197808470    0.0003742910    
0.0500361480    0.0192536220    0.0003682923    
0.0502588090    0.0191867820    0.0003621437    
0.0504814700    0.0198811260    0.0003734574    
0.0507041310    0.0200413330    0.0003705010    
0.0509267920    0.0196204710    0.0003681068    
0.0511494530    0.0200751960    0.0003698652    
0.0513721140    0.0204234080    0.0003763445    
0.0515947750    0.0190819040    0.0003589514    
0.0518174360    0.0189527760    0.0003555799    
0.0520400970    0.0193816520    0.0003570873    
0.0522627580    0.0193310800    0.0003596519    
0.0524854190    0.0196399070    0.0003654608    
0.0527080800    0.0189299920    0.0003615729    
0.0529307410    0.0196938070    0.0003705275    
0.0531534020    0.0196198780    0.0003684850    
0.0533760630    0.0192832820    0.0003664540    
0.0535987240    0.0194348000    0.0003661733    
0.0538213850    0.0194147350    0.0003702245    
0.0540440460    0.0196230250    0.0003704436    
0.0542667070    0.0189585510    0.0003666270    
0.0544893680    0.0191065150    0.0003682510    
0.0547120290    0.0193496680    0.0003680480    
0.0549346900    0.0194821610    0.0003695003    
0.0551573510    0.0193194130    0.0003722852    
0.0553800120    0.0200360970    0.0003759045    
0.0556026730    0.0195088370    0.0003786161    
0.0558253340    0.0197622040    0.0003842577    
0.0560479950    0.0192915170    0.0003796543    
0.0562706560    0.0197425110    0.0003877795    
0.0564933170    0.0197846430    0.0003915641    
0.0567159780    0.0192222870    0.0003813315    
0.0569386390    0.0200563540    0.0003956266    
0.0571613000    0.0196801360    0.0003834601    
0.0573839610    0.0200233550    0.0003835779    
0.0576066220    0.0195432690    0.0003800007    
0.0578292830    0.0194802080    0.0003781317    
0.0580519440    0.0201271700    0.0003858499    
0.0582746050    0.0195687950    0.0003787824    
0.0584972660    0.0198849280    0.0003803682    
0.0587199270    0.0194148580    0.0003726055    
0.0589425880    0.0199022290    0.0003750467    
0.0591652490    0.0201371480    0.0003794737    
0.0593879100    0.0196630270    0.0003721949    
0.0596105710    0.0197832620    0.0003729373    
0.0598332320    0.0198654740    0.0003769058    
0.0600558930    0.0191893610    0.0003680745    
0.0602785540    0.0193178970    0.0003689148    
0.0605012150    0.0195522770    0.0003703641    
0.0607238760    0.0193997030    0.0003662278    
0.0609465370    0.0197625420    0.0003725467    
0.0611691980    0.0196491050    0.0003720647    
0.0613918590    0.0191328140    0.0003631359    
0.0616145200    0.0198754750    0.0003728254    
0.0618371810    0.0201383780    0.0003715973    
0.0620598420    0.0191836380    0.0003630557    
0.0622825030    0.0189461920    0.0003663195    
0.0625051640    0.0197672420    0.0003689177    
0.0627278250    0.0186916790    0.0003580019    
0.0629504860    0.0194750720    0.0003624563    
0.0631731470    0.0194414210    0.0003666235    
0.0633958080    0.0203861800    0.0003775866    
0.0636184690    0.0189951960    0.0003695535    
0.0638411300    0.0193024120    0.0003711316    
0.0640637910    0.0196472550    0.0003770656    
0.0642864520    0.0200090430    0.0003796981    
0.0645091130    0.0190928060    0.0003741530    
0.0647317740    0.0196493090    0.0003799851    
0.0649544350    0.0192908180    0.0003760886    
0.0651770960    0.0191752090    0.0003729146    
0.0653997570    0.0192365500    0.0003727006    
0.0656224180    0.0201108080    0.0003819043    
0.0658450790    0.0196002530    0.0003716063    
0.0660677400    0.0190355780    0.0003677729    
0.0662904010    0.0194345780    0.0003760436    
0.0665130620    0.0193240410    0.0003733461    
0.0667357230    0.0189712340    0.0003764993    
0.0669583840    0.0191784900    0.0003772838    
0.0671810450    0.0192535670    0.0003759344    
0.0674037060    0.0191599390    0.0003813726    
0.0676263670    0.0198752980    0.0003855830    
0.0678490280    0.0198841710    0.0003833104    
0.0680716890    0.0194606440    0.0003800501    
0.0682943500    0.0193634040    0.0003749473    
0.0685170110    0.0195896300    0.0003732882    
0.0687396720    0.0191602070    0.0003681933    
0.0689623330    0.0193764340    0.0003690917    
0.0691849940    0.0188260970    0.0003663330    
0.0694076550    0.0195180850    0.0003728058    
0.0696303160    0.0196798210    0.0003713835    
0.0698529770    0.0195904370    0.0003697626    
0.0700756380    0.0196347940    0.0003654290    
0.0702982990    0.0197937260    0.0003709006    
0.0705209600    0.0201391540    0.0003714219    
0.0707436210    0.0196627510    0.0003653171    
0.0709662820    0.0196826000    0.0003698587    
0.0711889430    0.0197919660    0.0003663295    
0.0714116040    0.0189469550    0.0003591558    
0.0716342650    0.0198941350    0.0003665293    
0.0718569260    0.0194260700    0.0003607331    
0.0720795870    0.0193674560    0.0003616455    
0.0723022480    0.0197719790    0.0003659595    
0.0725249090    0.0189706280    0.0003541738    
0.0727475700    0.0192759050    0.0003600615    
0.0729702310    0.0196116890    0.0003602875    
0.0731928920    0.0195752810    0.0003613915    
0.0734155530    0.0192181370    0.0003573651    
0.0736382140    0.0193789970    0.0003565546    
0.0738608750    0.0199292340    0.0003639170    
0.0740835360    0.0196254220    0.0003602360    
0.0743061970    0.0195008270    0.0003540342    
0.0745288580    0.0191757300    0.0003546807    
0.0747515190    0.0194162050    0.0003576025    
0.0749741800    0.0196467170    0.0003563893    
0.0751968410    0.0199039110    0.0003615309    
0.0754195020    0.0201191840    0.0003613512    
0.0756421630    0.0198107520    0.0003556396    
0.0758648240    0.0188219600    0.0003474840    
0.0760874850    0.0195152820    0.0003536561    
0.0763101460    0.0195354210    0.0003534990    
0.0765328070    0.0192126190    0.0003541534    
0.0767554680    0.0190686820    0.0003504302    
0.0769781290    0.0193085180    0.0003506007    
0.0772007900    0.0191315970    0.0003461917    
0.0774234510    0.0197300090    0.0003535639    
0.0776461120    0.0194649380    0.0003508478    
0.0778687730    0.0196632170    0.0003514653    
0.0780914340    0.0193016220    0.0003507068    
0.0783140950    0.0198110770    0.0003496677    
0.0785367560    0.0192315810    0.0003500704    
0.0787594170    0.0195206280    0.0003495313    
0.0789820780    0.0197051630    0.0003493801    
0.0792047390    0.0194788170    0.0003485034    
0.0794274000    0.0193046700    0.0003484121    
0.0796500610    0.0190159990    0.0003424222    
0.0798727220    0.0193501870    0.0003450992    
0.0800953830    0.0198494200    0.0003487188    
0.0803180440    0.0194311880    0.0003474289    
0.0805407050    0.0194074660    0.0003468939    
0.0807633660    0.0192105400    0.0003448091    
0.0809860270    0.0194743830    0.0003458869    
0.0812086880    0.0191030280    0.0003396127    
0.0814313490    0.0195579420    0.0003451999    
0.0816540100    0.0200755000    0.0003489413    
0.0818766710    0.0190583860    0.0003407632    
0.0820993320    0.0191893160    0.0003413086    
0.0823219930    0.0196417330    0.0003467328    
0.0825446540    0.0200812210    0.0003480433    
0.0827673150    0.0192826280    0.0003387613    
0.0829899760    0.0192733380    0.0003380767    
0.0832126370    0.0197395680    0.0003436738    
0.0834352980    0.0195084330    0.0003408919    
0.0836579590    0.0192200510    0.0003376098    
0.0838806200    0.0194479420    0.0003406681    
0.0841032810    0.0200618070    0.0003438549    
0.0843259420    0.0198681460    0.0003411375    
0.0845486030    0.0198213160    0.0003407354    
0.0847712640    0.0201243640    0.0003412380    
0.0849939250    0.0191145310    0.0003331453    
0.0852165860    0.0195779740    0.0003376015    
0.0854392470    0.0198315150    0.0003365627    
0.0856619080    0.0195045050    0.0003362346    
0.0858845690    0.0199402960    0.0003369082    
0.0861072300    0.0198125710    0.0003381458    
0.0863298910    0.0195423990    0.0003375908    
0.0865525520    0.0191490440    0.0003312904    
0.0867752130    0.0193600880    0.0003304231    
0.0869978740    0.0199803680    0.0003365301    
0.0872205350    0.0193867960    0.0003310719    
0.0874431960    0.0193189810    0.0003304926    
0.0876658570    0.0193308840    0.0003318637    
0.0878885180    0.0185168360    0.0003253579    
0.0881111790    0.0194159060    0.0003327355    
0.0883338400    0.0199145130    0.0003320469    
0.0885565010    0.0199577780    0.0003369151    
0.0887791620    0.0198147680    0.0003313525    
0.0890018230    0.0190203680    0.0003277912    
0.0892244840    0.0194591990    0.0003321147    
0.0894471450    0.0188455160    0.0003254552    
0.0896698060    0.0196909500    0.0003314205    
0.0898924670    0.0198908110    0.0003346422    
0.0901151280    0.0195515810    0.0003281927    
0.0903377890    0.0195329090    0.0003307813    
0.0905604500    0.0193484870    0.0003277052    
0.0907831110    0.0194345870    0.0003276164    
0.0910057720    0.0187940520    0.0003236508    
0.0912284330    0.0198138610    0.0003275578    
0.0914510940    0.0199758600    0.0003325617    
0.0916737550    0.0199264210    0.0003313256    
0.0918964160    0.0191148230    0.0003258577    
0.0921190770    0.0194526020    0.0003257520    
0.0923417380    0.0192720230    0.0003243695    
0.0925643990    0.0197645590    0.0003276844    
0.0927870600    0.0194175920    0.0003261274    
0.0930097210    0.0196374710    0.0003251754    
0.0932323820    0.0190857800    0.0003229316    
