# Diamond Light Source Ltd.
# Data extracted from: /dls/b21/data/2018/cm19678-3/processed/b21-386631_00050.dat
q(1/A)          Column          Error           
0.0035000000    2.0563377000    0.0244197210    
0.0037226610    1.8842272000    0.0228832870    
0.0039453220    1.6640079000    0.0195630300    
0.0041679830    1.3020132000    0.0142112050    
0.0043906440    0.9684028800    0.0117229410    
0.0046133050    0.7801088800    0.0101006660    
0.0048359660    0.5960724800    0.0083515983    
0.0050586270    0.4720885800    0.0073053874    
0.0052812880    0.4331350100    0.0066160260    
0.0055039490    0.3702215300    0.0058160343    
0.0057266100    0.3143373900    0.0051845169    
0.0059492710    0.2683326600    0.0047901273    
0.0061719320    0.2185165700    0.0041654331    
0.0063945930    0.1987937100    0.0040211663    
0.0066172539    0.1856079800    0.0036485014    
0.0068399149    0.1702198600    0.0034389605    
0.0070625759    0.1496630500    0.0031915524    
0.0072852369    0.1296987000    0.0029266101    
0.0075078979    0.1172453600    0.0027688889    
0.0077305589    0.1017465700    0.0025302577    
0.0079532199    0.0991297900    0.0024628994    
0.0081758809    0.0911961030    0.0023842628    
0.0083985419    0.0832917330    0.0021252317    
0.0086212029    0.0751577870    0.0020187957    
0.0088438639    0.0708071060    0.0019437544    
0.0090665249    0.0632640160    0.0017745326    
0.0092891859    0.0632822360    0.0018524495    
0.0095118469    0.0598782120    0.0017328727    
0.0097345079    0.0572850440    0.0016461491    
0.0099571689    0.0563534560    0.0015990416    
0.0101798300    0.0524967480    0.0015433546    
0.0104024910    0.0465087250    0.0014477534    
0.0106251520    0.0473695980    0.0014660522    
0.0108478130    0.0449247230    0.0013903853    
0.0110704740    0.0450508060    0.0013255972    
0.0112931350    0.0430009870    0.0012988923    
0.0115157960    0.0402906220    0.0012499603    
0.0117384570    0.0378085990    0.0012004242    
0.0119611180    0.0382175610    0.0012103623    
0.0121837790    0.0365731010    0.0011641346    
0.0124064400    0.0355953160    0.0011005937    
0.0126291010    0.0346103180    0.0010716758    
0.0128517620    0.0360840030    0.0010969860    
0.0130744230    0.0315751110    0.0010185520    
0.0132970840    0.0337072660    0.0010472338    
0.0135197450    0.0306308510    0.0009840047    
0.0137424060    0.0326731780    0.0010021316    
0.0139650670    0.0295296400    0.0009314834    
0.0141877280    0.0297193360    0.0009365357    
0.0144103890    0.0299574630    0.0009240675    
0.0146330500    0.0277489690    0.0008837072    
0.0148557110    0.0277121200    0.0008794175    
0.0150783720    0.0283264360    0.0008817634    
0.0153010330    0.0271331100    0.0008508228    
0.0155236940    0.0259150320    0.0008265612    
0.0157463550    0.0271887240    0.0008319615    
0.0159690160    0.0268059040    0.0008229487    
0.0161916770    0.0270543010    0.0008220951    
0.0164143380    0.0264259870    0.0008186483    
0.0166369990    0.0259411500    0.0007860954    
0.0168596600    0.0260711290    0.0007811191    
0.0170823210    0.0261046270    0.0007748534    
0.0173049820    0.0247640490    0.0007560000    
0.0175276430    0.0244406200    0.0007589669    
0.0177503040    0.0244638010    0.0007399696    
0.0179729650    0.0247488880    0.0007368874    
0.0181956260    0.0233658100    0.0007022747    
0.0184182870    0.0233342560    0.0006984927    
0.0186409480    0.0236305720    0.0007073627    
0.0188636090    0.0252369770    0.0007264131    
0.0190862700    0.0243660660    0.0007126531    
0.0193089310    0.0244771750    0.0007131627    
0.0195315920    0.0215027640    0.0006456966    
0.0197542530    0.0227905510    0.0006657191    
0.0199769140    0.0226544380    0.0006637283    
0.0201995750    0.0217997620    0.0006408923    
0.0204222360    0.0231531180    0.0006661561    
0.0206448970    0.0224094880    0.0006507132    
0.0208675580    0.0223479340    0.0006364376    
0.0210902190    0.0223008980    0.0006419020    
0.0213128800    0.0220054350    0.0006289835    
0.0215355410    0.0229586720    0.0006348087    
0.0217582020    0.0219932930    0.0006213191    
0.0219808630    0.0218655500    0.0006186987    
0.0222035240    0.0219524140    0.0006143089    
0.0224261850    0.0213101030    0.0005998682    
0.0226488460    0.0221888560    0.0006075150    
0.0228715070    0.0214167160    0.0005953683    
0.0230941680    0.0226414830    0.0006121556    
0.0233168290    0.0217065170    0.0006008760    
0.0235394900    0.0203190200    0.0005749387    
0.0237621510    0.0217968080    0.0005794483    
0.0239848120    0.0215384780    0.0005766707    
0.0242074730    0.0219547280    0.0005775561    
0.0244301340    0.0207104580    0.0005615912    
0.0246527950    0.0210647550    0.0005716188    
0.0248754560    0.0213439730    0.0005624631    
0.0250981170    0.0215434870    0.0005663459    
0.0253207780    0.0198838800    0.0005278493    
0.0255434390    0.0208688010    0.0005465359    
0.0257661000    0.0212345260    0.0005530875    
0.0259887610    0.0203202530    0.0005352999    
0.0262114220    0.0215492620    0.0005541872    
0.0264340830    0.0211609970    0.0005417000    
0.0266567440    0.0202702750    0.0005269007    
0.0268794050    0.0218303890    0.0005445698    
0.0271020660    0.0204008360    0.0005243062    
0.0273247270    0.0214745540    0.0005346960    
0.0275473880    0.0206598510    0.0005234117    
0.0277700490    0.0203508060    0.0005164115    
0.0279927100    0.0217098070    0.0005287218    
0.0282153710    0.0206472160    0.0005181270    
0.0284380320    0.0217451090    0.0005286417    
0.0286606930    0.0204649130    0.0005084548    
0.0288833540    0.0207583090    0.0005130594    
0.0291060150    0.0210733150    0.0005164470    
0.0293286760    0.0204901160    0.0005021544    
0.0295513370    0.0217439120    0.0005116569    
0.0297739980    0.0206132020    0.0005036607    
0.0299966590    0.0212229390    0.0005023269    
0.0302193200    0.0200958810    0.0004959301    
0.0304419810    0.0201084910    0.0004969986    
0.0306646420    0.0202654340    0.0004848523    
0.0308873030    0.0204472480    0.0004849188    
0.0311099640    0.0197096950    0.0004773289    
0.0313326250    0.0204059480    0.0004803062    
0.0315552860    0.0203814810    0.0004862391    
0.0317779470    0.0211258430    0.0004954697    
0.0320006080    0.0201545770    0.0004729506    
0.0322232690    0.0200662670    0.0004738888    
0.0324459300    0.0198118720    0.0004673599    
0.0326685910    0.0200872530    0.0004698210    
0.0328912520    0.0211607460    0.0004838085    
0.0331139130    0.0210124910    0.0004758392    
0.0333365740    0.0202272830    0.0004683798    
0.0335592350    0.0206486700    0.0004686831    
0.0337818960    0.0194368460    0.0004543602    
0.0340045570    0.0199362920    0.0004594299    
0.0342272170    0.0202940280    0.0004617051    
0.0344498780    0.0212174060    0.0004739619    
0.0346725390    0.0199186490    0.0004507220    
0.0348952000    0.0193131190    0.0004417963    
0.0351178610    0.0196738980    0.0004479446    
0.0353405220    0.0201014350    0.0004507229    
0.0355631830    0.0203515220    0.0004518100    
0.0357858440    0.0197095930    0.0004446276    
0.0360085050    0.0194857820    0.0004434317    
0.0362311660    0.0205622720    0.0004501009    
0.0364538270    0.0197778610    0.0004378892    
0.0366764880    0.0204074740    0.0004444818    
0.0368991490    0.0200968200    0.0004388622    
0.0371218100    0.0201725720    0.0004384306    
0.0373444710    0.0198450570    0.0004395925    
0.0375671320    0.0203795560    0.0004448243    
0.0377897930    0.0206371040    0.0004360384    
0.0380124540    0.0195441860    0.0004269977    
0.0382351150    0.0195348700    0.0004268961    
0.0384577760    0.0195714700    0.0004231731    
0.0386804370    0.0202243450    0.0004334562    
0.0389030980    0.0196172460    0.0004236680    
0.0391257590    0.0202092750    0.0004270942    
0.0393484200    0.0194727950    0.0004178288    
0.0395710810    0.0192735880    0.0004162461    
0.0397937420    0.0203253790    0.0004274530    
0.0400164030    0.0196844970    0.0004223713    
0.0402390640    0.0201872350    0.0004220353    
0.0404617250    0.0194091560    0.0004113809    
0.0406843860    0.0192497080    0.0004057293    
0.0409070470    0.0198187410    0.0004159711    
0.0411297080    0.0200193940    0.0004140270    
0.0413523690    0.0202346230    0.0004173196    
0.0415750300    0.0195644240    0.0004138360    
0.0417976910    0.0196619930    0.0004041368    
0.0420203520    0.0189061490    0.0003977818    
0.0422430130    0.0199771740    0.0004104417    
0.0424656740    0.0203395070    0.0004087569    
0.0426883350    0.0200690110    0.0004080450    
0.0429109960    0.0189423640    0.0003976646    
0.0431336570    0.0195240810    0.0003980364    
0.0433563180    0.0201348120    0.0004077009    
0.0435789790    0.0202749310    0.0004026896    
0.0438016400    0.0195178120    0.0003972487    
0.0440243010    0.0204308950    0.0004023108    
0.0442469620    0.0199388880    0.0003998186    
0.0444696230    0.0198757420    0.0003977536    
0.0446922840    0.0195758800    0.0003935695    
0.0449149450    0.0198801490    0.0003913142    
0.0451376060    0.0196716680    0.0003940644    
0.0453602670    0.0193850510    0.0003870822    
0.0455829280    0.0196641260    0.0003894077    
0.0458055890    0.0195274550    0.0003903150    
0.0460282500    0.0200111720    0.0003903551    
0.0462509110    0.0196577400    0.0003844862    
0.0464735720    0.0201391920    0.0003893858    
0.0466962330    0.0200871940    0.0003906506    
0.0469188940    0.0196410790    0.0003851933    
0.0471415550    0.0195914920    0.0003866825    
0.0473642160    0.0196402800    0.0003817427    
0.0475868770    0.0197027440    0.0003804498    
0.0478095380    0.0189699600    0.0003716743    
0.0480321990    0.0193237990    0.0003759466    
0.0482548600    0.0198880810    0.0003797344    
0.0484775210    0.0202110270    0.0003866060    
0.0487001820    0.0195231160    0.0003744075    
0.0489228430    0.0193300000    0.0003723510    
0.0491455040    0.0200679980    0.0003767683    
0.0493681650    0.0196228550    0.0003757679    
0.0495908260    0.0190237400    0.0003637619    
0.0498134870    0.0192175250    0.0003690903    
0.0500361480    0.0198845570    0.0003744479    
0.0502588090    0.0198951910    0.0003689359    
0.0504814700    0.0200255580    0.0003749815    
0.0507041310    0.0196001960    0.0003665670    
0.0509267920    0.0189124710    0.0003615682    
0.0511494530    0.0194386410    0.0003641191    
0.0513721140    0.0197964090    0.0003706907    
0.0515947750    0.0185585510    0.0003541553    
0.0518174360    0.0194574150    0.0003604461    
0.0520400970    0.0192346190    0.0003558917    
0.0522627580    0.0195160580    0.0003615325    
0.0524854190    0.0197326060    0.0003664885    
0.0527080800    0.0196868110    0.0003688972    
0.0529307410    0.0203605970    0.0003769188    
0.0531534020    0.0194021710    0.0003666011    
0.0533760630    0.0194053380    0.0003677787    
0.0535987240    0.0196872220    0.0003687108    
0.0538213850    0.0200895230    0.0003767742    
0.0540440460    0.0186538930    0.0003613440    
0.0542667070    0.0192099390    0.0003692171    
0.0544893680    0.0198768750    0.0003757719    
0.0547120290    0.0195564180    0.0003701770    
0.0549346900    0.0198645890    0.0003732785    
0.0551573510    0.0197390520    0.0003764774    
0.0553800120    0.0198072210    0.0003739209    
0.0556026730    0.0190852650    0.0003746533    
0.0558253340    0.0194510950    0.0003813940    
0.0560479950    0.0195258970    0.0003821269    
0.0562706560    0.0194478600    0.0003850495    
0.0564933170    0.0194768230    0.0003886823    
0.0567159780    0.0200271920    0.0003894101    
0.0569386390    0.0196996240    0.0003922703    
0.0571613000    0.0203187020    0.0003898083    
0.0573839610    0.0207402230    0.0003905610    
0.0576066220    0.0195905880    0.0003806331    
0.0578292830    0.0199166450    0.0003825176    
0.0580519440    0.0200788040    0.0003855609    
0.0582746050    0.0197700200    0.0003808977    
0.0584972660    0.0192912480    0.0003748171    
0.0587199270    0.0198332960    0.0003767703    
0.0589425880    0.0196019640    0.0003723757    
0.0591652490    0.0201196370    0.0003794807    
0.0593879100    0.0198078010    0.0003737321    
0.0596105710    0.0197660340    0.0003729440    
0.0598332320    0.0196687790    0.0003752054    
0.0600558930    0.0194470390    0.0003707057    
0.0602785540    0.0200053290    0.0003755917    
0.0605012150    0.0192329720    0.0003674941    
0.0607238760    0.0193896310    0.0003662988    
0.0609465370    0.0202092670    0.0003769048    
0.0611691980    0.0191592230    0.0003675641    
0.0613918590    0.0191432810    0.0003634000    
0.0616145200    0.0199915120    0.0003740818    
0.0618371810    0.0198340950    0.0003689466    
0.0620598420    0.0194761360    0.0003659790    
0.0622825030    0.0198495270    0.0003751208    
0.0625051640    0.0193372430    0.0003650486    
0.0627278250    0.0191135630    0.0003621838    
0.0629504860    0.0197020560    0.0003647278    
0.0631731470    0.0197081860    0.0003692978    
0.0633958080    0.0199986890    0.0003741506    
0.0636184690    0.0198543950    0.0003779904    
0.0638411300    0.0199413110    0.0003773949    
0.0640637910    0.0194405500    0.0003752471    
0.0642864520    0.0202724050    0.0003823621    
0.0645091130    0.0194477180    0.0003777859    
0.0647317740    0.0192552660    0.0003763264    
0.0649544350    0.0201816400    0.0003848488    
0.0651770960    0.0202524170    0.0003834200    
0.0653997570    0.0192540090    0.0003730388    
0.0656224180    0.0200129180    0.0003811466    
0.0658450790    0.0194911100    0.0003707384    
0.0660677400    0.0199062860    0.0003762606    
0.0662904010    0.0199838570    0.0003814936    
0.0665130620    0.0193704590    0.0003739638    
0.0667357230    0.0197961530    0.0003847723    
0.0669583840    0.0193444720    0.0003790848    
0.0671810450    0.0198000220    0.0003814049    
0.0674037060    0.0193596800    0.0003835292    
0.0676263670    0.0195564160    0.0003826508    
0.0678490280    0.0194584670    0.0003793571    
0.0680716890    0.0199017480    0.0003845075    
0.0682943500    0.0196498560    0.0003778818    
0.0685170110    0.0195362140    0.0003729481    
0.0687396720    0.0191705150    0.0003684594    
0.0689623330    0.0199217960    0.0003744196    
0.0691849940    0.0202915610    0.0003804965    
0.0694076550    0.0195072910    0.0003728718    
0.0696303160    0.0199221570    0.0003738326    
0.0698529770    0.0191681330    0.0003659214    
0.0700756380    0.0196798440    0.0003660139    
0.0702982990    0.0192830080    0.0003662505    
0.0705209600    0.0202602760    0.0003727062    
0.0707436210    0.0193952730    0.0003629885    
0.0709662820    0.0196656820    0.0003698675    
0.0711889430    0.0192330730    0.0003612840    
0.0714116040    0.0201089510    0.0003701731    
0.0716342650    0.0196012740    0.0003639865    
0.0718569260    0.0190950550    0.0003578087    
0.0720795870    0.0195540110    0.0003635479    
0.0723022480    0.0194916170    0.0003635205    
0.0725249090    0.0198813140    0.0003627397    
0.0727475700    0.0191049090    0.0003586235    
0.0729702310    0.0193379940    0.0003579269    
0.0731928920    0.0195062340    0.0003609173    
0.0734155530    0.0193752580    0.0003589858    
0.0736382140    0.0194294160    0.0003571801    
0.0738608750    0.0197677360    0.0003626040    
0.0740835360    0.0190806760    0.0003553624    
0.0743061970    0.0202454850    0.0003608941    
0.0745288580    0.0198957220    0.0003614418    
0.0747515190    0.0192624290    0.0003563452    
0.0749741800    0.0197486680    0.0003574749    
0.0751968410    0.0192712740    0.0003559004    
0.0754195020    0.0196112720    0.0003569227    
0.0756421630    0.0192983470    0.0003511694    
0.0758648240    0.0201874410    0.0003600311    
0.0760874850    0.0199114660    0.0003573900    
0.0763101460    0.0196619930    0.0003548033    
0.0765328070    0.0194718200    0.0003566961    
0.0767554680    0.0197563510    0.0003568548    
0.0769781290    0.0196064070    0.0003534551    
0.0772007900    0.0197007320    0.0003514627    
0.0774234510    0.0192913160    0.0003497698    
0.0776461120    0.0195775490    0.0003520208    
0.0778687730    0.0189453810    0.0003451467    
0.0780914340    0.0197400920    0.0003548288    
0.0783140950    0.0193163440    0.0003454307    
0.0785367560    0.0203715770    0.0003604601    
0.0787594170    0.0193817380    0.0003484437    
0.0789820780    0.0196610450    0.0003491471    
0.0792047390    0.0194528090    0.0003484287    
0.0794274000    0.0198257000    0.0003532428    
0.0796500610    0.0196380760    0.0003481359    
0.0798727220    0.0193123070    0.0003449176    
0.0800953830    0.0194014100    0.0003449173    
0.0803180440    0.0202819890    0.0003551146    
0.0805407050    0.0190713320    0.0003440327    
0.0807633660    0.0193890350    0.0003465644    
0.0809860270    0.0199593760    0.0003503263    
0.0812086880    0.0199422280    0.0003471496    
0.0814313490    0.0198013320    0.0003474988    
0.0816540100    0.0201180030    0.0003494690    
0.0818766710    0.0192464380    0.0003425957    
0.0820993320    0.0189515340    0.0003393413    
0.0823219930    0.0187344760    0.0003387839    
0.0825446540    0.0192058700    0.0003405275    
0.0827673150    0.0192703450    0.0003388070    
0.0829899760    0.0196707110    0.0003416991    
0.0832126370    0.0199551190    0.0003457019    
0.0834352980    0.0195738360    0.0003416178    
0.0836579590    0.0191425240    0.0003370811    
0.0838806200    0.0199553680    0.0003452403    
0.0841032810    0.0189415180    0.0003342679    
0.0843259420    0.0192530090    0.0003359673    
0.0845486030    0.0196927390    0.0003397826    
0.0847712640    0.0189322180    0.0003311266    
0.0849939250    0.0191028220    0.0003331944    
0.0852165860    0.0200560660    0.0003418537    
0.0854392470    0.0195579460    0.0003343849    
0.0856619080    0.0198412920    0.0003392789    
0.0858845690    0.0196336350    0.0003344592    
0.0861072300    0.0189063210    0.0003304715    
0.0863298910    0.0199512220    0.0003412585    
0.0865525520    0.0195507850    0.0003348994    
0.0867752130    0.0200098470    0.0003360746    
0.0869978740    0.0194992490    0.0003326045    
0.0872205350    0.0197552430    0.0003343547    
0.0874431960    0.0192403130    0.0003299686    
0.0876658570    0.0196791710    0.0003349919    
0.0878885180    0.0189456270    0.0003292527    
0.0881111790    0.0203581180    0.0003408679    
0.0883338400    0.0194560230    0.0003283512    
0.0885565010    0.0196115550    0.0003341315    
0.0887791620    0.0194556190    0.0003284848    
0.0890018230    0.0194051520    0.0003312405    
0.0892244840    0.0201009370    0.0003376997    
0.0894471450    0.0190257630    0.0003271563    
0.0896698060    0.0190667490    0.0003262731    
0.0898924670    0.0190917720    0.0003280005    
0.0901151280    0.0194149320    0.0003271921    
0.0903377890    0.0193656150    0.0003295112    
0.0905604500    0.0189938380    0.0003248353    
0.0907831110    0.0190763380    0.0003247301    
0.0910057720    0.0189673110    0.0003252867    
0.0912284330    0.0193061020    0.0003234802    
0.0914510940    0.0197224540    0.0003305955    
0.0916737550    0.0189519680    0.0003232694    
0.0918964160    0.0196770580    0.0003307653    
0.0921190770    0.0191972590    0.0003237537    
0.0923417380    0.0197703870    0.0003286858    
0.0925643990    0.0194725460    0.0003254023    
0.0927870600    0.0192817080    0.0003251317    
0.0930097210    0.0194019900    0.0003233665    
0.0932323820    0.0191249780    0.0003234098    
