# Diamond Light Source Ltd.
# Data extracted from: /dls/b21/data/2018/cm19678-3/processed/b21-386631_00046.dat
q(1/A)          Column          Error           
0.0035000000    2.1111378000    0.0247446160    
0.0037226610    1.8697472000    0.0227967100    
0.0039453220    1.6591692000    0.0195358680    
0.0041679830    1.2860529000    0.0141247760    
0.0043906440    0.9676804100    0.0117193480    
0.0046133050    0.7957779000    0.0102022810    
0.0048359660    0.5900663800    0.0083099699    
0.0050586270    0.4516871000    0.0071462680    
0.0052812880    0.4341024000    0.0066238517    
0.0055039490    0.3856227000    0.0059361704    
0.0057266100    0.3201092800    0.0052322484    
0.0059492710    0.2736708000    0.0048378620    
0.0061719320    0.2340313200    0.0043110585    
0.0063945930    0.2030504300    0.0040642613    
0.0066172539    0.1839112500    0.0036320289    
0.0068399149    0.1667682200    0.0034041420    
0.0070625759    0.1497510700    0.0031927036    
0.0072852369    0.1225168800    0.0028446182    
0.0075078979    0.1122252500    0.0027091430    
0.0077305589    0.0987394240    0.0024927522    
0.0079532199    0.1028761700    0.0025091749    
0.0081758809    0.0870936030    0.0023301724    
0.0083985419    0.0828689690    0.0021199727    
0.0086212029    0.0743000690    0.0020073770    
0.0088438639    0.0731646460    0.0019759800    
0.0090665249    0.0639693930    0.0017845169    
0.0092891859    0.0648634490    0.0018755751    
0.0095118469    0.0623438370    0.0017683082    
0.0097345079    0.0575765420    0.0016504421    
0.0099571689    0.0528213920    0.0015482224    
0.0101798300    0.0524583680    0.0015428932    
0.0104024910    0.0478671040    0.0014688414    
0.0106251520    0.0481927390    0.0014788337    
0.0108478130    0.0482876050    0.0014415816    
0.0110704740    0.0456419660    0.0013343551    
0.0112931350    0.0428105210    0.0012960989    
0.0115157960    0.0401020770    0.0012471153    
0.0117384570    0.0395670950    0.0012281050    
0.0119611180    0.0384143440    0.0012135553    
0.0121837790    0.0355773640    0.0011482545    
0.0124064400    0.0364849580    0.0011143368    
0.0126291010    0.0350131870    0.0010779669    
0.0128517620    0.0339208160    0.0010636673    
0.0130744230    0.0321379560    0.0010276585    
0.0132970840    0.0321498260    0.0010228222    
0.0135197450    0.0315201550    0.0009982533    
0.0137424060    0.0320012350    0.0009918394    
0.0139650670    0.0307384300    0.0009504206    
0.0141877280    0.0299889480    0.0009408370    
0.0144103890    0.0300469800    0.0009255087    
0.0146330500    0.0269927070    0.0008716400    
0.0148557110    0.0264319000    0.0008589213    
0.0150783720    0.0291537650    0.0008946072    
0.0153010330    0.0287643970    0.0008760843    
0.0155236940    0.0273159230    0.0008486644    
0.0157463550    0.0266831290    0.0008242446    
0.0159690160    0.0253439260    0.0008002458    
0.0161916770    0.0249092650    0.0007888843    
0.0164143380    0.0271904360    0.0008304601    
0.0166369990    0.0248010440    0.0007686783    
0.0168596600    0.0249042900    0.0007634900    
0.0170823210    0.0248659600    0.0007562970    
0.0173049820    0.0255521500    0.0007679866    
0.0175276430    0.0235010100    0.0007442844    
0.0177503040    0.0248252260    0.0007454653    
0.0179729650    0.0241377710    0.0007277812    
0.0181956260    0.0230944940    0.0006982321    
0.0184182870    0.0247384460    0.0007192503    
0.0186409480    0.0230619390    0.0006988466    
0.0188636090    0.0234628530    0.0007004617    
0.0190862700    0.0245777780    0.0007157901    
0.0193089310    0.0246466890    0.0007156757    
0.0195315920    0.0236193490    0.0006767750    
0.0197542530    0.0233770430    0.0006742755    
0.0199769140    0.0228713920    0.0006669433    
0.0201995750    0.0246292890    0.0006812619    
0.0204222360    0.0221977530    0.0006523111    
0.0206448970    0.0233384550    0.0006641079    
0.0208675580    0.0224234220    0.0006375541    
0.0210902190    0.0222853920    0.0006417216    
0.0213128800    0.0227635580    0.0006397691    
0.0215355410    0.0223824230    0.0006268332    
0.0217582020    0.0213115860    0.0006116548    
0.0219808630    0.0205553070    0.0005999153    
0.0222035240    0.0219209550    0.0006139095    
0.0224261850    0.0222924610    0.0006135798    
0.0226488460    0.0211437750    0.0005930752    
0.0228715070    0.0226113860    0.0006117893    
0.0230941680    0.0213368150    0.0005942964    
0.0233168290    0.0215763260    0.0005991113    
0.0235394900    0.0207447590    0.0005809695    
0.0237621510    0.0205055970    0.0005620609    
0.0239848120    0.0220972550    0.0005841421    
0.0242074730    0.0211826790    0.0005673480    
0.0244301340    0.0219773350    0.0005785513    
0.0246527950    0.0206331810    0.0005657706    
0.0248754560    0.0211096320    0.0005594041    
0.0250981170    0.0204295820    0.0005515469    
0.0253207780    0.0208114850    0.0005400573    
0.0255434390    0.0219165940    0.0005601256    
0.0257661000    0.0213670290    0.0005548474    
0.0259887610    0.0210845450    0.0005453102    
0.0262114220    0.0196563460    0.0005293229    
0.0264340830    0.0215244080    0.0005463681    
0.0266567440    0.0199990180    0.0005233982    
0.0268794050    0.0209230130    0.0005331677    
0.0271020660    0.0208213310    0.0005297174    
0.0273247270    0.0210646460    0.0005296036    
0.0275473880    0.0199729680    0.0005146715    
0.0277700490    0.0201438240    0.0005138129    
0.0279927100    0.0212619630    0.0005232748    
0.0282153710    0.0212611460    0.0005258087    
0.0284380320    0.0208225610    0.0005173407    
0.0286606930    0.0221101060    0.0005285326    
0.0288833540    0.0202918280    0.0005072957    
0.0291060150    0.0210634670    0.0005163607    
0.0293286760    0.0203697680    0.0005007109    
0.0295513370    0.0207232900    0.0004995377    
0.0297739980    0.0210590390    0.0005091123    
0.0299966590    0.0209165980    0.0004987215    
0.0302193200    0.0197925530    0.0004922059    
0.0304419810    0.0202463110    0.0004987321    
0.0306646420    0.0200593060    0.0004824123    
0.0308873030    0.0204039670    0.0004844376    
0.0311099640    0.0206025570    0.0004880533    
0.0313326250    0.0206348030    0.0004830242    
0.0315552860    0.0194096550    0.0004745367    
0.0317779470    0.0200710650    0.0004829745    
0.0320006080    0.0197576700    0.0004683017    
0.0322232690    0.0194645240    0.0004667604    
0.0324459300    0.0206966290    0.0004777135    
0.0326685910    0.0202547840    0.0004718076    
0.0328912520    0.0207099830    0.0004786596    
0.0331139130    0.0197220430    0.0004610270    
0.0333365740    0.0208265740    0.0004752994    
0.0335592350    0.0204067120    0.0004659601    
0.0337818960    0.0200661730    0.0004616880    
0.0340045570    0.0206484080    0.0004675944    
0.0342272170    0.0200551060    0.0004590098    
0.0344498780    0.0203201750    0.0004638632    
0.0346725390    0.0213799570    0.0004669939    
0.0348952000    0.0194268780    0.0004431251    
0.0351178610    0.0201559390    0.0004534293    
0.0353405220    0.0200333610    0.0004499891    
0.0355631830    0.0202338550    0.0004505320    
0.0357858440    0.0202138050    0.0004503089    
0.0360085050    0.0203361400    0.0004530342    
0.0362311660    0.0201314430    0.0004453903    
0.0364538270    0.0199550320    0.0004398755    
0.0366764880    0.0196743440    0.0004364539    
0.0368991490    0.0199940660    0.0004377680    
0.0371218100    0.0202610320    0.0004394201    
0.0373444710    0.0188543430    0.0004285078    
0.0375671320    0.0196928300    0.0004372946    
0.0377897930    0.0198750750    0.0004279408    
0.0380124540    0.0197987080    0.0004297978    
0.0382351150    0.0201252780    0.0004333281    
0.0384577760    0.0193544550    0.0004208485    
0.0386804370    0.0203757020    0.0004351042    
0.0389030980    0.0204709100    0.0004328168    
0.0391257590    0.0196613090    0.0004212923    
0.0393484200    0.0202554820    0.0004261716    
0.0395710810    0.0200853250    0.0004249495    
0.0397937420    0.0196358010    0.0004201674    
0.0400164030    0.0201221960    0.0004270698    
0.0402390640    0.0204899510    0.0004252162    
0.0404617250    0.0194553460    0.0004118975    
0.0406843860    0.0198509680    0.0004120445    
0.0409070470    0.0202754410    0.0004207646    
0.0411297080    0.0200648820    0.0004145247    
0.0413523690    0.0195228600    0.0004099415    
0.0415750300    0.0200923220    0.0004194100    
0.0417976910    0.0197726160    0.0004052991    
0.0420203520    0.0194108920    0.0004030836    
0.0422430130    0.0193641650    0.0004041223    
0.0424656740    0.0200628830    0.0004059948    
0.0426883350    0.0196153230    0.0004034333    
0.0429109960    0.0191619750    0.0003999898    
0.0431336570    0.0203301510    0.0004061970    
0.0433563180    0.0193696460    0.0003999058    
0.0435789790    0.0190697750    0.0003905642    
0.0438016400    0.0201834930    0.0004039932    
0.0440243010    0.0200533110    0.0003986025    
0.0442469620    0.0199816390    0.0004002737    
0.0444696230    0.0195997600    0.0003950088    
0.0446922840    0.0206784940    0.0004045286    
0.0449149450    0.0200214630    0.0003927287    
0.0451376060    0.0193427020    0.0003907816    
0.0453602670    0.0194417480    0.0003876737    
0.0455829280    0.0198595590    0.0003913641    
0.0458055890    0.0194208210    0.0003892738    
0.0460282500    0.0196102120    0.0003864503    
0.0462509110    0.0202921400    0.0003906671    
0.0464735720    0.0197578640    0.0003857075    
0.0466962330    0.0198543260    0.0003884056    
0.0469188940    0.0193188220    0.0003820457    
0.0471415550    0.0194948740    0.0003857536    
0.0473642160    0.0199694140    0.0003849537    
0.0475868770    0.0195731200    0.0003792215    
0.0478095380    0.0193657770    0.0003755569    
0.0480321990    0.0201090860    0.0003835350    
0.0482548600    0.0197747100    0.0003786758    
0.0484775210    0.0199696480    0.0003843161    
0.0487001820    0.0196765250    0.0003759007    
0.0489228430    0.0190025960    0.0003692087    
0.0491455040    0.0195542270    0.0003719389    
0.0493681650    0.0199277340    0.0003787010    
0.0495908260    0.0198193270    0.0003713152    
0.0498134870    0.0198510670    0.0003751499    
0.0500361480    0.0190127350    0.0003661716    
0.0502588090    0.0196652000    0.0003668217    
0.0504814700    0.0188624900    0.0003639536    
0.0507041310    0.0199730620    0.0003700619    
0.0509267920    0.0201386600    0.0003731301    
0.0511494530    0.0191001580    0.0003609591    
0.0513721140    0.0194380560    0.0003673447    
0.0515947750    0.0200886260    0.0003684901    
0.0518174360    0.0198473390    0.0003640641    
0.0520400970    0.0191713260    0.0003553293    
0.0522627580    0.0193378080    0.0003599016    
0.0524854190    0.0192587040    0.0003620851    
0.0527080800    0.0203323840    0.0003749219    
0.0529307410    0.0199027290    0.0003726815    
0.0531534020    0.0194324690    0.0003669117    
0.0533760630    0.0200213940    0.0003735959    
0.0535987240    0.0186193710    0.0003585957    
0.0538213850    0.0187988940    0.0003644949    
0.0540440460    0.0195454460    0.0003699030    
0.0542667070    0.0193686420    0.0003707639    
0.0544893680    0.0193679720    0.0003709550    
0.0547120290    0.0195239860    0.0003698945    
0.0549346900    0.0196988710    0.0003717430    
0.0551573510    0.0197057770    0.0003761850    
0.0553800120    0.0189415040    0.0003656824    
0.0556026730    0.0195512130    0.0003792244    
0.0558253340    0.0196780680    0.0003836384    
0.0560479950    0.0195359800    0.0003822510    
0.0562706560    0.0197249400    0.0003878086    
0.0564933170    0.0194406310    0.0003883469    
0.0567159780    0.0198329710    0.0003875431    
0.0569386390    0.0194053890    0.0003893557    
0.0571613000    0.0191770690    0.0003787243    
0.0573839610    0.0198970870    0.0003825655    
0.0576066220    0.0195710110    0.0003804682    
0.0578292830    0.0195225300    0.0003787393    
0.0580519440    0.0188819240    0.0003739178    
0.0582746050    0.0196111860    0.0003793898    
0.0584972660    0.0193739380    0.0003756445    
0.0587199270    0.0204444050    0.0003825563    
0.0589425880    0.0195196780    0.0003716181    
0.0591652490    0.0194852200    0.0003734748    
0.0593879100    0.0196200250    0.0003719812    
0.0596105710    0.0196771800    0.0003721297    
0.0598332320    0.0201009080    0.0003793299    
0.0600558930    0.0194213620    0.0003704856    
0.0602785540    0.0204452530    0.0003797243    
0.0605012150    0.0195515640    0.0003705501    
0.0607238760    0.0195029490    0.0003673921    
0.0609465370    0.0194386340    0.0003696734    
0.0611691980    0.0195355620    0.0003711813    
0.0613918590    0.0200634530    0.0003720561    
0.0616145200    0.0189580640    0.0003643088    
0.0618371810    0.0196994610    0.0003677167    
0.0620598420    0.0197263440    0.0003683469    
0.0622825030    0.0194338600    0.0003711971    
0.0625051640    0.0195879440    0.0003674319    
0.0627278250    0.0190612000    0.0003617115    
0.0629504860    0.0198059750    0.0003657128    
0.0631731470    0.0194755020    0.0003671357    
0.0633958080    0.0192032620    0.0003666588    
0.0636184690    0.0190149700    0.0003699383    
0.0638411300    0.0202511300    0.0003803406    
0.0640637910    0.0192258190    0.0003731938    
0.0642864520    0.0188758290    0.0003689811    
0.0645091130    0.0192081000    0.0003754763    
0.0647317740    0.0195373580    0.0003790983    
0.0649544350    0.0199567990    0.0003827245    
0.0651770960    0.0195726860    0.0003769559    
0.0653997570    0.0197914810    0.0003782349    
0.0656224180    0.0201172250    0.0003821640    
0.0658450790    0.0199098190    0.0003747243    
0.0660677400    0.0198306980    0.0003755706    
0.0662904010    0.0198554150    0.0003802910    
0.0665130620    0.0193730410    0.0003740137    
0.0667357230    0.0193799290    0.0003807312    
0.0669583840    0.0199860090    0.0003853452    
0.0671810450    0.0193838300    0.0003774003    
0.0674037060    0.0196282260    0.0003862058    
0.0676263670    0.0197087860    0.0003841642    
0.0678490280    0.0196163950    0.0003809188    
0.0680716890    0.0194883330    0.0003805183    
0.0682943500    0.0196888150    0.0003782815    
0.0685170110    0.0200158960    0.0003775240    
0.0687396720    0.0198317690    0.0003747852    
0.0689623330    0.0196710860    0.0003720809    
0.0691849940    0.0193737460    0.0003718165    
0.0694076550    0.0195241480    0.0003730578    
0.0696303160    0.0195459620    0.0003703109    
0.0698529770    0.0192265800    0.0003665032    
0.0700756380    0.0193284420    0.0003627556    
0.0702982990    0.0191812200    0.0003653069    
0.0705209600    0.0198789750    0.0003692070    
0.0707436210    0.0200025550    0.0003686520    
0.0709662820    0.0193413100    0.0003668289    
0.0711889430    0.0201655180    0.0003699628    
0.0714116040    0.0193960370    0.0003635763    
0.0716342650    0.0197255670    0.0003651631    
0.0718569260    0.0197346350    0.0003637759    
0.0720795870    0.0194349380    0.0003624635    
0.0723022480    0.0196027060    0.0003645793    
0.0725249090    0.0196853890    0.0003609720    
0.0727475700    0.0194508250    0.0003618797    
0.0729702310    0.0196453570    0.0003607843    
0.0731928920    0.0192416820    0.0003584853    
0.0734155530    0.0196306240    0.0003613678    
0.0736382140    0.0189985790    0.0003532213    
0.0738608750    0.0195441970    0.0003605719    
0.0740835360    0.0194075610    0.0003584173    
0.0743061970    0.0194374850    0.0003536427    
0.0745288580    0.0202070300    0.0003642829    
0.0747515190    0.0194430110    0.0003580355    
0.0749741800    0.0197771870    0.0003577568    
0.0751968410    0.0191818130    0.0003550970    
0.0754195020    0.0199647150    0.0003601487    
0.0756421630    0.0194798700    0.0003528406    
0.0758648240    0.0195479520    0.0003543063    
0.0760874850    0.0196831570    0.0003553588    
0.0763101460    0.0196325980    0.0003545616    
0.0765328070    0.0194221360    0.0003562645    
0.0767554680    0.0193657400    0.0003533329    
0.0769781290    0.0194305830    0.0003518902    
0.0772007900    0.0194399780    0.0003491523    
0.0774234510    0.0194524510    0.0003512509    
0.0776461120    0.0194408890    0.0003508134    
0.0778687730    0.0202433830    0.0003567982    
0.0780914340    0.0193536100    0.0003513615    
0.0783140950    0.0194857280    0.0003469651    
0.0785367560    0.0196407160    0.0003539586    
0.0787594170    0.0197351690    0.0003516297    
0.0789820780    0.0193164050    0.0003460966    
0.0792047390    0.0202356160    0.0003553939    
0.0794274000    0.0195765550    0.0003510396    
0.0796500610    0.0192394860    0.0003446078    
0.0798727220    0.0193641700    0.0003454035    
0.0800953830    0.0195327840    0.0003461062    
0.0803180440    0.0195198200    0.0003484016    
0.0805407050    0.0196883600    0.0003495771    
0.0807633660    0.0195465050    0.0003479921    
0.0809860270    0.0193101650    0.0003446047    
0.0812086880    0.0193586280    0.0003420551    
0.0814313490    0.0194014270    0.0003439948    
0.0816540100    0.0198049720    0.0003467626    
0.0818766710    0.0190050370    0.0003404631    
0.0820993320    0.0194159100    0.0003434965    
0.0823219930    0.0191536230    0.0003425756    
0.0825446540    0.0196673550    0.0003446173    
0.0827673150    0.0192371680    0.0003385378    
0.0829899760    0.0200473290    0.0003449777    
0.0832126370    0.0191252070    0.0003384595    
0.0834352980    0.0198030390    0.0003436350    
0.0836579590    0.0195962470    0.0003410752    
0.0838806200    0.0191456100    0.0003381857    
0.0841032810    0.0194042230    0.0003383486    
0.0843259420    0.0193904360    0.0003371867    
0.0845486030    0.0194197820    0.0003374420    
0.0847712640    0.0190969240    0.0003325860    
0.0849939250    0.0197563570    0.0003388686    
0.0852165860    0.0195750450    0.0003377519    
0.0854392470    0.0191202840    0.0003306444    
0.0856619080    0.0192927160    0.0003345781    
0.0858845690    0.0190664250    0.0003296145    
0.0861072300    0.0187817430    0.0003294029    
0.0863298910    0.0199889090    0.0003416034    
0.0865525520    0.0199205910    0.0003380745    
0.0867752130    0.0191544320    0.0003288345    
0.0869978740    0.0196777460    0.0003341456    
0.0872205350    0.0198540920    0.0003352125    
0.0874431960    0.0194522860    0.0003318034    
0.0876658570    0.0191114730    0.0003301467    
0.0878885180    0.0193029660    0.0003323655    
0.0881111790    0.0197900220    0.0003361006    
0.0883338400    0.0193699420    0.0003276459    
0.0885565010    0.0189821890    0.0003287483    
0.0887791620    0.0194471190    0.0003284349    
0.0890018230    0.0205330720    0.0003407539    
0.0892244840    0.0194624350    0.0003323151    
0.0894471450    0.0193715060    0.0003301375    
0.0896698060    0.0194713370    0.0003297386    
0.0898924670    0.0197255340    0.0003334224    
0.0901151280    0.0195443610    0.0003283028    
0.0903377890    0.0188803470    0.0003253782    
0.0905604500    0.0188963600    0.0003240223    
0.0907831110    0.0194879910    0.0003282370    
0.0910057720    0.0191483800    0.0003268574    
0.0912284330    0.0195146640    0.0003252444    
0.0914510940    0.0195754410    0.0003293830    
0.0916737550    0.0193570780    0.0003267279    
0.0918964160    0.0194794930    0.0003291225    
0.0921190770    0.0191888970    0.0003237048    
0.0923417380    0.0191937130    0.0003238782    
0.0925643990    0.0186811270    0.0003187423    
0.0927870600    0.0189169070    0.0003220628    
0.0930097210    0.0196309640    0.0003252907    
0.0932323820    0.0195651040    0.0003271317    
