# Diamond Light Source Ltd.
# Data extracted from: /dls/b21/data/2018/cm19678-3/processed/b21-386631_00053.dat
q(1/A)          Column          Error           
0.0035000000    2.0693854000    0.0245004940    
0.0037226610    1.9203360000    0.0231047390    
0.0039453220    1.6012067000    0.0191929970    
0.0041679830    1.2815861000    0.0141012550    
0.0043906440    0.9480905600    0.0116009650    
0.0046133050    0.7803268400    0.0101034880    
0.0048359660    0.6027936700    0.0083997251    
0.0050586270    0.4537885100    0.0071633953    
0.0052812880    0.4269886800    0.0065698341    
0.0055039490    0.3807437900    0.0058989294    
0.0057266100    0.3260579300    0.0052810261    
0.0059492710    0.2688353000    0.0047952815    
0.0061719320    0.2288234500    0.0042631333    
0.0063945930    0.2055209500    0.0040892101    
0.0066172539    0.1896772100    0.0036887943    
0.0068399149    0.1675570400    0.0034124326    
0.0070625759    0.1476625100    0.0031705928    
0.0072852369    0.1256394300    0.0028808504    
0.0075078979    0.1172781200    0.0027696625    
0.0077305589    0.0998238370    0.0025065863    
0.0079532199    0.1006264900    0.0024817693    
0.0081758809    0.0875427910    0.0023363442    
0.0083985419    0.0810911030    0.0020972616    
0.0086212029    0.0757754440    0.0020273573    
0.0088438639    0.0753636540    0.0020056013    
0.0090665249    0.0598462580    0.0017261748    
0.0092891859    0.0631371930    0.0018505839    
0.0095118469    0.0632057190    0.0017806194    
0.0097345079    0.0556449490    0.0016226397    
0.0099571689    0.0511044450    0.0015229635    
0.0101798300    0.0516944700    0.0015317300    
0.0104024910    0.0477839370    0.0014676720    
0.0106251520    0.0456581700    0.0014395260    
0.0108478130    0.0434738010    0.0013679396    
0.0110704740    0.0431906300    0.0012981226    
0.0112931350    0.0424243200    0.0012903337    
0.0115157960    0.0403406690    0.0012509110    
0.0117384570    0.0395347500    0.0012276926    
0.0119611180    0.0372696570    0.0011954248    
0.0121837790    0.0404010320    0.0012237120    
0.0124064400    0.0361158530    0.0011087667    
0.0126291010    0.0351510720    0.0010801662    
0.0128517620    0.0355603460    0.0010891492    
0.0130744230    0.0342460550    0.0010609055    
0.0132970840    0.0330657830    0.0010373659    
0.0135197450    0.0335484140    0.0010299456    
0.0137424060    0.0322518720    0.0009957887    
0.0139650670    0.0307723100    0.0009510137    
0.0141877280    0.0291667400    0.0009279176    
0.0144103890    0.0297662510    0.0009212423    
0.0146330500    0.0306562580    0.0009289775    
0.0148557110    0.0279431850    0.0008831996    
0.0150783720    0.0270988410    0.0008625656    
0.0153010330    0.0288753470    0.0008778364    
0.0155236940    0.0274253950    0.0008504254    
0.0157463550    0.0274764330    0.0008364686    
0.0159690160    0.0255245310    0.0008031508    
0.0161916770    0.0245630730    0.0007834404    
0.0164143380    0.0274988230    0.0008352173    
0.0166369990    0.0255433260    0.0007801535    
0.0168596600    0.0251654340    0.0007675386    
0.0170823210    0.0247775670    0.0007550067    
0.0173049820    0.0247017110    0.0007551533    
0.0175276430    0.0237873440    0.0007488596    
0.0177503040    0.0240452540    0.0007337147    
0.0179729650    0.0235706840    0.0007192337    
0.0181956260    0.0245969060    0.0007206386    
0.0184182870    0.0248048030    0.0007202669    
0.0186409480    0.0228535050    0.0006957322    
0.0188636090    0.0228806680    0.0006917673    
0.0190862700    0.0235597500    0.0007008603    
0.0193089310    0.0224055750    0.0006824121    
0.0195315920    0.0226724560    0.0006631188    
0.0197542530    0.0220966720    0.0006555981    
0.0199769140    0.0221744850    0.0006567516    
0.0201995750    0.0236151540    0.0006671373    
0.0204222360    0.0226611200    0.0006591324    
0.0206448970    0.0226803540    0.0006547254    
0.0208675580    0.0225354770    0.0006391918    
0.0210902190    0.0214754630    0.0006299984    
0.0213128800    0.0213821670    0.0006200987    
0.0215355410    0.0224208070    0.0006274163    
0.0217582020    0.0202261390    0.0005959183    
0.0219808630    0.0215564550    0.0006143959    
0.0222035240    0.0211159720    0.0006025761    
0.0224261850    0.0220930290    0.0006108736    
0.0226488460    0.0221617800    0.0006072290    
0.0228715070    0.0211743680    0.0005920729    
0.0230941680    0.0208267130    0.0005871924    
0.0233168290    0.0202151620    0.0005799480    
0.0235394900    0.0213661540    0.0005896496    
0.0237621510    0.0215717720    0.0005765299    
0.0239848120    0.0216526040    0.0005782773    
0.0242074730    0.0204714750    0.0005577831    
0.0244301340    0.0213712440    0.0005705595    
0.0246527950    0.0208068700    0.0005681884    
0.0248754560    0.0214092420    0.0005634011    
0.0250981170    0.0214005810    0.0005645432    
0.0253207780    0.0223423250    0.0005596084    
0.0255434390    0.0210464390    0.0005489338    
0.0257661000    0.0203326240    0.0005412899    
0.0259887610    0.0210312030    0.0005446598    
0.0262114220    0.0206428910    0.0005424831    
0.0264340830    0.0207785260    0.0005368573    
0.0266567440    0.0212075360    0.0005390198    
0.0268794050    0.0209532450    0.0005335918    
0.0271020660    0.0210804640    0.0005330425    
0.0273247270    0.0197493250    0.0005128398    
0.0275473880    0.0208380580    0.0005257377    
0.0277700490    0.0202778450    0.0005155569    
0.0279927100    0.0198997770    0.0005062721    
0.0282153710    0.0210171430    0.0005228210    
0.0284380320    0.0204270880    0.0005124417    
0.0286606930    0.0204579940    0.0005084399    
0.0288833540    0.0206245820    0.0005114756    
0.0291060150    0.0203322530    0.0005073559    
0.0293286760    0.0194864360    0.0004897698    
0.0295513370    0.0202807190    0.0004942109    
0.0297739980    0.0203727650    0.0005007846    
0.0299966590    0.0199087540    0.0004865936    
0.0302193200    0.0198321700    0.0004927342    
0.0304419810    0.0208267650    0.0005058677    
0.0306646420    0.0203987340    0.0004865122    
0.0308873030    0.0199813230    0.0004794290    
0.0311099640    0.0201892920    0.0004831689    
0.0313326250    0.0201628650    0.0004775035    
0.0315552860    0.0205032100    0.0004877571    
0.0317779470    0.0187256560    0.0004665404    
0.0320006080    0.0205598600    0.0004777489    
0.0322232690    0.0212473040    0.0004877033    
0.0324459300    0.0201923610    0.0004718924    
0.0326685910    0.0196092300    0.0004642620    
0.0328912520    0.0197614490    0.0004676038    
0.0331139130    0.0198866040    0.0004629802    
0.0333365740    0.0199183200    0.0004648538    
0.0335592350    0.0203884110    0.0004657851    
0.0337818960    0.0200159830    0.0004611439    
0.0340045570    0.0202913470    0.0004635677    
0.0342272170    0.0198268800    0.0004564239    
0.0344498780    0.0204820010    0.0004657406    
0.0346725390    0.0198936090    0.0004505015    
0.0348952000    0.0203092080    0.0004531093    
0.0351178610    0.0198834320    0.0004503866    
0.0353405220    0.0204911980    0.0004551353    
0.0355631830    0.0205378040    0.0004539365    
0.0357858440    0.0202267900    0.0004504864    
0.0360085050    0.0201776090    0.0004512979    
0.0362311660    0.0202723580    0.0004469790    
0.0364538270    0.0195118500    0.0004349952    
0.0366764880    0.0194544930    0.0004340402    
0.0368991490    0.0198723650    0.0004364655    
0.0371218100    0.0199589830    0.0004361643    
0.0373444710    0.0189739800    0.0004298966    
0.0375671320    0.0197734010    0.0004382203    
0.0377897930    0.0197213140    0.0004263134    
0.0380124540    0.0202495150    0.0004346951    
0.0382351150    0.0197829490    0.0004296582    
0.0384577760    0.0199064240    0.0004268385    
0.0386804370    0.0199419260    0.0004304793    
0.0389030980    0.0190186690    0.0004172126    
0.0391257590    0.0193030390    0.0004174667    
0.0393484200    0.0196217220    0.0004194821    
0.0395710810    0.0193868780    0.0004175260    
0.0397937420    0.0195217730    0.0004189762    
0.0400164030    0.0203336380    0.0004293391    
0.0402390640    0.0201840500    0.0004220610    
0.0404617250    0.0194407440    0.0004117730    
0.0406843860    0.0196913410    0.0004104144    
0.0409070470    0.0202347370    0.0004203727    
0.0411297080    0.0197766020    0.0004115662    
0.0413523690    0.0190177680    0.0004046334    
0.0415750300    0.0196486950    0.0004147843    
0.0417976910    0.0200497030    0.0004081589    
0.0420203520    0.0205522640    0.0004147954    
0.0422430130    0.0193248180    0.0004037410    
0.0424656740    0.0200740300    0.0004061373    
0.0426883350    0.0200248250    0.0004076525    
0.0429109960    0.0199246850    0.0004079024    
0.0431336570    0.0197243450    0.0004001285    
0.0433563180    0.0200083150    0.0004064750    
0.0435789790    0.0198805840    0.0003988099    
0.0438016400    0.0197497160    0.0003996575    
0.0440243010    0.0202860440    0.0004009381    
0.0442469620    0.0194793300    0.0003952394    
0.0444696230    0.0192841400    0.0003918440    
0.0446922840    0.0196288390    0.0003941566    
0.0449149450    0.0205405990    0.0003978167    
0.0451376060    0.0197403340    0.0003948067    
0.0453602670    0.0200862980    0.0003940763    
0.0455829280    0.0193842180    0.0003866803    
0.0458055890    0.0193768350    0.0003888611    
0.0460282500    0.0199329790    0.0003896461    
0.0462509110    0.0195880100    0.0003838573    
0.0464735720    0.0200996350    0.0003890576    
0.0466962330    0.0193860630    0.0003838260    
0.0469188940    0.0198128070    0.0003869276    
0.0471415550    0.0191541820    0.0003823960    
0.0473642160    0.0198090490    0.0003834329    
0.0475868770    0.0199140030    0.0003825374    
0.0478095380    0.0194997210    0.0003768810    
0.0480321990    0.0195779470    0.0003784636    
0.0482548600    0.0198138610    0.0003790782    
0.0484775210    0.0198764010    0.0003834457    
0.0487001820    0.0198948670    0.0003780081    
0.0489228430    0.0194286700    0.0003733522    
0.0491455040    0.0194367970    0.0003708475    
0.0493681650    0.0194196020    0.0003738689    
0.0495908260    0.0196900280    0.0003701290    
0.0498134870    0.0203857700    0.0003801966    
0.0500361480    0.0198125270    0.0003738213    
0.0502588090    0.0198870630    0.0003689121    
0.0504814700    0.0195535520    0.0003705878    
0.0507041310    0.0198182560    0.0003686519    
0.0509267920    0.0192289030    0.0003646313    
0.0511494530    0.0200922080    0.0003702414    
0.0513721140    0.0194478380    0.0003674640    
0.0515947750    0.0195777780    0.0003638012    
0.0518174360    0.0192825160    0.0003588726    
0.0520400970    0.0189435880    0.0003532383    
0.0522627580    0.0204861980    0.0003704611    
0.0524854190    0.0192070480    0.0003616255    
0.0527080800    0.0200449470    0.0003722895    
0.0529307410    0.0202615920    0.0003760539    
0.0531534020    0.0199064660    0.0003713867    
0.0533760630    0.0196408450    0.0003700554    
0.0535987240    0.0198239610    0.0003700407    
0.0538213850    0.0198760190    0.0003748191    
0.0540440460    0.0192332310    0.0003669636    
0.0542667070    0.0196199140    0.0003731884    
0.0544893680    0.0193139540    0.0003704644    
0.0547120290    0.0200174620    0.0003745673    
0.0549346900    0.0196035200    0.0003708693    
0.0551573510    0.0197661150    0.0003767880    
0.0553800120    0.0196150510    0.0003721545    
0.0556026730    0.0195099290    0.0003788514    
0.0558253340    0.0201896090    0.0003886212    
0.0560479950    0.0192321370    0.0003792945    
0.0562706560    0.0198193300    0.0003887638    
0.0564933170    0.0197693390    0.0003916449    
0.0567159780    0.0197677030    0.0003869332    
0.0569386390    0.0188925460    0.0003842044    
0.0571613000    0.0197633450    0.0003844980    
0.0573839610    0.0189362600    0.0003732415    
0.0576066220    0.0190560420    0.0003754566    
0.0578292830    0.0190771140    0.0003744211    
0.0580519440    0.0203436160    0.0003881493    
0.0582746050    0.0198783120    0.0003819928    
0.0584972660    0.0197409930    0.0003792140    
0.0587199270    0.0196312140    0.0003748983    
0.0589425880    0.0199400100    0.0003756253    
0.0591652490    0.0194952260    0.0003735979    
0.0593879100    0.0194818200    0.0003706958    
0.0596105710    0.0202853770    0.0003778645    
0.0598332320    0.0199892920    0.0003783029    
0.0600558930    0.0203996490    0.0003797297    
0.0602785540    0.0198134200    0.0003738381    
0.0605012150    0.0196668010    0.0003716676    
0.0607238760    0.0195265640    0.0003676413    
0.0609465370    0.0196313170    0.0003715282    
0.0611691980    0.0194326120    0.0003702290    
0.0613918590    0.0197489650    0.0003691556    
0.0616145200    0.0201091260    0.0003752330    
0.0618371810    0.0197435280    0.0003681547    
0.0620598420    0.0197154670    0.0003682722    
0.0622825030    0.0208194630    0.0003842302    
0.0625051640    0.0191634190    0.0003634550    
0.0627278250    0.0191257690    0.0003623501    
0.0629504860    0.0194441630    0.0003623835    
0.0631731470    0.0194852690    0.0003672546    
0.0633958080    0.0195141480    0.0003696418    
0.0636184690    0.0197519680    0.0003770668    
0.0638411300    0.0193539060    0.0003718469    
0.0640637910    0.0191634210    0.0003726149    
0.0642864520    0.0192537060    0.0003726834    
0.0645091130    0.0191815420    0.0003752440    
0.0647317740    0.0191723610    0.0003755678    
0.0649544350    0.0197835340    0.0003810873    
0.0651770960    0.0196989820    0.0003781977    
0.0653997570    0.0196136350    0.0003765591    
0.0656224180    0.0196264170    0.0003775009    
0.0658450790    0.0197575440    0.0003733158    
0.0660677400    0.0195348100    0.0003727854    
0.0662904010    0.0197053340    0.0003788787    
0.0665130620    0.0190870020    0.0003712694    
0.0667357230    0.0192929900    0.0003799040    
0.0669583840    0.0192829990    0.0003785349    
0.0671810450    0.0192911240    0.0003765242    
0.0674037060    0.0197450950    0.0003873822    
0.0676263670    0.0191874180    0.0003790766    
0.0678490280    0.0194713010    0.0003795352    
0.0680716890    0.0195877810    0.0003815158    
0.0682943500    0.0195608490    0.0003770777    
0.0685170110    0.0189220930    0.0003670907    
0.0687396720    0.0192396250    0.0003691745    
0.0689623330    0.0193501650    0.0003690603    
0.0691849940    0.0197905140    0.0003758219    
0.0694076550    0.0193202520    0.0003711318    
0.0696303160    0.0200119250    0.0003747263    
0.0698529770    0.0201098030    0.0003748542    
0.0700756380    0.0197330070    0.0003665592    
0.0702982990    0.0197198100    0.0003704271    
0.0705209600    0.0199298860    0.0003697064    
0.0707436210    0.0202772910    0.0003712022    
0.0709662820    0.0199912590    0.0003729687    
0.0711889430    0.0197679460    0.0003663244    
0.0714116040    0.0197192310    0.0003666197    
0.0716342650    0.0189779830    0.0003582027    
0.0718569260    0.0198112900    0.0003645084    
0.0720795870    0.0192281870    0.0003605567    
0.0723022480    0.0194292480    0.0003629892    
0.0725249090    0.0197478460    0.0003615706    
0.0727475700    0.0194940680    0.0003623082    
0.0729702310    0.0197675070    0.0003619306    
0.0731928920    0.0193112910    0.0003591594    
0.0734155530    0.0198530460    0.0003634358    
0.0736382140    0.0195793420    0.0003586056    
0.0738608750    0.0199395890    0.0003642276    
0.0740835360    0.0193574340    0.0003579803    
0.0743061970    0.0196719870    0.0003557955    
0.0745288580    0.0196779660    0.0003595086    
0.0747515190    0.0193996920    0.0003576626    
0.0749741800    0.0193787790    0.0003541608    
0.0751968410    0.0199735640    0.0003623779    
0.0754195020    0.0190319520    0.0003516606    
0.0756421630    0.0196744740    0.0003546246    
0.0758648240    0.0190498340    0.0003497886    
0.0760874850    0.0194229530    0.0003530279    
0.0763101460    0.0192191880    0.0003508343    
0.0765328070    0.0196537320    0.0003584085    
0.0767554680    0.0192847500    0.0003526191    
0.0769781290    0.0196437540    0.0003538410    
0.0772007900    0.0191166800    0.0003462621    
0.0774234510    0.0197217170    0.0003536994    
0.0776461120    0.0197729610    0.0003538227    
0.0778687730    0.0190827570    0.0003464442    
0.0780914340    0.0199880410    0.0003571002    
0.0783140950    0.0197110180    0.0003489906    
0.0785367560    0.0186993660    0.0003453973    
0.0787594170    0.0199949600    0.0003539624    
0.0789820780    0.0190525410    0.0003437497    
0.0792047390    0.0199888670    0.0003532462    
0.0794274000    0.0194283190    0.0003497335    
0.0796500610    0.0191929100    0.0003442155    
0.0798727220    0.0197120680    0.0003485179    
0.0800953830    0.0191921530    0.0003431002    
0.0803180440    0.0192303600    0.0003458340    
0.0805407050    0.0195050010    0.0003479709    
0.0807633660    0.0198158010    0.0003504067    
0.0809860270    0.0193068340    0.0003446001    
0.0812086880    0.0193493650    0.0003419983    
0.0814313490    0.0190687580    0.0003410578    
0.0816540100    0.0197957200    0.0003467069    
0.0818766710    0.0194043170    0.0003440460    
0.0820993320    0.0188656610    0.0003386189    
0.0823219930    0.0190706280    0.0003418576    
0.0825446540    0.0192595510    0.0003410507    
0.0827673150    0.0193055210    0.0003391634    
0.0829899760    0.0192368470    0.0003379570    
0.0832126370    0.0194754550    0.0003415695    
0.0834352980    0.0199788830    0.0003451825    
0.0836579590    0.0194150520    0.0003395195    
0.0838806200    0.0197458600    0.0003434712    
0.0841032810    0.0191120270    0.0003358159    
0.0843259420    0.0193991320    0.0003372870    
0.0845486030    0.0198272570    0.0003409887    
0.0847712640    0.0196442610    0.0003373431    
0.0849939250    0.0189628280    0.0003320176    
0.0852165860    0.0196303610    0.0003382534    
0.0854392470    0.0192202930    0.0003315322    
0.0856619080    0.0194638260    0.0003360831    
0.0858845690    0.0195992270    0.0003342126    
0.0861072300    0.0200152140    0.0003400723    
0.0863298910    0.0192327930    0.0003351047    
0.0865525520    0.0188619090    0.0003289923    
0.0867752130    0.0194056580    0.0003310081    
0.0869978740    0.0196238710    0.0003337123    
0.0872205350    0.0194437760    0.0003317548    
0.0874431960    0.0196758870    0.0003337294    
0.0876658570    0.0191028560    0.0003300964    
0.0878885180    0.0201013700    0.0003391942    
0.0881111790    0.0192619800    0.0003316106    
0.0883338400    0.0195889480    0.0003295170    
0.0885565010    0.0194291210    0.0003326202    
0.0887791620    0.0190449840    0.0003250452    
0.0890018230    0.0193992630    0.0003312365    
0.0892244840    0.0194879770    0.0003325574    
0.0894471450    0.0199651880    0.0003351827    
0.0896698060    0.0191558480    0.0003270803    
0.0898924670    0.0195198580    0.0003317038    
0.0901151280    0.0195968560    0.0003287674    
0.0903377890    0.0191466950    0.0003276891    
0.0905604500    0.0195103820    0.0003292686    
0.0907831110    0.0192917820    0.0003266043    
0.0910057720    0.0193353220    0.0003284731    
0.0912284330    0.0195392000    0.0003254726    
0.0914510940    0.0191403940    0.0003257261    
0.0916737550    0.0190675760    0.0003242991    
0.0918964160    0.0194155980    0.0003286063    
0.0921190770    0.0196122350    0.0003272799    
0.0923417380    0.0193878270    0.0003255356    
0.0925643990    0.0190700430    0.0003220666    
0.0927870600    0.0195832290    0.0003277098    
0.0930097210    0.0192025550    0.0003217452    
0.0932323820    0.0189169720    0.0003216912    
