# Diamond Light Source Ltd.
# Data extracted from: /dls/b21/data/2018/cm19678-3/processed/b21-386631_00047.dat
q(1/A)          Column          Error           
0.0035000000    2.0958512000    0.0246502500    
0.0037226610    1.8862734000    0.0228929490    
0.0039453220    1.6321050000    0.0193722520    
0.0041679830    1.2830902000    0.0141058560    
0.0043906440    0.9820733200    0.0118039700    
0.0046133050    0.7901192300    0.0101640390    
0.0048359660    0.5810714700    0.0082448446    
0.0050586270    0.4598815200    0.0072094497    
0.0052812880    0.4327274600    0.0066121153    
0.0055039490    0.3852956200    0.0059325416    
0.0057266100    0.3297353000    0.0053093411    
0.0059492710    0.2748506900    0.0048473719    
0.0061719320    0.2269579300    0.0042446149    
0.0063945930    0.1938665800    0.0039705422    
0.0066172539    0.1861368400    0.0036532550    
0.0068399149    0.1662890100    0.0033986112    
0.0070625759    0.1460887200    0.0031528307    
0.0072852369    0.1274886900    0.0029012191    
0.0075078979    0.1137522200    0.0027270008    
0.0077305589    0.0998977040    0.0025068610    
0.0079532199    0.1026541200    0.0025059962    
0.0081758809    0.0932306710    0.0024104216    
0.0083985419    0.0833800760    0.0021261021    
0.0086212029    0.0758986500    0.0020284768    
0.0088438639    0.0736707110    0.0019824307    
0.0090665249    0.0659857250    0.0018120836    
0.0092891859    0.0675498310    0.0019136620    
0.0095118469    0.0618191230    0.0017605214    
0.0097345079    0.0565145500    0.0016348440    
0.0099571689    0.0553418990    0.0015844339    
0.0101798300    0.0523480020    0.0015409807    
0.0104024910    0.0503272470    0.0015058322    
0.0106251520    0.0490819400    0.0014921349    
0.0108478130    0.0425477370    0.0013529393    
0.0110704740    0.0419982850    0.0012797458    
0.0112931350    0.0399702910    0.0012521323    
0.0115157960    0.0399707560    0.0012448385    
0.0117384570    0.0402000540    0.0012376573    
0.0119611180    0.0379400820    0.0012058150    
0.0121837790    0.0367495120    0.0011667982    
0.0124064400    0.0355186890    0.0010992758    
0.0126291010    0.0346351480    0.0010719309    
0.0128517620    0.0331412660    0.0010511771    
0.0130744230    0.0325529550    0.0010340787    
0.0132970840    0.0343822290    0.0010575393    
0.0135197450    0.0301494170    0.0009761234    
0.0137424060    0.0310981020    0.0009775605    
0.0139650670    0.0329007180    0.0009830970    
0.0141877280    0.0289450230    0.0009241435    
0.0144103890    0.0298077550    0.0009216445    
0.0146330500    0.0293741770    0.0009091080    
0.0148557110    0.0274822310    0.0008756567    
0.0150783720    0.0284293720    0.0008832576    
0.0153010330    0.0266464510    0.0008430564    
0.0155236940    0.0287289660    0.0008701753    
0.0157463550    0.0272330710    0.0008325393    
0.0159690160    0.0269257330    0.0008246866    
0.0161916770    0.0258489840    0.0008034767    
0.0164143380    0.0248222670    0.0007933231    
0.0166369990    0.0258396330    0.0007844612    
0.0168596600    0.0240994500    0.0007509111    
0.0170823210    0.0254544970    0.0007650516    
0.0173049820    0.0249888140    0.0007593315    
0.0175276430    0.0236571510    0.0007466131    
0.0177503040    0.0249949460    0.0007478692    
0.0179729650    0.0239751870    0.0007251902    
0.0181956260    0.0233601760    0.0007021054    
0.0184182870    0.0238930320    0.0007067212    
0.0186409480    0.0236248740    0.0007071921    
0.0188636090    0.0218862830    0.0006763923    
0.0190862700    0.0228806580    0.0006905058    
0.0193089310    0.0228509340    0.0006889816    
0.0195315920    0.0233585050    0.0006729016    
0.0197542530    0.0236210260    0.0006776581    
0.0199769140    0.0227656220    0.0006652748    
0.0201995750    0.0225291510    0.0006514472    
0.0204222360    0.0230134020    0.0006640631    
0.0206448970    0.0231030320    0.0006606261    
0.0208675580    0.0226505930    0.0006406555    
0.0210902190    0.0219076120    0.0006361400    
0.0213128800    0.0225932690    0.0006372523    
0.0215355410    0.0220406250    0.0006219122    
0.0217582020    0.0221985690    0.0006241367    
0.0219808630    0.0216502510    0.0006155709    
0.0222035240    0.0218955610    0.0006134390    
0.0224261850    0.0222841150    0.0006133501    
0.0226488460    0.0221169890    0.0006064572    
0.0228715070    0.0213453640    0.0005943041    
0.0230941680    0.0209813430    0.0005892148    
0.0233168290    0.0217844290    0.0006018809    
0.0235394900    0.0201026840    0.0005718009    
0.0237621510    0.0206211220    0.0005635365    
0.0239848120    0.0212399990    0.0005725920    
0.0242074730    0.0212962670    0.0005687606    
0.0244301340    0.0203705230    0.0005568960    
0.0246527950    0.0201136960    0.0005584984    
0.0248754560    0.0213240080    0.0005621322    
0.0250981170    0.0225058030    0.0005787868    
0.0253207780    0.0200471950    0.0005299487    
0.0255434390    0.0210211770    0.0005484615    
0.0257661000    0.0208405360    0.0005478663    
0.0259887610    0.0203576480    0.0005357276    
0.0262114220    0.0208173820    0.0005446293    
0.0264340830    0.0209202130    0.0005385444    
0.0266567440    0.0201969230    0.0005258831    
0.0268794050    0.0209015980    0.0005327950    
0.0271020660    0.0206518760    0.0005274587    
0.0273247270    0.0201117340    0.0005173891    
0.0275473880    0.0203764660    0.0005197469    
0.0277700490    0.0198218570    0.0005095947    
0.0279927100    0.0205588380    0.0005144535    
0.0282153710    0.0210712000    0.0005233567    
0.0284380320    0.0206477330    0.0005150678    
0.0286606930    0.0203715710    0.0005072328    
0.0288833540    0.0206138490    0.0005112094    
0.0291060150    0.0213339590    0.0005195683    
0.0293286760    0.0208665810    0.0005066854    
0.0295513370    0.0201859070    0.0004929260    
0.0297739980    0.0199684530    0.0004956615    
0.0299966590    0.0211108410    0.0005009381    
0.0302193200    0.0202378630    0.0004976190    
0.0304419810    0.0210001390    0.0005078367    
0.0306646420    0.0198546410    0.0004798552    
0.0308873030    0.0195110310    0.0004736301    
0.0311099640    0.0200054280    0.0004808386    
0.0313326250    0.0206496830    0.0004831079    
0.0315552860    0.0199242690    0.0004806963    
0.0317779470    0.0208767800    0.0004924810    
0.0320006080    0.0191843950    0.0004613713    
0.0322232690    0.0199719180    0.0004727164    
0.0324459300    0.0206337680    0.0004768981    
0.0326685910    0.0199066340    0.0004676476    
0.0328912520    0.0205142280    0.0004763029    
0.0331139130    0.0200486230    0.0004647414    
0.0333365740    0.0203091500    0.0004692701    
0.0335592350    0.0201438180    0.0004628623    
0.0337818960    0.0194640150    0.0004546228    
0.0340045570    0.0201008440    0.0004612664    
0.0342272170    0.0199950890    0.0004582367    
0.0344498780    0.0198256590    0.0004580984    
0.0346725390    0.0210762520    0.0004635783    
0.0348952000    0.0201976010    0.0004517450    
0.0351178610    0.0205766470    0.0004580512    
0.0353405220    0.0200561720    0.0004501609    
0.0355631830    0.0194942430    0.0004421384    
0.0357858440    0.0201861810    0.0004499169    
0.0360085050    0.0197837420    0.0004467552    
0.0362311660    0.0199269020    0.0004430389    
0.0364538270    0.0199960240    0.0004402446    
0.0366764880    0.0200734800    0.0004407764    
0.0368991490    0.0203123440    0.0004411559    
0.0371218100    0.0200533890    0.0004370808    
0.0373444710    0.0194606000    0.0004352611    
0.0375671320    0.0202872800    0.0004437626    
0.0377897930    0.0200702710    0.0004299566    
0.0380124540    0.0195208200    0.0004266910    
0.0382351150    0.0196327540    0.0004279127    
0.0384577760    0.0194203890    0.0004214858    
0.0386804370    0.0195879010    0.0004265300    
0.0389030980    0.0201247830    0.0004290618    
0.0391257590    0.0201412360    0.0004263233    
0.0393484200    0.0197190690    0.0004204120    
0.0395710810    0.0203743880    0.0004279163    
0.0397937420    0.0199879450    0.0004238388    
0.0400164030    0.0193626270    0.0004188534    
0.0402390640    0.0203235030    0.0004234063    
0.0404617250    0.0204592560    0.0004223119    
0.0406843860    0.0203223110    0.0004168295    
0.0409070470    0.0199012480    0.0004167858    
0.0411297080    0.0194495700    0.0004080429    
0.0413523690    0.0202125350    0.0004170415    
0.0415750300    0.0195247000    0.0004133658    
0.0417976910    0.0203880670    0.0004114815    
0.0420203520    0.0188848550    0.0003975098    
0.0422430130    0.0199049120    0.0004096493    
0.0424656740    0.0192587410    0.0003977008    
0.0426883350    0.0195416240    0.0004025993    
0.0429109960    0.0192048790    0.0004003624    
0.0431336570    0.0199818020    0.0004026266    
0.0433563180    0.0202537570    0.0004088541    
0.0435789790    0.0204619480    0.0004044938    
0.0438016400    0.0202810200    0.0004048922    
0.0440243010    0.0191349900    0.0003892959    
0.0442469620    0.0198218660    0.0003985956    
0.0444696230    0.0191945250    0.0003908307    
0.0446922840    0.0199587850    0.0003973521    
0.0449149450    0.0200755720    0.0003931854    
0.0451376060    0.0191697280    0.0003889575    
0.0453602670    0.0194190140    0.0003873744    
0.0455829280    0.0199369280    0.0003920523    
0.0458055890    0.0199127330    0.0003940991    
0.0460282500    0.0199378320    0.0003895921    
0.0462509110    0.0199011060    0.0003868123    
0.0464735720    0.0196977790    0.0003850485    
0.0466962330    0.0196494100    0.0003863237    
0.0469188940    0.0198176020    0.0003868737    
0.0471415550    0.0196859600    0.0003875670    
0.0473642160    0.0196577980    0.0003818668    
0.0475868770    0.0200725640    0.0003839574    
0.0478095380    0.0199118350    0.0003807436    
0.0480321990    0.0193118270    0.0003757848    
0.0482548600    0.0197600570    0.0003784646    
0.0484775210    0.0192967650    0.0003777150    
0.0487001820    0.0191164110    0.0003704425    
0.0489228430    0.0196838790    0.0003756986    
0.0491455040    0.0197661370    0.0003738788    
0.0493681650    0.0196037350    0.0003755395    
0.0495908260    0.0198049530    0.0003711110    
0.0498134870    0.0199003310    0.0003755448    
0.0500361480    0.0199996040    0.0003754843    
0.0502588090    0.0202529080    0.0003721930    
0.0504814700    0.0195574170    0.0003705279    
0.0507041310    0.0196503020    0.0003669910    
0.0509267920    0.0189701080    0.0003620751    
0.0511494530    0.0192634800    0.0003624312    
0.0513721140    0.0193544430    0.0003664852    
0.0515947750    0.0195405630    0.0003633607    
0.0518174360    0.0194059940    0.0003599261    
0.0520400970    0.0194208990    0.0003575677    
0.0522627580    0.0194310030    0.0003607003    
0.0524854190    0.0197958980    0.0003670315    
0.0527080800    0.0192881460    0.0003650989    
0.0529307410    0.0202859280    0.0003761817    
0.0531534020    0.0197229770    0.0003695749    
0.0533760630    0.0195539690    0.0003691400    
0.0535987240    0.0193510960    0.0003655056    
0.0538213850    0.0191238920    0.0003675633    
0.0540440460    0.0196850830    0.0003711525    
0.0542667070    0.0197657870    0.0003744756    
0.0544893680    0.0196092990    0.0003731890    
0.0547120290    0.0193695650    0.0003683599    
0.0549346900    0.0195652680    0.0003704109    
0.0551573510    0.0190235990    0.0003695471    
0.0553800120    0.0199012460    0.0003747621    
0.0556026730    0.0197203620    0.0003807900    
0.0558253340    0.0189978140    0.0003768784    
0.0560479950    0.0202837940    0.0003894254    
0.0562706560    0.0199462080    0.0003899047    
0.0564933170    0.0192860130    0.0003867270    
0.0567159780    0.0189852870    0.0003790997    
0.0569386390    0.0195777350    0.0003910077    
0.0571613000    0.0197156780    0.0003839341    
0.0573839610    0.0199852250    0.0003833402    
0.0576066220    0.0196006520    0.0003806849    
0.0578292830    0.0193977040    0.0003774558    
0.0580519440    0.0195114180    0.0003800285    
0.0582746050    0.0195598230    0.0003788217    
0.0584972660    0.0196287890    0.0003780364    
0.0587199270    0.0202435460    0.0003806012    
0.0589425880    0.0193284910    0.0003697244    
0.0591652490    0.0197355310    0.0003757956    
0.0593879100    0.0198241750    0.0003738415    
0.0596105710    0.0193813780    0.0003692528    
0.0598332320    0.0197069710    0.0003755242    
0.0600558930    0.0192304050    0.0003685907    
0.0602785540    0.0190135230    0.0003661189    
0.0605012150    0.0195723240    0.0003706773    
0.0607238760    0.0191497350    0.0003639818    
0.0609465370    0.0200849240    0.0003756982    
0.0611691980    0.0194859480    0.0003706402    
0.0613918590    0.0199731790    0.0003711487    
0.0616145200    0.0198537260    0.0003727455    
0.0618371810    0.0196028870    0.0003667456    
0.0620598420    0.0198702190    0.0003696185    
0.0622825030    0.0197526050    0.0003741587    
0.0625051640    0.0201869060    0.0003729374    
0.0627278250    0.0197676470    0.0003682844    
0.0629504860    0.0197040560    0.0003647024    
0.0631731470    0.0198556370    0.0003706320    
0.0633958080    0.0190351130    0.0003649816    
0.0636184690    0.0194035480    0.0003736291    
0.0638411300    0.0197365660    0.0003754072    
0.0640637910    0.0197906890    0.0003785656    
0.0642864520    0.0192508960    0.0003725592    
0.0645091130    0.0190908530    0.0003742585    
0.0647317740    0.0198021110    0.0003815868    
0.0649544350    0.0199053050    0.0003821589    
0.0651770960    0.0202765610    0.0003836022    
0.0653997570    0.0195672990    0.0003760162    
0.0656224180    0.0201895220    0.0003827785    
0.0658450790    0.0199376150    0.0003749156    
0.0660677400    0.0188562850    0.0003661587    
0.0662904010    0.0198916670    0.0003805667    
0.0665130620    0.0192936080    0.0003731762    
0.0667357230    0.0199633480    0.0003863472    
0.0669583840    0.0196220310    0.0003817487    
0.0671810450    0.0199127700    0.0003824432    
0.0674037060    0.0197879930    0.0003877019    
0.0676263670    0.0198885400    0.0003858399    
0.0678490280    0.0204002150    0.0003883818    
0.0680716890    0.0193250690    0.0003788501    
0.0682943500    0.0202263340    0.0003833386    
0.0685170110    0.0188339500    0.0003661394    
0.0687396720    0.0199588660    0.0003759138    
0.0689623330    0.0198044270    0.0003732700    
0.0691849940    0.0194092910    0.0003720878    
0.0694076550    0.0191676870    0.0003695673    
0.0696303160    0.0192791570    0.0003677060    
0.0698529770    0.0197222140    0.0003711277    
0.0700756380    0.0193824560    0.0003631941    
0.0702982990    0.0193339960    0.0003666901    
0.0705209600    0.0188501940    0.0003594591    
0.0707436210    0.0193023020    0.0003620738    
0.0709662820    0.0195913930    0.0003691237    
0.0711889430    0.0197983680    0.0003665108    
0.0714116040    0.0189732040    0.0003595242    
0.0716342650    0.0196708800    0.0003645883    
0.0718569260    0.0202836040    0.0003687318    
0.0720795870    0.0198331080    0.0003660890    
0.0723022480    0.0192971320    0.0003616588    
0.0725249090    0.0194001180    0.0003582799    
0.0727475700    0.0191608740    0.0003591051    
0.0729702310    0.0191147640    0.0003558121    
0.0731928920    0.0199087860    0.0003645784    
0.0734155530    0.0197030710    0.0003619663    
0.0736382140    0.0191030640    0.0003541250    
0.0738608750    0.0196432750    0.0003614171    
0.0740835360    0.0193142770    0.0003574880    
0.0743061970    0.0198225430    0.0003570615    
0.0745288580    0.0191491180    0.0003545525    
0.0747515190    0.0199102560    0.0003622442    
0.0749741800    0.0191552110    0.0003520203    
0.0751968410    0.0193980500    0.0003570260    
0.0754195020    0.0194506780    0.0003554155    
0.0756421630    0.0196131260    0.0003539791    
0.0758648240    0.0189179520    0.0003484850    
0.0760874850    0.0195282840    0.0003538917    
0.0763101460    0.0199965010    0.0003577655    
0.0765328070    0.0191666260    0.0003538471    
0.0767554680    0.0196613680    0.0003559530    
0.0769781290    0.0193213830    0.0003508343    
0.0772007900    0.0187807640    0.0003431171    
0.0774234510    0.0195783110    0.0003523194    
0.0776461120    0.0187691580    0.0003446349    
0.0778687730    0.0194060040    0.0003492752    
0.0780914340    0.0196970730    0.0003543992    
0.0783140950    0.0198922100    0.0003504997    
0.0785367560    0.0189383200    0.0003475067    
0.0787594170    0.0189950340    0.0003449085    
0.0789820780    0.0198546650    0.0003508198    
0.0792047390    0.0198287200    0.0003517367    
0.0794274000    0.0197328270    0.0003523719    
0.0796500610    0.0198492950    0.0003499609    
0.0798727220    0.0190920940    0.0003429041    
0.0800953830    0.0191576430    0.0003427023    
0.0803180440    0.0191084620    0.0003446464    
0.0805407050    0.0192404620    0.0003455132    
0.0807633660    0.0198116820    0.0003502791    
0.0809860270    0.0191799860    0.0003433768    
0.0812086880    0.0195567960    0.0003437371    
0.0814313490    0.0191198040    0.0003414251    
0.0816540100    0.0197611420    0.0003463138    
0.0818766710    0.0196685800    0.0003462907    
0.0820993320    0.0192628480    0.0003420758    
0.0823219930    0.0190484540    0.0003415698    
0.0825446540    0.0194064700    0.0003422599    
0.0827673150    0.0194503150    0.0003403444    
0.0829899760    0.0192802440    0.0003382499    
0.0832126370    0.0193814950    0.0003406559    
0.0834352980    0.0202069150    0.0003470565    
0.0836579590    0.0198618850    0.0003433149    
0.0838806200    0.0199684710    0.0003453120    
0.0841032810    0.0201872260    0.0003450430    
0.0843259420    0.0200513590    0.0003428209    
0.0845486030    0.0193890670    0.0003371120    
0.0847712640    0.0186786800    0.0003288622    
0.0849939250    0.0192841430    0.0003347316    
0.0852165860    0.0203541530    0.0003443433    
0.0854392470    0.0195189360    0.0003340110    
0.0856619080    0.0191520900    0.0003332941    
0.0858845690    0.0195263710    0.0003335041    
0.0861072300    0.0196871700    0.0003371862    
0.0863298910    0.0198822180    0.0003406268    
0.0865525520    0.0195690120    0.0003350151    
0.0867752130    0.0198583000    0.0003347591    
0.0869978740    0.0194832030    0.0003324275    
0.0872205350    0.0196203570    0.0003331711    
0.0874431960    0.0188339870    0.0003264265    
0.0876658570    0.0190530080    0.0003295796    
0.0878885180    0.0192671360    0.0003319947    
0.0881111790    0.0191036010    0.0003301585    
0.0883338400    0.0191078440    0.0003253607    
0.0885565010    0.0189010940    0.0003279839    
0.0887791620    0.0193733020    0.0003277496    
0.0890018230    0.0195587520    0.0003325088    
0.0892244840    0.0196479980    0.0003338331    
0.0894471450    0.0189311870    0.0003263028    
0.0896698060    0.0192128620    0.0003274814    
0.0898924670    0.0192730820    0.0003295146    
0.0901151280    0.0193606370    0.0003266949    
0.0903377890    0.0191983900    0.0003280458    
0.0905604500    0.0193669320    0.0003279705    
0.0907831110    0.0196188560    0.0003292756    
0.0910057720    0.0192081370    0.0003273058    
0.0912284330    0.0190846980    0.0003215812    
0.0914510940    0.0192356980    0.0003264511    
0.0916737550    0.0189970130    0.0003236143    
0.0918964160    0.0193221140    0.0003277289    
0.0921190770    0.0195310660    0.0003265170    
0.0923417380    0.0193613480    0.0003252286    
0.0925643990    0.0199462570    0.0003292968    
0.0927870600    0.0193592750    0.0003257457    
0.0930097210    0.0196343900    0.0003252582    
0.0932323820    0.0198147580    0.0003291506    
