# Diamond Light Source Ltd.
# Data extracted from: /dls/b21/data/2018/cm19678-3/processed/b21-386631_00049.dat
q(1/A)          Column          Error           
0.0035000000    2.0675018000    0.0244867750    
0.0037226610    1.8715740000    0.0228071200    
0.0039453220    1.6546936000    0.0195088820    
0.0041679830    1.3205638000    0.0143125840    
0.0043906440    0.9755665500    0.0117666310    
0.0046133050    0.7753241100    0.0100699940    
0.0048359660    0.5948268500    0.0083431587    
0.0050586270    0.4644337400    0.0072461705    
0.0052812880    0.4438781600    0.0066978067    
0.0055039490    0.3739937100    0.0058457930    
0.0057266100    0.3162407100    0.0052003709    
0.0059492710    0.2633059100    0.0047452135    
0.0061719320    0.2298078200    0.0042718455    
0.0063945930    0.2041763700    0.0040753847    
0.0066172539    0.1892788500    0.0036845325    
0.0068399149    0.1717603600    0.0034546075    
0.0070625759    0.1453173800    0.0031449853    
0.0072852369    0.1249526800    0.0028726652    
0.0075078979    0.1156186700    0.0027497096    
0.0077305589    0.1006209800    0.0025163109    
0.0079532199    0.0978516060    0.0024470550    
0.0081758809    0.0849061960    0.0023006515    
0.0083985419    0.0845448430    0.0021412337    
0.0086212029    0.0763560990    0.0020348969    
0.0088438639    0.0678237490    0.0019024314    
0.0090665249    0.0665040330    0.0018194694    
0.0092891859    0.0650762510    0.0018785896    
0.0095118469    0.0635936970    0.0017858889    
0.0097345079    0.0548763750    0.0016112258    
0.0099571689    0.0520920170    0.0015374473    
0.0101798300    0.0509576180    0.0015206149    
0.0104024910    0.0480894130    0.0014722015    
0.0106251520    0.0463292490    0.0014499145    
0.0108478130    0.0437228980    0.0013717093    
0.0110704740    0.0450149440    0.0013251157    
0.0112931350    0.0408459420    0.0012659704    
0.0115157960    0.0375012050    0.0012059575    
0.0117384570    0.0386116790    0.0012131485    
0.0119611180    0.0380668880    0.0012080162    
0.0121837790    0.0377614920    0.0011829382    
0.0124064400    0.0350532840    0.0010922199    
0.0126291010    0.0325884040    0.0010399378    
0.0128517620    0.0363866870    0.0011016158    
0.0130744230    0.0332202560    0.0010447861    
0.0132970840    0.0326683960    0.0010310054    
0.0135197450    0.0321188000    0.0010076564    
0.0137424060    0.0322758530    0.0009960545    
0.0139650670    0.0295317020    0.0009315484    
0.0141877280    0.0290720850    0.0009263136    
0.0144103890    0.0288763360    0.0009072717    
0.0146330500    0.0296929070    0.0009141690    
0.0148557110    0.0279373300    0.0008830145    
0.0150783720    0.0287127140    0.0008877862    
0.0153010330    0.0274285000    0.0008554714    
0.0155236940    0.0267077930    0.0008391378    
0.0157463550    0.0267832730    0.0008257637    
0.0159690160    0.0268077750    0.0008230061    
0.0161916770    0.0263067110    0.0008106854    
0.0164143380    0.0253626020    0.0008020359    
0.0166369990    0.0255379740    0.0007799900    
0.0168596600    0.0254176140    0.0007712939    
0.0170823210    0.0260834490    0.0007745661    
0.0173049820    0.0240271900    0.0007446936    
0.0175276430    0.0249373010    0.0007666667    
0.0177503040    0.0258756890    0.0007610497    
0.0179729650    0.0240704120    0.0007267419    
0.0181956260    0.0238529440    0.0007095823    
0.0184182870    0.0244441310    0.0007149363    
0.0186409480    0.0236110460    0.0007070951    
0.0188636090    0.0239632100    0.0007078687    
0.0190862700    0.0240550930    0.0007081156    
0.0193089310    0.0233359820    0.0006963638    
0.0195315920    0.0237341930    0.0006783968    
0.0197542530    0.0229477200    0.0006680340    
0.0199769140    0.0230449640    0.0006694480    
0.0201995750    0.0234594620    0.0006648649    
0.0204222360    0.0225030290    0.0006567603    
0.0206448970    0.0218819560    0.0006430309    
0.0208675580    0.0216244500    0.0006260728    
0.0210902190    0.0220992010    0.0006390149    
0.0213128800    0.0223126230    0.0006333806    
0.0215355410    0.0214682080    0.0006138787    
0.0217582020    0.0221879190    0.0006240840    
0.0219808630    0.0228825210    0.0006329452    
0.0222035240    0.0217820290    0.0006119417    
0.0224261850    0.0217844310    0.0006065287    
0.0226488460    0.0221405020    0.0006068739    
0.0228715070    0.0215340750    0.0005970182    
0.0230941680    0.0217327070    0.0005997655    
0.0233168290    0.0215084180    0.0005981487    
0.0235394900    0.0213942160    0.0005899749    
0.0237621510    0.0212591490    0.0005722770    
0.0239848120    0.0215554220    0.0005769177    
0.0242074730    0.0207558840    0.0005615855    
0.0244301340    0.0208641980    0.0005636914    
0.0246527950    0.0214230180    0.0005764794    
0.0248754560    0.0211231150    0.0005595650    
0.0250981170    0.0211429770    0.0005610763    
0.0253207780    0.0217490740    0.0005520710    
0.0255434390    0.0209990860    0.0005482585    
0.0257661000    0.0211783800    0.0005523751    
0.0259887610    0.0215485880    0.0005512608    
0.0262114220    0.0203107430    0.0005380447    
0.0264340830    0.0204413420    0.0005324277    
0.0266567440    0.0211756980    0.0005385586    
0.0268794050    0.0210303680    0.0005345168    
0.0271020660    0.0200249400    0.0005194716    
0.0273247270    0.0215825680    0.0005360578    
0.0275473880    0.0216824230    0.0005362273    
0.0277700490    0.0202735960    0.0005154489    
0.0279927100    0.0204493360    0.0005131614    
0.0282153710    0.0203495900    0.0005143971    
0.0284380320    0.0207184180    0.0005160289    
0.0286606930    0.0202768380    0.0005061307    
0.0288833540    0.0206836680    0.0005121540    
0.0291060150    0.0206191160    0.0005108689    
0.0293286760    0.0203807820    0.0005008304    
0.0295513370    0.0203968760    0.0004955722    
0.0297739980    0.0216730650    0.0005164647    
0.0299966590    0.0215573530    0.0005062867    
0.0302193200    0.0196689010    0.0004906504    
0.0304419810    0.0205152860    0.0005020181    
0.0306646420    0.0199884270    0.0004815440    
0.0308873030    0.0197011140    0.0004760056    
0.0311099640    0.0205087630    0.0004869256    
0.0313326250    0.0199099080    0.0004744490    
0.0315552860    0.0199536680    0.0004811257    
0.0317779470    0.0207786830    0.0004913990    
0.0320006080    0.0205555520    0.0004776488    
0.0322232690    0.0191834820    0.0004633637    
0.0324459300    0.0200999240    0.0004707617    
0.0326685910    0.0203853700    0.0004733111    
0.0328912520    0.0195250000    0.0004647492    
0.0331139130    0.0196884620    0.0004606197    
0.0333365740    0.0199141470    0.0004647564    
0.0335592350    0.0200436940    0.0004617823    
0.0337818960    0.0194275810    0.0004542677    
0.0340045570    0.0205412140    0.0004663642    
0.0342272170    0.0201273670    0.0004598214    
0.0344498780    0.0199694720    0.0004598283    
0.0346725390    0.0199812390    0.0004514453    
0.0348952000    0.0193043600    0.0004417115    
0.0351178610    0.0196956710    0.0004482080    
0.0353405220    0.0197794140    0.0004471137    
0.0355631830    0.0203328800    0.0004516188    
0.0357858440    0.0195003180    0.0004422762    
0.0360085050    0.0194871430    0.0004434626    
0.0362311660    0.0202779630    0.0004469940    
0.0364538270    0.0195853280    0.0004357678    
0.0366764880    0.0194988250    0.0004344889    
0.0368991490    0.0197340210    0.0004348980    
0.0371218100    0.0200882150    0.0004375282    
0.0373444710    0.0196127260    0.0004370270    
0.0375671320    0.0199731650    0.0004403822    
0.0377897930    0.0195329090    0.0004242277    
0.0380124540    0.0207770600    0.0004402750    
0.0382351150    0.0196202010    0.0004278424    
0.0384577760    0.0201859170    0.0004297795    
0.0386804370    0.0198820030    0.0004297870    
0.0389030980    0.0198839790    0.0004265534    
0.0391257590    0.0199218330    0.0004240608    
0.0393484200    0.0199403860    0.0004228304    
0.0395710810    0.0197334330    0.0004211971    
0.0397937420    0.0201200240    0.0004253030    
0.0400164030    0.0194230300    0.0004195714    
0.0402390640    0.0194827480    0.0004146204    
0.0404617250    0.0195500300    0.0004128855    
0.0406843860    0.0197556330    0.0004110408    
0.0409070470    0.0204837060    0.0004229067    
0.0411297080    0.0196611370    0.0004103200    
0.0413523690    0.0189191010    0.0004035401    
0.0415750300    0.0198721890    0.0004170929    
0.0417976910    0.0201285750    0.0004089181    
0.0420203520    0.0197026030    0.0004060882    
0.0422430130    0.0195822020    0.0004063782    
0.0424656740    0.0196837080    0.0004021272    
0.0426883350    0.0202861340    0.0004102606    
0.0429109960    0.0206051210    0.0004147655    
0.0431336570    0.0202152460    0.0004050346    
0.0433563180    0.0195005110    0.0004012417    
0.0435789790    0.0195164830    0.0003950997    
0.0438016400    0.0192280850    0.0003943030    
0.0440243010    0.0199648900    0.0003977101    
0.0442469620    0.0194111060    0.0003945053    
0.0444696230    0.0201477840    0.0004004803    
0.0446922840    0.0197196840    0.0003950262    
0.0449149450    0.0192652940    0.0003852288    
0.0451376060    0.0198940870    0.0003962997    
0.0453602670    0.0194868920    0.0003881112    
0.0455829280    0.0196963460    0.0003897402    
0.0458055890    0.0199267290    0.0003942989    
0.0460282500    0.0195099700    0.0003854491    
0.0462509110    0.0193958880    0.0003819302    
0.0464735720    0.0202234200    0.0003902129    
0.0466962330    0.0198986520    0.0003888265    
0.0469188940    0.0194082520    0.0003829168    
0.0471415550    0.0195546970    0.0003863328    
0.0473642160    0.0202278580    0.0003874244    
0.0475868770    0.0199979920    0.0003833031    
0.0478095380    0.0197213970    0.0003789774    
0.0480321990    0.0196981920    0.0003795843    
0.0482548600    0.0192876380    0.0003739713    
0.0484775210    0.0193175590    0.0003779772    
0.0487001820    0.0200343130    0.0003792908    
0.0489228430    0.0199410580    0.0003782037    
0.0491455040    0.0193053900    0.0003695531    
0.0493681650    0.0196386180    0.0003759319    
0.0495908260    0.0195398230    0.0003686759    
0.0498134870    0.0202184460    0.0003785934    
0.0500361480    0.0194769430    0.0003706030    
0.0502588090    0.0192671150    0.0003630783    
0.0504814700    0.0196758530    0.0003717059    
0.0507041310    0.0197455430    0.0003679365    
0.0509267920    0.0197433440    0.0003694380    
0.0511494530    0.0190511980    0.0003604847    
0.0513721140    0.0193535210    0.0003665334    
0.0515947750    0.0198913430    0.0003666646    
0.0518174360    0.0203869710    0.0003689685    
0.0520400970    0.0195849890    0.0003591310    
0.0522627580    0.0195910970    0.0003622395    
0.0524854190    0.0199177770    0.0003682169    
0.0527080800    0.0196812730    0.0003688582    
0.0529307410    0.0196642110    0.0003704299    
0.0531534020    0.0192926880    0.0003655781    
0.0533760630    0.0200201230    0.0003735722    
0.0535987240    0.0195711960    0.0003676355    
0.0538213850    0.0198647870    0.0003746740    
0.0540440460    0.0193692030    0.0003682198    
0.0542667070    0.0193390240    0.0003704685    
0.0544893680    0.0199990390    0.0003769380    
0.0547120290    0.0194456640    0.0003691402    
0.0549346900    0.0198870200    0.0003735022    
0.0551573510    0.0190869640    0.0003702196    
0.0553800120    0.0197591880    0.0003734803    
0.0556026730    0.0191675040    0.0003754727    
0.0558253340    0.0191682570    0.0003786242    
0.0560479950    0.0194973450    0.0003818607    
0.0562706560    0.0193196070    0.0003837912    
0.0564933170    0.0196565970    0.0003904856    
0.0567159780    0.0195288220    0.0003845478    
0.0569386390    0.0192166770    0.0003874456    
0.0571613000    0.0192282030    0.0003792169    
0.0573839610    0.0190205540    0.0003740321    
0.0576066220    0.0199099840    0.0003837367    
0.0578292830    0.0195727210    0.0003792138    
0.0580519440    0.0194730610    0.0003797138    
0.0582746050    0.0202264210    0.0003852826    
0.0584972660    0.0200645900    0.0003822694    
0.0587199270    0.0196342590    0.0003748881    
0.0589425880    0.0196033320    0.0003724017    
0.0591652490    0.0192764020    0.0003714564    
0.0593879100    0.0194354260    0.0003702154    
0.0596105710    0.0194437040    0.0003699036    
0.0598332320    0.0192120410    0.0003708363    
0.0600558930    0.0203600400    0.0003793211    
0.0602785540    0.0196118100    0.0003718923    
0.0605012150    0.0204562100    0.0003790137    
0.0607238760    0.0197646870    0.0003698374    
0.0609465370    0.0195639360    0.0003708512    
0.0611691980    0.0193016020    0.0003689402    
0.0613918590    0.0192343040    0.0003642756    
0.0616145200    0.0192088720    0.0003666991    
0.0618371810    0.0187785030    0.0003590070    
0.0620598420    0.0199382990    0.0003703088    
0.0622825030    0.0196594940    0.0003733339    
0.0625051640    0.0199657530    0.0003709466    
0.0627278250    0.0195472990    0.0003662830    
0.0629504860    0.0195413750    0.0003632502    
0.0631731470    0.0197580060    0.0003697771    
0.0633958080    0.0190200320    0.0003648938    
0.0636184690    0.0197910100    0.0003773997    
0.0638411300    0.0199784170    0.0003777590    
0.0640637910    0.0191159440    0.0003721140    
0.0642864520    0.0203892170    0.0003834755    
0.0645091130    0.0202343780    0.0003853643    
0.0647317740    0.0189329690    0.0003731767    
0.0649544350    0.0193463700    0.0003768138    
0.0651770960    0.0192157310    0.0003734908    
0.0653997570    0.0196673490    0.0003770349    
0.0656224180    0.0197239370    0.0003783980    
0.0658450790    0.0199015020    0.0003746341    
0.0660677400    0.0194311430    0.0003717560    
0.0662904010    0.0194681420    0.0003765521    
0.0665130620    0.0196678400    0.0003768366    
0.0667357230    0.0205230210    0.0003917863    
0.0669583840    0.0200367440    0.0003858217    
0.0671810450    0.0197793620    0.0003812192    
0.0674037060    0.0196725710    0.0003866296    
0.0676263670    0.0191908850    0.0003790711    
0.0678490280    0.0193562770    0.0003783728    
0.0680716890    0.0187293050    0.0003730227    
0.0682943500    0.0194259360    0.0003757357    
0.0685170110    0.0193453350    0.0003711346    
0.0687396720    0.0199084150    0.0003754968    
0.0689623330    0.0196909490    0.0003722569    
0.0691849940    0.0195152230    0.0003731598    
0.0694076550    0.0194658870    0.0003724889    
0.0696303160    0.0197551800    0.0003722757    
0.0698529770    0.0190297520    0.0003646108    
0.0700756380    0.0195518700    0.0003648347    
0.0702982990    0.0196113260    0.0003693681    
0.0705209600    0.0201245560    0.0003714687    
0.0707436210    0.0193083060    0.0003621864    
0.0709662820    0.0193261690    0.0003666736    
0.0711889430    0.0189086390    0.0003582364    
0.0714116040    0.0189586610    0.0003594422    
0.0716342650    0.0193728180    0.0003618718    
0.0718569260    0.0198205490    0.0003645553    
0.0720795870    0.0195013000    0.0003630702    
0.0723022480    0.0200896330    0.0003690678    
0.0725249090    0.0186648530    0.0003514795    
0.0727475700    0.0192610860    0.0003600989    
0.0729702310    0.0194055980    0.0003585645    
0.0731928920    0.0198081240    0.0003637121    
0.0734155530    0.0190972360    0.0003564133    
0.0736382140    0.0193257060    0.0003562380    
0.0738608750    0.0193234470    0.0003585185    
0.0740835360    0.0196313680    0.0003604666    
0.0743061970    0.0196228290    0.0003553135    
0.0745288580    0.0202648470    0.0003647920    
0.0747515190    0.0195538520    0.0003590432    
0.0749741800    0.0192517660    0.0003529613    
0.0751968410    0.0194895350    0.0003579226    
0.0754195020    0.0202168070    0.0003624038    
0.0756421630    0.0199707110    0.0003572469    
0.0758648240    0.0198035670    0.0003566040    
0.0760874850    0.0196626620    0.0003551625    
0.0763101460    0.0201435850    0.0003591347    
0.0765328070    0.0200220880    0.0003617137    
0.0767554680    0.0200026880    0.0003590852    
0.0769781290    0.0189960290    0.0003479220    
0.0772007900    0.0193446850    0.0003482844    
0.0774234510    0.0199395580    0.0003556102    
0.0776461120    0.0191231500    0.0003479238    
0.0778687730    0.0195063640    0.0003502317    
0.0780914340    0.0197542270    0.0003549682    
0.0783140950    0.0198613310    0.0003502820    
0.0785367560    0.0196011980    0.0003535911    
0.0787594170    0.0193830910    0.0003484680    
0.0789820780    0.0195818090    0.0003484550    
0.0792047390    0.0203466760    0.0003563565    
0.0794274000    0.0194746030    0.0003501132    
0.0796500610    0.0193863940    0.0003459099    
0.0798727220    0.0198065080    0.0003493151    
0.0800953830    0.0200527930    0.0003506719    
0.0803180440    0.0190708780    0.0003443609    
0.0805407050    0.0194512620    0.0003474548    
0.0807633660    0.0195638490    0.0003481354    
0.0809860270    0.0194011790    0.0003454049    
0.0812086880    0.0199738370    0.0003474368    
0.0814313490    0.0196319490    0.0003460214    
0.0816540100    0.0191480420    0.0003409522    
0.0818766710    0.0192355840    0.0003425110    
0.0820993320    0.0194268300    0.0003435822    
0.0823219930    0.0195383970    0.0003459885    
0.0825446540    0.0197989450    0.0003457573    
0.0827673150    0.0189142560    0.0003356738    
0.0829899760    0.0191022230    0.0003367371    
0.0832126370    0.0192138320    0.0003392320    
0.0834352980    0.0198017820    0.0003436132    
0.0836579590    0.0192091580    0.0003376790    
0.0838806200    0.0198671620    0.0003444885    
0.0841032810    0.0202053040    0.0003452511    
0.0843259420    0.0192367640    0.0003358373    
0.0845486030    0.0199462270    0.0003419744    
0.0847712640    0.0194084710    0.0003352773    
0.0849939250    0.0197609150    0.0003388969    
0.0852165860    0.0194747390    0.0003368747    
0.0854392470    0.0195478760    0.0003343105    
0.0856619080    0.0195641830    0.0003369131    
0.0858845690    0.0198287350    0.0003361285    
0.0861072300    0.0192773600    0.0003337102    
0.0863298910    0.0191937380    0.0003347293    
0.0865525520    0.0199135890    0.0003380043    
0.0867752130    0.0191193460    0.0003285228    
0.0869978740    0.0192112500    0.0003301506    
0.0872205350    0.0192076710    0.0003296999    
0.0874431960    0.0197283570    0.0003341391    
0.0876658570    0.0199428760    0.0003372407    
0.0878885180    0.0192616840    0.0003319993    
0.0881111790    0.0198972120    0.0003369989    
0.0883338400    0.0191969150    0.0003261689    
0.0885565010    0.0189980630    0.0003288753    
0.0887791620    0.0197010220    0.0003305615    
0.0890018230    0.0199493470    0.0003358647    
0.0892244840    0.0193817650    0.0003316152    
0.0894471450    0.0191227330    0.0003280004    
0.0896698060    0.0197325320    0.0003319323    
0.0898924670    0.0194312350    0.0003309153    
0.0901151280    0.0191957110    0.0003253510    
0.0903377890    0.0200342140    0.0003351628    
0.0905604500    0.0198785300    0.0003323258    
0.0907831110    0.0190058040    0.0003241405    
0.0910057720    0.0194261140    0.0003292089    
0.0912284330    0.0196435150    0.0003263060    
0.0914510940    0.0189036210    0.0003236713    
0.0916737550    0.0188760880    0.0003226328    
0.0918964160    0.0192224750    0.0003269336    
0.0921190770    0.0195699030    0.0003268923    
0.0923417380    0.0192853970    0.0003246405    
0.0925643990    0.0195935450    0.0003264231    
0.0927870600    0.0193488470    0.0003257086    
0.0930097210    0.0198075810    0.0003267404    
0.0932323820    0.0194161890    0.0003258741    
