# Diamond Light Source Ltd.
# Data extracted from: /dls/b21/data/2018/cm19678-3/processed/b21-386631_00051.dat
q(1/A)          Column          Error           
0.0035000000    2.0797220000    0.0245592690    
0.0037226610    1.8410370000    0.0226205080    
0.0039453220    1.6117125000    0.0192540240    
0.0041679830    1.2985611000    0.0141929840    
0.0043906440    0.9640893500    0.0116973230    
0.0046133050    0.7813553800    0.0101091820    
0.0048359660    0.5922636600    0.0083252429    
0.0050586270    0.4559632600    0.0071798560    
0.0052812880    0.4323649900    0.0066104363    
0.0055039490    0.3823160500    0.0059105336    
0.0057266100    0.3237723600    0.0052619833    
0.0059492710    0.2657054500    0.0047668319    
0.0061719320    0.2255240700    0.0042318838    
0.0063945930    0.1989740800    0.0040231690    
0.0066172539    0.1798864800    0.0035919871    
0.0068399149    0.1654406300    0.0033904900    
0.0070625759    0.1543048200    0.0032408113    
0.0072852369    0.1297762700    0.0029276154    
0.0075078979    0.1142475500    0.0027333828    
0.0077305589    0.1010634000    0.0025218609    
0.0079532199    0.0977310820    0.0024455708    
0.0081758809    0.0915782550    0.0023893593    
0.0083985419    0.0870953250    0.0021733120    
0.0086212029    0.0797741240    0.0020799635    
0.0088438639    0.0687855880    0.0019158919    
0.0090665249    0.0655594950    0.0018065197    
0.0092891859    0.0658367320    0.0018895523    
0.0095118469    0.0609869190    0.0017489198    
0.0097345079    0.0571482130    0.0016442551    
0.0099571689    0.0544526250    0.0015719119    
0.0101798300    0.0492796350    0.0014953834    
0.0104024910    0.0475494840    0.0014639275    
0.0106251520    0.0453772120    0.0014349535    
0.0108478130    0.0456603160    0.0014017844    
0.0110704740    0.0452498550    0.0013285815    
0.0112931350    0.0419061470    0.0012823073    
0.0115157960    0.0405268960    0.0012536757    
0.0117384570    0.0361729350    0.0011742232    
0.0119611180    0.0380292790    0.0012074308    
0.0121837790    0.0375028060    0.0011788906    
0.0124064400    0.0359728440    0.0011064640    
0.0126291010    0.0338501090    0.0010598880    
0.0128517620    0.0347864710    0.0010771302    
0.0130744230    0.0328922970    0.0010396261    
0.0132970840    0.0328317150    0.0010335892    
0.0135197450    0.0308232560    0.0009871342    
0.0137424060    0.0310468900    0.0009769164    
0.0139650670    0.0327646540    0.0009812240    
0.0141877280    0.0300761630    0.0009421832    
0.0144103890    0.0294755200    0.0009166451    
0.0146330500    0.0298904930    0.0009172143    
0.0148557110    0.0287193420    0.0008952963    
0.0150783720    0.0279995490    0.0008766999    
0.0153010330    0.0269487490    0.0008479650    
0.0155236940    0.0264182820    0.0008345852    
0.0157463550    0.0275475800    0.0008374711    
0.0159690160    0.0258228740    0.0008077540    
0.0161916770    0.0267319260    0.0008172188    
0.0164143380    0.0256674440    0.0008068492    
0.0166369990    0.0264437430    0.0007937092    
0.0168596600    0.0271032780    0.0007964665    
0.0170823210    0.0257849250    0.0007701283    
0.0173049820    0.0248124130    0.0007567715    
0.0175276430    0.0243720810    0.0007579357    
0.0177503040    0.0246450500    0.0007427387    
0.0179729650    0.0236100810    0.0007197660    
0.0181956260    0.0246133310    0.0007208105    
0.0184182870    0.0239427420    0.0007075728    
0.0186409480    0.0233362060    0.0007029743    
0.0188636090    0.0238172930    0.0007057169    
0.0190862700    0.0227631400    0.0006888439    
0.0193089310    0.0226714530    0.0006863837    
0.0195315920    0.0228814410    0.0006661045    
0.0197542530    0.0227536830    0.0006652100    
0.0199769140    0.0227147950    0.0006646414    
0.0201995750    0.0223858420    0.0006494792    
0.0204222360    0.0226759720    0.0006592855    
0.0206448970    0.0224870680    0.0006518675    
0.0208675580    0.0217154950    0.0006273954    
0.0210902190    0.0219702780    0.0006371543    
0.0213128800    0.0218635520    0.0006269804    
0.0215355410    0.0229782670    0.0006351078    
0.0217582020    0.0225043160    0.0006285239    
0.0219808630    0.0225327990    0.0006280958    
0.0222035240    0.0216449080    0.0006100183    
0.0224261850    0.0215990850    0.0006039487    
0.0226488460    0.0223072730    0.0006091610    
0.0228715070    0.0216337990    0.0005984047    
0.0230941680    0.0223455560    0.0006081690    
0.0233168290    0.0226566320    0.0006139129    
0.0235394900    0.0223219970    0.0006026373    
0.0237621510    0.0210284730    0.0005691692    
0.0239848120    0.0217874510    0.0005800199    
0.0242074730    0.0206651110    0.0005603615    
0.0244301340    0.0208645960    0.0005637022    
0.0246527950    0.0211286800    0.0005725110    
0.0248754560    0.0215978710    0.0005658237    
0.0250981170    0.0213369470    0.0005636496    
0.0253207780    0.0215532950    0.0005495858    
0.0255434390    0.0210567460    0.0005490159    
0.0257661000    0.0208618230    0.0005482365    
0.0259887610    0.0210130950    0.0005443734    
0.0262114220    0.0205106790    0.0005406916    
0.0264340830    0.0208023060    0.0005371132    
0.0266567440    0.0200255250    0.0005237333    
0.0268794050    0.0213024850    0.0005379690    
0.0271020660    0.0211303540    0.0005336220    
0.0273247270    0.0203180930    0.0005201225    
0.0275473880    0.0218021920    0.0005377114    
0.0277700490    0.0198677170    0.0005102680    
0.0279927100    0.0205527480    0.0005144622    
0.0282153710    0.0204410010    0.0005155561    
0.0284380320    0.0203589330    0.0005115374    
0.0286606930    0.0201761550    0.0005048774    
0.0288833540    0.0205192000    0.0005101186    
0.0291060150    0.0204802740    0.0005091509    
0.0293286760    0.0202334810    0.0004990220    
0.0295513370    0.0203852250    0.0004954354    
0.0297739980    0.0202581180    0.0004993260    
0.0299966590    0.0201071040    0.0004889649    
0.0302193200    0.0195713590    0.0004894369    
0.0304419810    0.0207613750    0.0005050249    
0.0306646420    0.0206152710    0.0004890411    
0.0308873030    0.0208286050    0.0004894417    
0.0311099640    0.0206247640    0.0004883055    
0.0313326250    0.0208260940    0.0004852472    
0.0315552860    0.0199308470    0.0004808550    
0.0317779470    0.0204769230    0.0004878224    
0.0320006080    0.0200009780    0.0004711659    
0.0322232690    0.0202919000    0.0004765668    
0.0324459300    0.0204641650    0.0004750125    
0.0326685910    0.0198802370    0.0004674146    
0.0328912520    0.0207090640    0.0004786384    
0.0331139130    0.0200229120    0.0004645200    
0.0333365740    0.0208907300    0.0004760203    
0.0335592350    0.0204590020    0.0004665463    
0.0337818960    0.0203202140    0.0004645910    
0.0340045570    0.0201921870    0.0004623896    
0.0342272170    0.0206004810    0.0004651988    
0.0344498780    0.0193874880    0.0004530826    
0.0346725390    0.0198592210    0.0004500691    
0.0348952000    0.0206186640    0.0004565049    
0.0351178610    0.0205018410    0.0004572933    
0.0353405220    0.0199718290    0.0004492875    
0.0355631830    0.0203031750    0.0004512931    
0.0357858440    0.0206041250    0.0004546257    
0.0360085050    0.0199416520    0.0004486087    
0.0362311660    0.0197462660    0.0004410990    
0.0364538270    0.0192172580    0.0004316578    
0.0366764880    0.0200897890    0.0004410282    
0.0368991490    0.0198781650    0.0004364876    
0.0371218100    0.0199075340    0.0004355603    
0.0373444710    0.0205090310    0.0004469058    
0.0375671320    0.0195365950    0.0004355469    
0.0377897930    0.0200768970    0.0004300985    
0.0380124540    0.0190701050    0.0004218059    
0.0382351150    0.0196952140    0.0004286636    
0.0384577760    0.0194359510    0.0004217242    
0.0386804370    0.0203562160    0.0004348864    
0.0389030980    0.0192438140    0.0004196348    
0.0391257590    0.0203916090    0.0004290356    
0.0393484200    0.0187393000    0.0004099022    
0.0395710810    0.0199226070    0.0004232152    
0.0397937420    0.0201653610    0.0004257860    
0.0400164030    0.0194415290    0.0004197752    
0.0402390640    0.0195272390    0.0004150975    
0.0404617250    0.0199253660    0.0004168341    
0.0406843860    0.0196619340    0.0004100688    
0.0409070470    0.0206325330    0.0004244443    
0.0411297080    0.0198242170    0.0004120221    
0.0413523690    0.0191604750    0.0004061100    
0.0415750300    0.0200301490    0.0004187513    
0.0417976910    0.0205692540    0.0004133741    
0.0420203520    0.0192677400    0.0004015856    
0.0422430130    0.0198777490    0.0004094373    
0.0424656740    0.0198566080    0.0004038934    
0.0426883350    0.0194816980    0.0004020479    
0.0429109960    0.0199292400    0.0004079102    
0.0431336570    0.0190713510    0.0003934119    
0.0433563180    0.0195669320    0.0004019283    
0.0435789790    0.0197648160    0.0003976092    
0.0438016400    0.0206030680    0.0004081616    
0.0440243010    0.0199890390    0.0003979544    
0.0442469620    0.0200368770    0.0004008177    
0.0444696230    0.0194794820    0.0003937861    
0.0446922840    0.0201236420    0.0003990556    
0.0449149450    0.0197894780    0.0003904382    
0.0451376060    0.0200286760    0.0003976418    
0.0453602670    0.0196341340    0.0003895784    
0.0455829280    0.0195501930    0.0003882952    
0.0458055890    0.0200675510    0.0003956935    
0.0460282500    0.0194798820    0.0003851555    
0.0462509110    0.0200731350    0.0003885446    
0.0464735720    0.0196591060    0.0003847338    
0.0466962330    0.0193975670    0.0003839033    
0.0469188940    0.0198165890    0.0003869277    
0.0471415550    0.0199138090    0.0003898677    
0.0473642160    0.0192042180    0.0003774979    
0.0475868770    0.0201232720    0.0003845055    
0.0478095380    0.0200349330    0.0003819817    
0.0480321990    0.0192304260    0.0003750538    
0.0482548600    0.0193460150    0.0003745403    
0.0484775210    0.0191478230    0.0003763166    
0.0487001820    0.0193525110    0.0003727846    
0.0489228430    0.0188295960    0.0003675161    
0.0491455040    0.0198646280    0.0003748710    
0.0493681650    0.0199484380    0.0003788893    
0.0495908260    0.0197280160    0.0003704506    
0.0498134870    0.0195595230    0.0003723766    
0.0500361480    0.0194773150    0.0003706101    
0.0502588090    0.0197190640    0.0003673155    
0.0504814700    0.0194093850    0.0003691839    
0.0507041310    0.0196499330    0.0003670481    
0.0509267920    0.0199096350    0.0003709941    
0.0511494530    0.0193244090    0.0003630638    
0.0513721140    0.0194788440    0.0003677218    
0.0515947750    0.0190130540    0.0003584817    
0.0518174360    0.0196127350    0.0003618980    
0.0520400970    0.0199673240    0.0003626229    
0.0522627580    0.0198459930    0.0003645919    
0.0524854190    0.0199658080    0.0003686641    
0.0527080800    0.0198199110    0.0003701586    
0.0529307410    0.0194901310    0.0003687901    
0.0531534020    0.0200065880    0.0003722840    
0.0533760630    0.0198183480    0.0003716884    
0.0535987240    0.0197925620    0.0003697123    
0.0538213850    0.0193139460    0.0003694462    
0.0540440460    0.0196215800    0.0003706145    
0.0542667070    0.0200065140    0.0003768113    
0.0544893680    0.0198786430    0.0003758053    
0.0547120290    0.0196562630    0.0003711372    
0.0549346900    0.0197751610    0.0003724539    
0.0551573510    0.0193961150    0.0003732093    
0.0553800120    0.0197383870    0.0003732872    
0.0556026730    0.0199033990    0.0003826162    
0.0558253340    0.0201633280    0.0003883312    
0.0560479950    0.0191836000    0.0003787795    
0.0562706560    0.0199909150    0.0003904059    
0.0564933170    0.0194863120    0.0003887943    
0.0567159780    0.0192111550    0.0003814110    
0.0569386390    0.0190764310    0.0003860329    
0.0571613000    0.0196100010    0.0003829669    
0.0573839610    0.0195872790    0.0003795671    
0.0576066220    0.0198733830    0.0003833875    
0.0578292830    0.0196759560    0.0003802162    
0.0580519440    0.0194364110    0.0003793599    
0.0582746050    0.0199332400    0.0003824838    
0.0584972660    0.0198683300    0.0003803988    
0.0587199270    0.0192838880    0.0003715316    
0.0589425880    0.0197593480    0.0003738842    
0.0591652490    0.0198708930    0.0003771444    
0.0593879100    0.0197743020    0.0003734325    
0.0596105710    0.0194088890    0.0003695758    
0.0598332320    0.0191265110    0.0003700135    
0.0600558930    0.0197667890    0.0003737575    
0.0602785540    0.0187095020    0.0003632400    
0.0605012150    0.0195366510    0.0003704005    
0.0607238760    0.0190245660    0.0003628502    
0.0609465370    0.0188331960    0.0003638628    
0.0611691980    0.0194077550    0.0003699569    
0.0613918590    0.0196003230    0.0003677288    
0.0616145200    0.0203433120    0.0003773756    
0.0618371810    0.0194926780    0.0003657736    
0.0620598420    0.0193747010    0.0003650410    
0.0622825030    0.0190430610    0.0003674377    
0.0625051640    0.0199178910    0.0003705053    
0.0627278250    0.0189162170    0.0003603252    
0.0629504860    0.0194202030    0.0003621257    
0.0631731470    0.0195161610    0.0003675106    
0.0633958080    0.0194264260    0.0003687749    
0.0636184690    0.0194963170    0.0003745830    
0.0638411300    0.0189359300    0.0003677746    
0.0640637910    0.0198406860    0.0003791060    
0.0642864520    0.0194015010    0.0003740754    
0.0645091130    0.0197356850    0.0003805895    
0.0647317740    0.0192054880    0.0003758564    
0.0649544350    0.0194715100    0.0003780341    
0.0651770960    0.0199565750    0.0003806262    
0.0653997570    0.0197761470    0.0003780799    
0.0656224180    0.0204502730    0.0003853059    
0.0658450790    0.0197678870    0.0003733780    
0.0660677400    0.0200218570    0.0003773681    
0.0662904010    0.0192864280    0.0003747942    
0.0665130620    0.0193866220    0.0003741364    
0.0667357230    0.0196558050    0.0003834230    
0.0669583840    0.0197993860    0.0003835333    
0.0671810450    0.0196989160    0.0003804468    
0.0674037060    0.0193310070    0.0003832621    
0.0676263670    0.0196929350    0.0003840012    
0.0678490280    0.0200741070    0.0003853287    
0.0680716890    0.0194057430    0.0003797027    
0.0682943500    0.0195280540    0.0003767256    
0.0685170110    0.0191107360    0.0003688809    
0.0687396720    0.0188322610    0.0003652105    
0.0689623330    0.0193746310    0.0003692584    
0.0691849940    0.0191445500    0.0003696024    
0.0694076550    0.0193094450    0.0003709926    
0.0696303160    0.0198257130    0.0003729432    
0.0698529770    0.0196099620    0.0003701311    
0.0700756380    0.0199266770    0.0003683185    
0.0702982990    0.0195838730    0.0003691130    
0.0705209600    0.0201386540    0.0003716024    
0.0707436210    0.0199609030    0.0003682598    
0.0709662820    0.0198065710    0.0003712065    
0.0711889430    0.0193841010    0.0003627159    
0.0714116040    0.0203356310    0.0003722702    
0.0716342650    0.0194948620    0.0003630133    
0.0718569260    0.0194051980    0.0003607188    
0.0720795870    0.0199004930    0.0003667710    
0.0723022480    0.0196289560    0.0003648152    
0.0725249090    0.0196315650    0.0003604702    
0.0727475700    0.0194230320    0.0003616131    
0.0729702310    0.0198366240    0.0003625283    
0.0731928920    0.0194345050    0.0003602691    
0.0734155530    0.0191574680    0.0003569783    
0.0736382140    0.0198251520    0.0003608153    
0.0738608750    0.0195566330    0.0003606786    
0.0740835360    0.0197111700    0.0003612019    
0.0743061970    0.0199577630    0.0003583364    
0.0745288580    0.0196479520    0.0003592001    
0.0747515190    0.0194025910    0.0003576552    
0.0749741800    0.0197633660    0.0003576238    
0.0751968410    0.0197988540    0.0003607552    
0.0754195020    0.0193856370    0.0003548793    
0.0756421630    0.0200733440    0.0003581672    
0.0758648240    0.0198167880    0.0003567264    
0.0760874850    0.0195539770    0.0003541829    
0.0763101460    0.0192603500    0.0003511763    
0.0765328070    0.0194866210    0.0003568476    
0.0767554680    0.0202609250    0.0003613991    
0.0769781290    0.0200924600    0.0003578254    
0.0772007900    0.0188810240    0.0003440885    
0.0774234510    0.0191535040    0.0003485337    
0.0776461120    0.0196362610    0.0003525640    
0.0778687730    0.0196891020    0.0003518717    
0.0780914340    0.0196525470    0.0003540568    
0.0783140950    0.0197381540    0.0003491975    
0.0785367560    0.0196972520    0.0003544598    
0.0787594170    0.0188885380    0.0003439970    
0.0789820780    0.0197248020    0.0003497283    
0.0792047390    0.0198227840    0.0003517421    
0.0794274000    0.0194812690    0.0003501764    
0.0796500610    0.0197756100    0.0003493684    
0.0798727220    0.0194125970    0.0003458274    
0.0800953830    0.0199795870    0.0003500346    
0.0803180440    0.0195935720    0.0003490514    
0.0805407050    0.0192592270    0.0003457387    
0.0807633660    0.0190190510    0.0003432572    
0.0809860270    0.0187681550    0.0003397264    
0.0812086880    0.0196478630    0.0003445933    
0.0814313490    0.0195347410    0.0003451669    
0.0816540100    0.0194580370    0.0003437043    
0.0818766710    0.0194799080    0.0003446827    
0.0820993320    0.0199619510    0.0003482854    
0.0823219930    0.0190731230    0.0003418474    
0.0825446540    0.0195940240    0.0003439666    
0.0827673150    0.0195103530    0.0003409255    
0.0829899760    0.0199811410    0.0003444001    
0.0832126370    0.0190285270    0.0003375954    
0.0834352980    0.0195219120    0.0003411796    
0.0836579590    0.0196666110    0.0003416794    
0.0838806200    0.0201243980    0.0003467148    
0.0841032810    0.0194269590    0.0003385392    
0.0843259420    0.0199348520    0.0003418799    
0.0845486030    0.0191198970    0.0003348190    
0.0847712640    0.0197100230    0.0003378751    
0.0849939250    0.0198368500    0.0003395507    
0.0852165860    0.0194051820    0.0003362758    
0.0854392470    0.0194053110    0.0003330924    
0.0856619080    0.0197154110    0.0003382160    
0.0858845690    0.0195727030    0.0003339546    
0.0861072300    0.0193817130    0.0003346154    
0.0863298910    0.0191824300    0.0003346338    
0.0865525520    0.0197418520    0.0003365469    
0.0867752130    0.0199946910    0.0003359622    
0.0869978740    0.0191038140    0.0003292293    
0.0872205350    0.0199946950    0.0003363899    
0.0874431960    0.0193042780    0.0003305314    
0.0876658570    0.0192874160    0.0003316555    
0.0878885180    0.0197084100    0.0003358304    
0.0881111790    0.0195094580    0.0003337023    
0.0883338400    0.0193081210    0.0003271154    
0.0885565010    0.0196189920    0.0003342097    
0.0887791620    0.0191411950    0.0003258341    
0.0890018230    0.0189940860    0.0003277279    
0.0892244840    0.0195069620    0.0003326877    
0.0894471450    0.0186617580    0.0003240260    
0.0896698060    0.0188674300    0.0003245777    
0.0898924670    0.0189920280    0.0003271571    
0.0901151280    0.0193504850    0.0003266632    
0.0903377890    0.0194458390    0.0003302077    
0.0905604500    0.0192066490    0.0003266645    
0.0907831110    0.0185915480    0.0003205916    
0.0910057720    0.0192981650    0.0003281261    
0.0912284330    0.0197251970    0.0003269869    
0.0914510940    0.0191034960    0.0003253810    
0.0916737550    0.0195602580    0.0003284309    
0.0918964160    0.0189781780    0.0003248526    
0.0921190770    0.0195648160    0.0003268529    
0.0923417380    0.0198103990    0.0003290328    
0.0925643990    0.0195939190    0.0003264293    
0.0927870600    0.0191299010    0.0003238637    
0.0930097210    0.0195492430    0.0003246057    
0.0932323820    0.0193946820    0.0003256966    
