# Diamond Light Source Ltd.
# Data extracted from: /dls/b21/data/2018/cm19678-3/processed/b21-386631_00044.dat
q(1/A)          Column          Error           
0.0035000000    2.0974606000    0.0246606520    
0.0037226610    1.8711346000    0.0228017660    
0.0039453220    1.6285501000    0.0193518800    
0.0041679830    1.3044349000    0.0142232420    
0.0043906440    0.9808711500    0.0117971930    
0.0046133050    0.7786725900    0.0100905310    
0.0048359660    0.6008879500    0.0083845737    
0.0050586270    0.4636465300    0.0072391769    
0.0052812880    0.4214437900    0.0065255867    
0.0055039490    0.3853249800    0.0059329936    
0.0057266100    0.3224932100    0.0052509120    
0.0059492710    0.2737601700    0.0048379303    
0.0061719320    0.2249904800    0.0042263380    
0.0063945930    0.2018513000    0.0040516383    
0.0066172539    0.1843583500    0.0036358987    
0.0068399149    0.1716505700    0.0034530978    
0.0070625759    0.1488898300    0.0031830347    
0.0072852369    0.1306677100    0.0029372802    
0.0075078979    0.1095112000    0.0026757845    
0.0077305589    0.1031767700    0.0025477688    
0.0079532199    0.0940965840    0.0023993615    
0.0081758809    0.0924898780    0.0024009176    
0.0083985419    0.0804044690    0.0020878996    
0.0086212029    0.0768803470    0.0020416309    
0.0088438639    0.0730361250    0.0019739493    
0.0090665249    0.0665381870    0.0018197229    
0.0092891859    0.0660368880    0.0018921822    
0.0095118469    0.0598181940    0.0017318612    
0.0097345079    0.0568026320    0.0016390680    
0.0099571689    0.0524880780    0.0015430997    
0.0101798300    0.0531232070    0.0015524079    
0.0104024910    0.0492046020    0.0014889990    
0.0106251520    0.0470895890    0.0014615922    
0.0108478130    0.0468103790    0.0014191481    
0.0110704740    0.0416894960    0.0012750810    
0.0112931350    0.0400910210    0.0012540697    
0.0115157960    0.0416797640    0.0012712209    
0.0117384570    0.0382596490    0.0012074638    
0.0119611180    0.0385945190    0.0012162165    
0.0121837790    0.0369005070    0.0011692373    
0.0124064400    0.0368823680    0.0011202222    
0.0126291010    0.0334765580    0.0010538898    
0.0128517620    0.0346109200    0.0010742725    
0.0130744230    0.0326868400    0.0010362425    
0.0132970840    0.0337342370    0.0010475663    
0.0135197450    0.0322376820    0.0010094010    
0.0137424060    0.0309775450    0.0009757010    
0.0139650670    0.0306998840    0.0009496828    
0.0141877280    0.0317504770    0.0009679304    
0.0144103890    0.0298100260    0.0009217147    
0.0146330500    0.0295171070    0.0009113518    
0.0148557110    0.0289631770    0.0008989748    
0.0150783720    0.0284864250    0.0008841771    
0.0153010330    0.0274487360    0.0008556865    
0.0155236940    0.0265960870    0.0008372828    
0.0157463550    0.0263188240    0.0008184765    
0.0159690160    0.0274835170    0.0008332165    
0.0161916770    0.0257260690    0.0008015947    
0.0164143380    0.0274866070    0.0008348462    
0.0166369990    0.0243411220    0.0007614040    
0.0168596600    0.0252478520    0.0007686236    
0.0170823210    0.0253644530    0.0007637263    
0.0173049820    0.0239753980    0.0007438032    
0.0175276430    0.0251435290    0.0007697399    
0.0177503040    0.0245045220    0.0007405241    
0.0179729650    0.0237576450    0.0007219201    
0.0181956260    0.0231720210    0.0006992988    
0.0184182870    0.0226614350    0.0006882921    
0.0186409480    0.0231820860    0.0007005602    
0.0188636090    0.0236230980    0.0007027448    
0.0190862700    0.0239869250    0.0007070285    
0.0193089310    0.0237875570    0.0007029867    
0.0195315920    0.0228174740    0.0006650883    
0.0197542530    0.0232923000    0.0006729518    
0.0199769140    0.0223396180    0.0006590460    
0.0201995750    0.0229264760    0.0006571916    
0.0204222360    0.0220186630    0.0006495774    
0.0206448970    0.0224624670    0.0006514282    
0.0208675580    0.0233771930    0.0006508749    
0.0210902190    0.0234425610    0.0006580733    
0.0213128800    0.0226309410    0.0006378077    
0.0215355410    0.0222879990    0.0006254163    
0.0217582020    0.0227793970    0.0006322734    
0.0219808630    0.0211267940    0.0006081069    
0.0222035240    0.0210206530    0.0006010810    
0.0224261850    0.0223533450    0.0006143255    
0.0226488460    0.0223182410    0.0006092334    
0.0228715070    0.0203210110    0.0005798907    
0.0230941680    0.0207347210    0.0005857640    
0.0233168290    0.0216696740    0.0006003164    
0.0235394900    0.0204945890    0.0005773696    
0.0237621510    0.0202222530    0.0005580809    
0.0239848120    0.0213188040    0.0005736751    
0.0242074730    0.0215865200    0.0005726452    
0.0244301340    0.0211942670    0.0005680660    
0.0246527950    0.0213714610    0.0005757177    
0.0248754560    0.0208958600    0.0005564814    
0.0250981170    0.0206616630    0.0005545881    
0.0253207780    0.0213516800    0.0005469398    
0.0255434390    0.0207651810    0.0005451324    
0.0257661000    0.0207989130    0.0005473398    
0.0259887610    0.0212051490    0.0005467860    
0.0262114220    0.0207192190    0.0005433644    
0.0264340830    0.0209634010    0.0005391205    
0.0266567440    0.0202943190    0.0005271696    
0.0268794050    0.0205228850    0.0005279663    
0.0271020660    0.0200741290    0.0005200482    
0.0273247270    0.0212047870    0.0005312831    
0.0275473880    0.0201658860    0.0005170740    
0.0277700490    0.0205832850    0.0005193099    
0.0279927100    0.0196463230    0.0005029259    
0.0282153710    0.0209428070    0.0005217796    
0.0284380320    0.0207906510    0.0005168670    
0.0286606930    0.0197921160    0.0004999859    
0.0288833540    0.0204505970    0.0005092005    
0.0291060150    0.0210824940    0.0005165168    
0.0293286760    0.0203267800    0.0005001077    
0.0295513370    0.0196938940    0.0004869002    
0.0297739980    0.0207082360    0.0005047787    
0.0299966590    0.0205061800    0.0004937308    
0.0302193200    0.0212550470    0.0005099906    
0.0304419810    0.0200928920    0.0004967648    
0.0306646420    0.0201461090    0.0004833829    
0.0308873030    0.0197654790    0.0004767266    
0.0311099640    0.0203883680    0.0004854373    
0.0313326250    0.0202217280    0.0004780938    
0.0315552860    0.0203781190    0.0004861589    
0.0317779470    0.0198675650    0.0004804482    
0.0320006080    0.0206505950    0.0004786955    
0.0322232690    0.0195594250    0.0004678271    
0.0324459300    0.0199849740    0.0004693585    
0.0326685910    0.0203146640    0.0004724340    
0.0328912520    0.0206927470    0.0004783891    
0.0331139130    0.0200070550    0.0004642771    
0.0333365740    0.0203540730    0.0004698067    
0.0335592350    0.0192731670    0.0004527662    
0.0337818960    0.0203044360    0.0004643517    
0.0340045570    0.0201235470    0.0004615444    
0.0342272170    0.0200491250    0.0004588729    
0.0344498780    0.0202929430    0.0004634832    
0.0346725390    0.0202722700    0.0004546678    
0.0348952000    0.0211792880    0.0004626108    
0.0351178610    0.0205476230    0.0004577455    
0.0353405220    0.0199970720    0.0004495143    
0.0355631830    0.0198166450    0.0004457965    
0.0357858440    0.0200072020    0.0004479349    
0.0360085050    0.0204814150    0.0004545817    
0.0362311660    0.0191600480    0.0004344470    
0.0364538270    0.0199103060    0.0004393167    
0.0366764880    0.0203363520    0.0004436700    
0.0368991490    0.0195856580    0.0004332093    
0.0371218100    0.0195213890    0.0004312606    
0.0373444710    0.0204843530    0.0004465801    
0.0375671320    0.0195219280    0.0004353281    
0.0377897930    0.0191045950    0.0004195015    
0.0380124540    0.0198580950    0.0004303777    
0.0382351150    0.0197648340    0.0004293660    
0.0384577760    0.0204281830    0.0004323001    
0.0386804370    0.0198494700    0.0004293848    
0.0389030980    0.0194035990    0.0004213199    
0.0391257590    0.0199893530    0.0004247290    
0.0393484200    0.0198012460    0.0004213031    
0.0395710810    0.0205557020    0.0004298325    
0.0397937420    0.0186412570    0.0004093274    
0.0400164030    0.0190832010    0.0004158359    
0.0402390640    0.0203956240    0.0004241731    
0.0404617250    0.0195367220    0.0004126965    
0.0406843860    0.0200673530    0.0004142224    
0.0409070470    0.0197369080    0.0004150772    
0.0411297080    0.0195709090    0.0004093294    
0.0413523690    0.0204808420    0.0004198163    
0.0415750300    0.0196749750    0.0004149694    
0.0417976910    0.0201736810    0.0004093280    
0.0420203520    0.0193967350    0.0004028765    
0.0422430130    0.0191560380    0.0004018847    
0.0424656740    0.0196790870    0.0004020328    
0.0426883350    0.0196924230    0.0004041651    
0.0429109960    0.0205502020    0.0004141637    
0.0431336570    0.0198372830    0.0004011832    
0.0433563180    0.0202470460    0.0004088019    
0.0435789790    0.0193759580    0.0003936285    
0.0438016400    0.0198460330    0.0004005419    
0.0440243010    0.0200314890    0.0003983262    
0.0442469620    0.0198153600    0.0003985453    
0.0444696230    0.0195541220    0.0003944898    
0.0446922840    0.0195093600    0.0003928678    
0.0449149450    0.0196381310    0.0003888930    
0.0451376060    0.0204655790    0.0004019044    
0.0453602670    0.0192968450    0.0003861687    
0.0455829280    0.0196608820    0.0003893435    
0.0458055890    0.0199376520    0.0003943607    
0.0460282500    0.0199469640    0.0003896962    
0.0462509110    0.0194966000    0.0003828755    
0.0464735720    0.0198724100    0.0003867663    
0.0466962330    0.0200534970    0.0003902907    
0.0469188940    0.0197284760    0.0003860175    
0.0471415550    0.0200003230    0.0003906641    
0.0473642160    0.0193996450    0.0003793656    
0.0475868770    0.0195452470    0.0003788949    
0.0478095380    0.0201536230    0.0003830629    
0.0480321990    0.0192547960    0.0003752438    
0.0482548600    0.0195150870    0.0003761257    
0.0484775210    0.0202594500    0.0003870369    
0.0487001820    0.0190747930    0.0003700531    
0.0489228430    0.0194487240    0.0003734619    
0.0491455040    0.0196120480    0.0003724329    
0.0493681650    0.0201160440    0.0003804293    
0.0495908260    0.0195769630    0.0003689828    
0.0498134870    0.0193773680    0.0003705916    
0.0500361480    0.0191974170    0.0003678908    
0.0502588090    0.0198645470    0.0003686212    
0.0504814700    0.0196501720    0.0003714197    
0.0507041310    0.0196312350    0.0003668269    
0.0509267920    0.0191374250    0.0003636822    
0.0511494530    0.0199264340    0.0003686290    
0.0513721140    0.0192934570    0.0003659213    
0.0515947750    0.0199069450    0.0003667653    
0.0518174360    0.0195810510    0.0003615597    
0.0520400970    0.0196264780    0.0003594689    
0.0522627580    0.0195396240    0.0003617209    
0.0524854190    0.0193550440    0.0003629354    
0.0527080800    0.0204092560    0.0003755739    
0.0529307410    0.0199944630    0.0003734837    
0.0531534020    0.0196136680    0.0003685634    
0.0533760630    0.0192000310    0.0003657978    
0.0535987240    0.0193663790    0.0003656638    
0.0538213850    0.0191606750    0.0003679306    
0.0540440460    0.0194766310    0.0003691962    
0.0542667070    0.0205548630    0.0003818918    
0.0544893680    0.0195752800    0.0003728794    
0.0547120290    0.0191258380    0.0003660489    
0.0549346900    0.0197491010    0.0003721611    
0.0551573510    0.0195563140    0.0003746998    
0.0553800120    0.0191758170    0.0003678824    
0.0556026730    0.0202439570    0.0003858267    
0.0558253340    0.0198516490    0.0003852692    
0.0560479950    0.0192385470    0.0003792734    
0.0562706560    0.0191092680    0.0003816514    
0.0564933170    0.0199699500    0.0003935395    
0.0567159780    0.0201828680    0.0003908884    
0.0569386390    0.0201805830    0.0003969972    
0.0571613000    0.0198741990    0.0003854891    
0.0573839610    0.0199205660    0.0003827341    
0.0576066220    0.0200088290    0.0003846429    
0.0578292830    0.0193110370    0.0003766260    
0.0580519440    0.0197201730    0.0003820706    
0.0582746050    0.0193852170    0.0003771414    
0.0584972660    0.0199069730    0.0003807202    
0.0587199270    0.0190929290    0.0003696406    
0.0589425880    0.0199240790    0.0003753919    
0.0591652490    0.0196583160    0.0003750740    
0.0593879100    0.0194661150    0.0003704641    
0.0596105710    0.0190732920    0.0003663202    
0.0598332320    0.0200161930    0.0003784733    
0.0600558930    0.0195498110    0.0003716533    
0.0602785540    0.0196636100    0.0003723394    
0.0605012150    0.0195176500    0.0003701733    
0.0607238760    0.0193795140    0.0003661730    
0.0609465370    0.0193414700    0.0003686933    
0.0611691980    0.0194239790    0.0003700645    
0.0613918590    0.0199815990    0.0003712410    
0.0616145200    0.0200512020    0.0003746089    
0.0618371810    0.0203248780    0.0003734525    
0.0620598420    0.0194247910    0.0003654661    
0.0622825030    0.0195272960    0.0003720329    
0.0625051640    0.0189550890    0.0003613937    
0.0627278250    0.0193780250    0.0003646508    
0.0629504860    0.0200903520    0.0003682740    
0.0631731470    0.0195042880    0.0003673521    
0.0633958080    0.0196314560    0.0003706688    
0.0636184690    0.0191747850    0.0003714342    
0.0638411300    0.0194595660    0.0003727777    
0.0640637910    0.0197270200    0.0003779705    
0.0642864520    0.0189206740    0.0003693641    
0.0645091130    0.0199948260    0.0003830314    
0.0647317740    0.0193329800    0.0003770540    
0.0649544350    0.0196426690    0.0003796438    
0.0651770960    0.0188628490    0.0003700021    
0.0653997570    0.0192508330    0.0003729773    
0.0656224180    0.0198789770    0.0003798377    
0.0658450790    0.0199391340    0.0003749441    
0.0660677400    0.0202656510    0.0003796104    
0.0662904010    0.0198640560    0.0003803170    
0.0665130620    0.0186959420    0.0003673647    
0.0667357230    0.0196283830    0.0003831068    
0.0669583840    0.0198092150    0.0003835798    
0.0671810450    0.0194294690    0.0003777879    
0.0674037060    0.0187791340    0.0003777038    
0.0676263670    0.0197403370    0.0003844143    
0.0678490280    0.0191224990    0.0003760368    
0.0680716890    0.0195716510    0.0003812740    
0.0682943500    0.0198863840    0.0003801180    
0.0685170110    0.0194973990    0.0003725467    
0.0687396720    0.0201374030    0.0003776058    
0.0689623330    0.0187857370    0.0003635571    
0.0691849940    0.0193537010    0.0003715687    
0.0694076550    0.0193686780    0.0003715140    
0.0696303160    0.0193297210    0.0003682019    
0.0698529770    0.0192557670    0.0003667266    
0.0700756380    0.0205613980    0.0003740910    
0.0702982990    0.0196554090    0.0003697396    
0.0705209600    0.0195714200    0.0003662851    
0.0707436210    0.0186924640    0.0003563218    
0.0709662820    0.0194816020    0.0003681019    
0.0711889430    0.0198541600    0.0003670408    
0.0714116040    0.0199898110    0.0003690444    
0.0716342650    0.0194561240    0.0003626064    
0.0718569260    0.0198896360    0.0003651473    
0.0720795870    0.0191993710    0.0003602064    
0.0723022480    0.0190613510    0.0003594562    
0.0725249090    0.0192494010    0.0003568990    
0.0727475700    0.0199632880    0.0003665612    
0.0729702310    0.0188313970    0.0003531784    
0.0731928920    0.0200972540    0.0003663140    
0.0734155530    0.0195250160    0.0003603407    
0.0736382140    0.0195378190    0.0003581456    
0.0738608750    0.0193122600    0.0003583726    
0.0740835360    0.0196995490    0.0003610496    
0.0743061970    0.0194895780    0.0003540635    
0.0745288580    0.0197217460    0.0003598284    
0.0747515190    0.0199513200    0.0003626314    
0.0749741800    0.0199653790    0.0003594013    
0.0751968410    0.0194192440    0.0003572347    
0.0754195020    0.0192378290    0.0003534789    
0.0756421630    0.0190715440    0.0003490709    
0.0758648240    0.0187909960    0.0003473269    
0.0760874850    0.0196772870    0.0003552528    
0.0763101460    0.0198315880    0.0003563008    
0.0765328070    0.0195208730    0.0003571157    
0.0767554680    0.0196757550    0.0003560968    
0.0769781290    0.0193037420    0.0003506874    
0.0772007900    0.0197664420    0.0003520193    
0.0774234510    0.0193705630    0.0003504585    
0.0776461120    0.0191503040    0.0003481298    
0.0778687730    0.0191937300    0.0003473729    
0.0780914340    0.0195136410    0.0003527586    
0.0783140950    0.0197640240    0.0003493819    
0.0785367560    0.0197432680    0.0003548285    
0.0787594170    0.0194411730    0.0003489487    
0.0789820780    0.0195400160    0.0003480421    
0.0792047390    0.0195369580    0.0003491527    
0.0794274000    0.0194826170    0.0003501441    
0.0796500610    0.0193386480    0.0003454432    
0.0798727220    0.0192413700    0.0003442552    
0.0800953830    0.0189874380    0.0003411896    
0.0803180440    0.0200983620    0.0003534743    
0.0805407050    0.0199927420    0.0003522164    
0.0807633660    0.0192309970    0.0003451207    
0.0809860270    0.0191261160    0.0003429073    
0.0812086880    0.0193891060    0.0003422732    
0.0814313490    0.0193224730    0.0003432429    
0.0816540100    0.0202482160    0.0003505692    
0.0818766710    0.0190115640    0.0003404707    
0.0820993320    0.0197928540    0.0003467631    
0.0823219930    0.0193194210    0.0003440038    
0.0825446540    0.0192208110    0.0003406318    
0.0827673150    0.0197853250    0.0003432759    
0.0829899760    0.0195487730    0.0003406103    
0.0832126370    0.0195326710    0.0003419949    
0.0834352980    0.0196421420    0.0003421851    
0.0836579590    0.0195488600    0.0003406118    
0.0838806200    0.0200356830    0.0003459058    
0.0841032810    0.0195812730    0.0003398380    
0.0843259420    0.0191736320    0.0003352464    
0.0845486030    0.0197715550    0.0003404338    
0.0847712640    0.0188538180    0.0003304130    
0.0849939250    0.0194425000    0.0003361160    
0.0852165860    0.0193886040    0.0003360895    
0.0854392470    0.0200120060    0.0003382163    
0.0856619080    0.0198612210    0.0003394213    
0.0858845690    0.0190493460    0.0003294177    
0.0861072300    0.0198792610    0.0003388401    
0.0863298910    0.0191542150    0.0003343452    
0.0865525520    0.0188535300    0.0003288462    
0.0867752130    0.0196340680    0.0003328765    
0.0869978740    0.0188890860    0.0003273323    
0.0872205350    0.0197180370    0.0003340122    
0.0874431960    0.0187562110    0.0003257642    
0.0876658570    0.0192312060    0.0003311299    
0.0878885180    0.0200180660    0.0003384154    
0.0881111790    0.0195216250    0.0003337639    
0.0883338400    0.0198018670    0.0003312294    
0.0885565010    0.0194603320    0.0003328133    
0.0887791620    0.0193525970    0.0003275869    
0.0890018230    0.0194132580    0.0003312823    
0.0892244840    0.0197913070    0.0003350611    
0.0894471450    0.0194051010    0.0003303744    
0.0896698060    0.0198897860    0.0003332132    
0.0898924670    0.0198041640    0.0003340365    
0.0901151280    0.0196873860    0.0003294527    
0.0903377890    0.0198557310    0.0003336273    
0.0905604500    0.0192517640    0.0003270064    
0.0907831110    0.0198137910    0.0003309200    
0.0910057720    0.0198287260    0.0003325638    
0.0912284330    0.0196605790    0.0003264094    
0.0914510940    0.0200073140    0.0003329470    
0.0916737550    0.0190701320    0.0003242488    
0.0918964160    0.0192401990    0.0003270459    
0.0921190770    0.0199419840    0.0003299465    
0.0923417380    0.0197398080    0.0003284044    
0.0925643990    0.0196487500    0.0003268442    
0.0927870600    0.0195690480    0.0003275183    
0.0930097210    0.0194580640    0.0003238067    
0.0932323820    0.0194280350    0.0003259352    
