# Diamond Light Source Ltd.
# Data extracted from: /dls/b21/data/2018/cm19678-3/processed/b21-386631_00054.dat
q(1/A)          Column          Error           
0.0035000000    2.0739205000    0.0245301280    
0.0037226610    1.9132676000    0.0230648130    
0.0039453220    1.6291861000    0.0193621720    
0.0041679830    1.2801720000    0.0140950840    
0.0043906440    0.9789757100    0.0117897550    
0.0046133050    0.7797201400    0.0101007140    
0.0048359660    0.5963753200    0.0083558415    
0.0050586270    0.4641848400    0.0072458156    
0.0052812880    0.4190986400    0.0065095952    
0.0055039490    0.3841217300    0.0059257163    
0.0057266100    0.3195447900    0.0052286123    
0.0059492710    0.2750566600    0.0048510044    
0.0061719320    0.2226792000    0.0042059886    
0.0063945930    0.1955580900    0.0039893203    
0.0066172539    0.1835496300    0.0036291360    
0.0068399149    0.1667611900    0.0034047080    
0.0070625759    0.1470153200    0.0031639986    
0.0072852369    0.1269895800    0.0028966192    
0.0075078979    0.1142300100    0.0027337456    
0.0077305589    0.1004762100    0.0025150509    
0.0079532199    0.0977108190    0.0024458297    
0.0081758809    0.0926768700    0.0024041522    
0.0083985419    0.0808383700    0.0020942302    
0.0086212029    0.0827372710    0.0021186844    
0.0088438639    0.0724980430    0.0019673263    
0.0090665249    0.0668319780    0.0018243496    
0.0092891859    0.0647792450    0.0018747084    
0.0095118469    0.0620661480    0.0017646962    
0.0097345079    0.0581660510    0.0016591805    
0.0099571689    0.0528411830    0.0015488025    
0.0101798300    0.0519332690    0.0015354393    
0.0104024910    0.0481555760    0.0014735367    
0.0106251520    0.0458047960    0.0014420004    
0.0108478130    0.0468849420    0.0014207558    
0.0110704740    0.0426931800    0.0012907729    
0.0112931350    0.0421199820    0.0012858441    
0.0115157960    0.0394575370    0.0012372843    
0.0117384570    0.0389717950    0.0012190597    
0.0119611180    0.0365494880    0.0011839541    
0.0121837790    0.0362580200    0.0011594036    
0.0124064400    0.0359538730    0.0011064040    
0.0126291010    0.0344287000    0.0010691318    
0.0128517620    0.0332995660    0.0010540794    
0.0130744230    0.0335306730    0.0010498861    
0.0132970840    0.0334965250    0.0010442201    
0.0135197450    0.0328602930    0.0010194447    
0.0137424060    0.0315519400    0.0009850366    
0.0139650670    0.0303089820    0.0009439349    
0.0141877280    0.0302364060    0.0009448877    
0.0144103890    0.0307997130    0.0009372054    
0.0146330500    0.0282698980    0.0008921901    
0.0148557110    0.0273632180    0.0008740859    
0.0150783720    0.0291097650    0.0008940993    
0.0153010330    0.0274939060    0.0008566784    
0.0155236940    0.0263766010    0.0008341013    
0.0157463550    0.0274063030    0.0008354959    
0.0159690160    0.0256061990    0.0008045266    
0.0161916770    0.0260433090    0.0008067933    
0.0164143380    0.0274543610    0.0008346372    
0.0166369990    0.0256921650    0.0007825126    
0.0168596600    0.0244453200    0.0007565637    
0.0170823210    0.0262559580    0.0007772935    
0.0173049820    0.0247535390    0.0007560315    
0.0175276430    0.0245237790    0.0007604501    
0.0177503040    0.0240283570    0.0007335407    
0.0179729650    0.0246078000    0.0007349706    
0.0181956260    0.0241168130    0.0007136526    
0.0184182870    0.0232205950    0.0006969664    
0.0186409480    0.0230282100    0.0006984662    
0.0188636090    0.0229277380    0.0006925577    
0.0190862700    0.0233983030    0.0006985346    
0.0193089310    0.0235748880    0.0007000727    
0.0195315920    0.0232014170    0.0006708863    
0.0197542530    0.0208176440    0.0006364140    
0.0199769140    0.0235803680    0.0006773284    
0.0201995750    0.0230550160    0.0006592531    
0.0204222360    0.0222252470    0.0006528372    
0.0206448970    0.0231014400    0.0006608508    
0.0208675580    0.0217064620    0.0006273963    
0.0210902190    0.0225525420    0.0006456774    
0.0213128800    0.0214410170    0.0006210224    
0.0215355410    0.0216883530    0.0006171533    
0.0217582020    0.0214776240    0.0006141479    
0.0219808630    0.0212110760    0.0006095238    
0.0222035240    0.0219119690    0.0006138987    
0.0224261850    0.0210506170    0.0005963563    
0.0226488460    0.0220669960    0.0006059984    
0.0228715070    0.0217753400    0.0006004849    
0.0230941680    0.0212288950    0.0005929026    
0.0233168290    0.0209020970    0.0005897868    
0.0235394900    0.0215826330    0.0005926969    
0.0237621510    0.0216383510    0.0005774849    
0.0239848120    0.0219819540    0.0005827252    
0.0242074730    0.0207345770    0.0005614201    
0.0244301340    0.0218332100    0.0005767591    
0.0246527950    0.0214168860    0.0005765232    
0.0248754560    0.0213103280    0.0005621623    
0.0250981170    0.0215097450    0.0005660459    
0.0253207780    0.0213239930    0.0005467691    
0.0255434390    0.0206789150    0.0005441820    
0.0257661000    0.0213029680    0.0005541188    
0.0259887610    0.0211770970    0.0005466081    
0.0262114220    0.0207759440    0.0005442908    
0.0264340830    0.0204086780    0.0005321187    
0.0266567440    0.0208972130    0.0005351228    
0.0268794050    0.0207949380    0.0005316330    
0.0271020660    0.0209774300    0.0005317990    
0.0273247270    0.0209526570    0.0005282929    
0.0275473880    0.0201131240    0.0005165709    
0.0277700490    0.0201251500    0.0005136709    
0.0279927100    0.0206773090    0.0005161269    
0.0282153710    0.0214122070    0.0005277722    
0.0284380320    0.0199817180    0.0005068825    
0.0286606930    0.0202730850    0.0005061948    
0.0288833540    0.0200710620    0.0005046231    
0.0291060150    0.0217171760    0.0005244104    
0.0293286760    0.0209191560    0.0005075134    
0.0295513370    0.0206105960    0.0004982709    
0.0297739980    0.0207221760    0.0005051185    
0.0299966590    0.0202106960    0.0004903256    
0.0302193200    0.0203754780    0.0004994950    
0.0304419810    0.0201432870    0.0004975547    
0.0306646420    0.0214015150    0.0004983840    
0.0308873030    0.0205611900    0.0004863915    
0.0311099640    0.0205755790    0.0004878251    
0.0313326250    0.0202240290    0.0004782819    
0.0315552860    0.0201132910    0.0004831521    
0.0317779470    0.0205203840    0.0004884421    
0.0320006080    0.0202647520    0.0004743620    
0.0322232690    0.0207818820    0.0004823873    
0.0324459300    0.0200425490    0.0004701923    
0.0326685910    0.0199105570    0.0004678689    
0.0328912520    0.0194892870    0.0004644257    
0.0331139130    0.0202469260    0.0004672091    
0.0333365740    0.0207150140    0.0004741134    
0.0335592350    0.0200099030    0.0004614940    
0.0337818960    0.0210832210    0.0004733323    
0.0340045570    0.0189930600    0.0004485437    
0.0342272170    0.0207037000    0.0004664605    
0.0344498780    0.0194062060    0.0004533962    
0.0346725390    0.0209695960    0.0004625771    
0.0348952000    0.0201520680    0.0004514046    
0.0351178610    0.0194389930    0.0004453755    
0.0353405220    0.0209711200    0.0004604869    
0.0355631830    0.0192479300    0.0004395009    
0.0357858440    0.0200708470    0.0004487978    
0.0360085050    0.0193947210    0.0004425067    
0.0362311660    0.0193799540    0.0004370801    
0.0364538270    0.0199722090    0.0004401472    
0.0366764880    0.0196720300    0.0004365100    
0.0368991490    0.0198385540    0.0004361439    
0.0371218100    0.0200398150    0.0004370965    
0.0373444710    0.0201668980    0.0004432553    
0.0375671320    0.0195350680    0.0004356211    
0.0377897930    0.0196612980    0.0004257128    
0.0380124540    0.0200954710    0.0004330880    
0.0382351150    0.0204781670    0.0004371926    
0.0384577760    0.0200116740    0.0004280144    
0.0386804370    0.0206342940    0.0004379385    
0.0389030980    0.0203137990    0.0004312335    
0.0391257590    0.0200840840    0.0004258774    
0.0393484200    0.0204335010    0.0004281204    
0.0395710810    0.0201378210    0.0004255841    
0.0397937420    0.0194902590    0.0004186857    
0.0400164030    0.0195494190    0.0004210265    
0.0402390640    0.0198090780    0.0004181700    
0.0404617250    0.0197679660    0.0004152714    
0.0406843860    0.0195418350    0.0004089002    
0.0409070470    0.0197763990    0.0004156320    
0.0411297080    0.0196097840    0.0004098736    
0.0413523690    0.0198832340    0.0004137853    
0.0415750300    0.0198896560    0.0004173676    
0.0417976910    0.0192148820    0.0003996169    
0.0420203520    0.0201466600    0.0004107289    
0.0422430130    0.0189748810    0.0004001145    
0.0424656740    0.0194539880    0.0003998614    
0.0426883350    0.0195396670    0.0004027299    
0.0429109960    0.0200545280    0.0004092761    
0.0431336570    0.0193310290    0.0003961642    
0.0433563180    0.0195999110    0.0004023511    
0.0435789790    0.0195250360    0.0003952728    
0.0438016400    0.0199645540    0.0004018713    
0.0440243010    0.0204174970    0.0004022811    
0.0442469620    0.0192752280    0.0003932083    
0.0444696230    0.0198380570    0.0003974772    
0.0446922840    0.0199499920    0.0003974134    
0.0449149450    0.0195819930    0.0003884674    
0.0451376060    0.0191130110    0.0003885272    
0.0453602670    0.0194258330    0.0003875876    
0.0455829280    0.0198438540    0.0003912826    
0.0458055890    0.0200447400    0.0003955514    
0.0460282500    0.0201813270    0.0003921107    
0.0462509110    0.0196000120    0.0003840188    
0.0464735720    0.0196598130    0.0003848213    
0.0466962330    0.0203710410    0.0003935010    
0.0469188940    0.0202254740    0.0003909810    
0.0471415550    0.0192501920    0.0003833969    
0.0473642160    0.0194127040    0.0003796209    
0.0475868770    0.0203448560    0.0003866977    
0.0478095380    0.0200360440    0.0003820724    
0.0480321990    0.0200507610    0.0003830501    
0.0482548600    0.0199489650    0.0003804118    
0.0484775210    0.0194074120    0.0003789383    
0.0487001820    0.0197557370    0.0003767271    
0.0489228430    0.0202153150    0.0003808791    
0.0491455040    0.0197526400    0.0003738912    
0.0493681650    0.0193952440    0.0003736771    
0.0495908260    0.0190542830    0.0003641463    
0.0498134870    0.0193336730    0.0003702981    
0.0500361480    0.0198382200    0.0003741063    
0.0502588090    0.0196520340    0.0003667676    
0.0504814700    0.0198460540    0.0003733919    
0.0507041310    0.0193700860    0.0003645014    
0.0509267920    0.0194615250    0.0003668722    
0.0511494530    0.0200968010    0.0003703261    
0.0513721140    0.0198759140    0.0003715286    
0.0515947750    0.0198189180    0.0003660767    
0.0518174360    0.0192000760    0.0003581456    
0.0520400970    0.0194486290    0.0003579570    
0.0522627580    0.0202362530    0.0003682363    
0.0524854190    0.0206279510    0.0003748059    
0.0527080800    0.0199596210    0.0003715388    
0.0529307410    0.0192749030    0.0003668251    
0.0531534020    0.0195021240    0.0003676376    
0.0533760630    0.0197011250    0.0003706652    
0.0535987240    0.0194001420    0.0003661056    
0.0538213850    0.0197250250    0.0003734354    
0.0540440460    0.0188804680    0.0003636242    
0.0542667070    0.0194539990    0.0003716495    
0.0544893680    0.0197732530    0.0003748863    
0.0547120290    0.0197977010    0.0003725482    
0.0549346900    0.0192571060    0.0003676199    
0.0551573510    0.0193252190    0.0003726047    
0.0553800120    0.0202198450    0.0003778915    
0.0556026730    0.0196983480    0.0003807199    
0.0558253340    0.0195208340    0.0003821742    
0.0560479950    0.0196330850    0.0003832716    
0.0562706560    0.0193585840    0.0003842623    
0.0564933170    0.0194556760    0.0003885699    
0.0567159780    0.0193176880    0.0003825472    
0.0569386390    0.0200534960    0.0003958784    
0.0571613000    0.0199923280    0.0003867632    
0.0573839610    0.0196911480    0.0003806519    
0.0576066220    0.0188754180    0.0003737157    
0.0578292830    0.0195739480    0.0003793087    
0.0580519440    0.0189927030    0.0003750833    
0.0582746050    0.0198608290    0.0003818684    
0.0584972660    0.0200005210    0.0003817422    
0.0587199270    0.0196357020    0.0003749840    
0.0589425880    0.0191943470    0.0003685772    
0.0591652490    0.0200081200    0.0003785237    
0.0593879100    0.0193098960    0.0003690987    
0.0596105710    0.0194170230    0.0003697307    
0.0598332320    0.0209892580    0.0003876941    
0.0600558930    0.0198033540    0.0003741814    
0.0602785540    0.0190983220    0.0003670719    
0.0605012150    0.0198680100    0.0003736067    
0.0607238760    0.0192748600    0.0003653058    
0.0609465370    0.0194881150    0.0003702129    
0.0611691980    0.0197615930    0.0003733923    
0.0613918590    0.0196568520    0.0003683358    
0.0616145200    0.0201207260    0.0003753841    
0.0618371810    0.0201256980    0.0003717432    
0.0620598420    0.0202635460    0.0003733987    
0.0622825030    0.0196255530    0.0003730932    
0.0625051640    0.0193194880    0.0003649737    
0.0627278250    0.0188898120    0.0003601491    
0.0629504860    0.0198809500    0.0003664730    
0.0631731470    0.0194758760    0.0003672080    
0.0633958080    0.0191754400    0.0003664617    
0.0636184690    0.0198500820    0.0003780454    
0.0638411300    0.0193368920    0.0003717259    
0.0640637910    0.0197982740    0.0003787799    
0.0642864520    0.0193879860    0.0003740235    
0.0645091130    0.0194869680    0.0003782630    
0.0647317740    0.0191325920    0.0003752210    
0.0649544350    0.0192520530    0.0003759765    
0.0651770960    0.0193185660    0.0003745709    
0.0653997570    0.0198567460    0.0003789290    
0.0656224180    0.0196454290    0.0003777269    
0.0658450790    0.0199455000    0.0003751302    
0.0660677400    0.0189059930    0.0003667784    
0.0662904010    0.0202053170    0.0003836991    
0.0665130620    0.0194308640    0.0003746416    
0.0667357230    0.0192300570    0.0003793272    
0.0669583840    0.0190569990    0.0003763531    
0.0671810450    0.0186707260    0.0003704626    
0.0674037060    0.0194683400    0.0003847017    
0.0676263670    0.0202405370    0.0003893851    
0.0678490280    0.0196533440    0.0003813488    
0.0680716890    0.0193172530    0.0003789154    
0.0682943500    0.0195944030    0.0003774441    
0.0685170110    0.0196814810    0.0003744271    
0.0687396720    0.0192652800    0.0003694628    
0.0689623330    0.0201008920    0.0003761944    
0.0691849940    0.0201876550    0.0003796175    
0.0694076550    0.0199521850    0.0003771956    
0.0696303160    0.0199814080    0.0003744832    
0.0698529770    0.0201493460    0.0003752655    
0.0700756380    0.0193833590    0.0003633386    
0.0702982990    0.0197799980    0.0003710344    
0.0705209600    0.0195845940    0.0003665317    
0.0707436210    0.0200032530    0.0003687275    
0.0709662820    0.0201002280    0.0003740265    
0.0711889430    0.0197453050    0.0003661564    
0.0714116040    0.0193078560    0.0003628168    
0.0716342650    0.0199223080    0.0003670483    
0.0718569260    0.0197822780    0.0003642830    
0.0720795870    0.0195639450    0.0003637326    
0.0723022480    0.0191420140    0.0003603372    
0.0725249090    0.0193683050    0.0003581201    
0.0727475700    0.0198083460    0.0003652588    
0.0729702310    0.0190561770    0.0003553995    
0.0731928920    0.0193557930    0.0003596141    
0.0734155530    0.0192852810    0.0003582422    
0.0736382140    0.0200371160    0.0003628151    
0.0738608750    0.0196446860    0.0003615654    
0.0740835360    0.0201233550    0.0003650354    
0.0743061970    0.0206162180    0.0003642760    
0.0745288580    0.0201226270    0.0003635894    
0.0747515190    0.0196481630    0.0003599869    
0.0749741800    0.0198817080    0.0003587681    
0.0751968410    0.0200965000    0.0003635329    
0.0754195020    0.0195432440    0.0003563936    
0.0756421630    0.0201329040    0.0003587733    
0.0758648240    0.0197030330    0.0003557756    
0.0760874850    0.0201205410    0.0003593527    
0.0763101460    0.0196335490    0.0003546366    
0.0765328070    0.0197039880    0.0003589075    
0.0767554680    0.0193536490    0.0003532888    
0.0769781290    0.0194314890    0.0003519643    
0.0772007900    0.0194472620    0.0003492831    
0.0774234510    0.0194089810    0.0003509239    
0.0776461120    0.0199737990    0.0003556558    
0.0778687730    0.0198483400    0.0003533658    
0.0780914340    0.0201266180    0.0003583769    
0.0783140950    0.0194621270    0.0003468199    
0.0785367560    0.0192205270    0.0003502175    
0.0787594170    0.0190844790    0.0003458491    
0.0789820780    0.0196896450    0.0003494897    
0.0792047390    0.0187696040    0.0003423423    
0.0794274000    0.0194579490    0.0003500401    
0.0796500610    0.0195801310    0.0003477102    
0.0798727220    0.0197104110    0.0003485431    
0.0800953830    0.0190861090    0.0003421901    
0.0803180440    0.0193840550    0.0003472529    
0.0805407050    0.0199565260    0.0003520157    
0.0807633660    0.0199442860    0.0003515811    
0.0809860270    0.0194650490    0.0003460487    
0.0812086880    0.0194384350    0.0003428237    
0.0814313490    0.0191219290    0.0003415719    
0.0816540100    0.0192596860    0.0003420197    
0.0818766710    0.0195185790    0.0003450969    
0.0820993320    0.0196541960    0.0003456626    
0.0823219930    0.0200495770    0.0003505621    
0.0825446540    0.0195176650    0.0003433677    
0.0827673150    0.0196913660    0.0003425751    
0.0829899760    0.0196213190    0.0003413565    
0.0832126370    0.0197615300    0.0003441084    
0.0834352980    0.0195539550    0.0003415310    
0.0836579590    0.0194551220    0.0003399085    
0.0838806200    0.0199416030    0.0003452089    
0.0841032810    0.0198069240    0.0003419055    
0.0843259420    0.0195971340    0.0003390426    
0.0845486030    0.0198728490    0.0003414196    
0.0847712640    0.0194111810    0.0003353741    
0.0849939250    0.0191067130    0.0003333129    
0.0852165860    0.0194482940    0.0003367197    
0.0854392470    0.0189901690    0.0003295792    
0.0856619080    0.0196714330    0.0003379094    
0.0858845690    0.0200426390    0.0003380107    
0.0861072300    0.0193378220    0.0003343063    
0.0863298910    0.0194182310    0.0003367548    
0.0865525520    0.0198362210    0.0003374210    
0.0867752130    0.0194383310    0.0003313245    
0.0869978740    0.0194296890    0.0003320950    
0.0872205350    0.0196237360    0.0003333246    
0.0874431960    0.0194878840    0.0003321691    
0.0876658570    0.0186565000    0.0003262544    
0.0878885180    0.0193846230    0.0003331301    
0.0881111790    0.0196489700    0.0003349635    
0.0883338400    0.0196876780    0.0003303841    
0.0885565010    0.0192057360    0.0003307404    
0.0887791620    0.0196153240    0.0003299140    
0.0890018230    0.0194376400    0.0003316019    
0.0892244840    0.0193902590    0.0003317605    
0.0894471450    0.0190298000    0.0003272741    
0.0896698060    0.0195791830    0.0003307124    
0.0898924670    0.0194679400    0.0003313002    
0.0901151280    0.0191599880    0.0003251194    
0.0903377890    0.0196166660    0.0003317244    
0.0905604500    0.0196815880    0.0003307480    
0.0907831110    0.0194787010    0.0003282202    
0.0910057720    0.0194178820    0.0003292112    
0.0912284330    0.0189688530    0.0003207238    
0.0914510940    0.0196881190    0.0003303915    
0.0916737550    0.0196843110    0.0003295397    
0.0918964160    0.0199151340    0.0003328448    
0.0921190770    0.0192889530    0.0003246084    
0.0923417380    0.0189548800    0.0003219172    
0.0925643990    0.0199013580    0.0003290492    
0.0927870600    0.0198564810    0.0003300259    
0.0930097210    0.0192392980    0.0003220897    
0.0932323820    0.0196162080    0.0003276201    
