# Diamond Light Source Ltd.
# Data extracted from: /dls/b21/data/2018/cm19678-3/processed/b21-386631_00062.dat
q(1/A)          Column          Error           
0.0035000000    2.0988581000    0.0246839080    
0.0037226610    1.8620109000    0.0227599760    
0.0039453220    1.6402067000    0.0194328560    
0.0041679830    1.3072684000    0.0142473630    
0.0043906440    0.9823518300    0.0118132930    
0.0046133050    0.7691489700    0.0100347490    
0.0048359660    0.5886186500    0.0083035917    
0.0050586270    0.4626277900    0.0072356287    
0.0052812880    0.4336930100    0.0066237767    
0.0055039490    0.3810389100    0.0059035017    
0.0057266100    0.3141553300    0.0051857479    
0.0059492710    0.2676740600    0.0047867677    
0.0061719320    0.2229598400    0.0042097878    
0.0063945930    0.1983519800    0.0040188139    
0.0066172539    0.1797730300    0.0035925876    
0.0068399149    0.1690083800    0.0034285075    
0.0070625759    0.1473681800    0.0031686586    
0.0072852369    0.1273895100    0.0029019692    
0.0075078979    0.1161907500    0.0027578611    
0.0077305589    0.1037435700    0.0025563150    
0.0079532199    0.0940276050    0.0023999444    
0.0081758809    0.0929147100    0.0024078927    
0.0083985419    0.0842481210    0.0021385252    
0.0086212029    0.0761055960    0.0020325563    
0.0088438639    0.0722171650    0.0019640480    
0.0090665249    0.0646760840    0.0017951733    
0.0092891859    0.0653031920    0.0018827888    
0.0095118469    0.0617988470    0.0017613731    
0.0097345079    0.0578663550    0.0016553526    
0.0099571689    0.0517799510    0.0015335898    
0.0101798300    0.0512349080    0.0015254972    
0.0104024910    0.0467382360    0.0014520863    
0.0106251520    0.0478737700    0.0014746105    
0.0108478130    0.0455321040    0.0014004907    
0.0110704740    0.0425212760    0.0012885235    
0.0112931350    0.0408861690    0.0012672172    
0.0115157960    0.0420411620    0.0012774987    
0.0117384570    0.0368564810    0.0011858378    
0.0119611180    0.0375671560    0.0012006515    
0.0121837790    0.0379470570    0.0011864250    
0.0124064400    0.0363823080    0.0011132805    
0.0126291010    0.0351450990    0.0010804930    
0.0128517620    0.0347199110    0.0010766187    
0.0130744230    0.0332858640    0.0010463322    
0.0132970840    0.0317234610    0.0010164852    
0.0135197450    0.0319605670    0.0010056661    
0.0137424060    0.0327384080    0.0010036603    
0.0139650670    0.0309726450    0.0009544740    
0.0141877280    0.0298688570    0.0009393837    
0.0144103890    0.0285053010    0.0009018678    
0.0146330500    0.0291868700    0.0009067919    
0.0148557110    0.0281604020    0.0008869693    
0.0150783720    0.0287135150    0.0008882357    
0.0153010330    0.0287107750    0.0008756704    
0.0155236940    0.0259687560    0.0008278537    
0.0157463550    0.0264018990    0.0008202671    
0.0159690160    0.0262271830    0.0008144460    
0.0161916770    0.0265576840    0.0008149443    
0.0164143380    0.0271900990    0.0008308374    
0.0166369990    0.0242277380    0.0007600917    
0.0168596600    0.0254895020    0.0007727641    
0.0170823210    0.0250730600    0.0007597897    
0.0173049820    0.0242356810    0.0007482858    
0.0175276430    0.0256460700    0.0007778683    
0.0177503040    0.0237053980    0.0007287934    
0.0179729650    0.0245992820    0.0007350441    
0.0181956260    0.0236440100    0.0007068156    
0.0184182870    0.0236728310    0.0007039128    
0.0186409480    0.0239946430    0.0007131667    
0.0188636090    0.0236937780    0.0007042244    
0.0190862700    0.0221800230    0.0006802920    
0.0193089310    0.0236709710    0.0007016895    
0.0195315920    0.0234276020    0.0006743327    
0.0197542530    0.0236127100    0.0006779778    
0.0199769140    0.0229508620    0.0006684087    
0.0201995750    0.0228978600    0.0006571818    
0.0204222360    0.0235996460    0.0006729037    
0.0206448970    0.0230005730    0.0006595867    
0.0208675580    0.0217727540    0.0006285253    
0.0210902190    0.0228607970    0.0006502527    
0.0213128800    0.0226945430    0.0006390928    
0.0215355410    0.0227193220    0.0006318240    
0.0217582020    0.0227720440    0.0006325568    
0.0219808630    0.0218535620    0.0006188552    
0.0222035240    0.0223713690    0.0006204701    
0.0224261850    0.0215185210    0.0006031123    
0.0226488460    0.0211299530    0.0005931544    
0.0228715070    0.0222180120    0.0006067235    
0.0230941680    0.0220026340    0.0006037757    
0.0233168290    0.0214629970    0.0005978110    
0.0235394900    0.0210081520    0.0005849153    
0.0237621510    0.0211567230    0.0005711778    
0.0239848120    0.0211902500    0.0005722916    
0.0242074730    0.0218714170    0.0005767631    
0.0244301340    0.0210219450    0.0005660969    
0.0246527950    0.0223757940    0.0005894493    
0.0248754560    0.0213813230    0.0005632518    
0.0250981170    0.0220282360    0.0005729840    
0.0253207780    0.0216723010    0.0005513670    
0.0255434390    0.0210770810    0.0005495461    
0.0257661000    0.0211559740    0.0005523546    
0.0259887610    0.0208357590    0.0005423331    
0.0262114220    0.0216718620    0.0005560545    
0.0264340830    0.0211833170    0.0005422714    
0.0266567440    0.0201271280    0.0005253137    
0.0268794050    0.0204663270    0.0005275598    
0.0271020660    0.0218926550    0.0005434245    
0.0273247270    0.0209241230    0.0005280772    
0.0275473880    0.0204825250    0.0005214354    
0.0277700490    0.0201361460    0.0005139515    
0.0279927100    0.0208819580    0.0005188164    
0.0282153710    0.0212807330    0.0005262931    
0.0284380320    0.0207645530    0.0005168575    
0.0286606930    0.0204232680    0.0005082050    
0.0288833540    0.0199550880    0.0005033005    
0.0291060150    0.0202213130    0.0005061659    
0.0293286760    0.0195754570    0.0004910774    
0.0295513370    0.0212606400    0.0005062057    
0.0297739980    0.0202037650    0.0004988964    
0.0299966590    0.0204240760    0.0004930418    
0.0302193200    0.0199945610    0.0004949391    
0.0304419810    0.0199821390    0.0004956959    
0.0306646420    0.0207513040    0.0004908888    
0.0308873030    0.0205148630    0.0004859759    
0.0311099640    0.0214200150    0.0004978707    
0.0313326250    0.0200087360    0.0004758593    
0.0315552860    0.0205771640    0.0004888253    
0.0317779470    0.0205664940    0.0004891242    
0.0320006080    0.0200091840    0.0004714900    
0.0322232690    0.0204123260    0.0004782096    
0.0324459300    0.0198438050    0.0004679830    
0.0326685910    0.0207684550    0.0004779728    
0.0328912520    0.0202861340    0.0004739544    
0.0331139130    0.0199128050    0.0004634646    
0.0333365740    0.0200640450    0.0004667319    
0.0335592350    0.0203722660    0.0004657811    
0.0337818960    0.0197337900    0.0004580591    
0.0340045570    0.0198407330    0.0004585691    
0.0342272170    0.0189379370    0.0004462475    
0.0344498780    0.0191836380    0.0004509119    
0.0346725390    0.0197865120    0.0004494614    
0.0348952000    0.0203249500    0.0004534606    
0.0351178610    0.0195006630    0.0004462032    
0.0353405220    0.0206082510    0.0004566102    
0.0355631830    0.0202524960    0.0004509471    
0.0357858440    0.0194291550    0.0004416858    
0.0360085050    0.0198699950    0.0004480181    
0.0362311660    0.0190256150    0.0004331842    
0.0364538270    0.0206139630    0.0004472849    
0.0366764880    0.0193532780    0.0004330774    
0.0368991490    0.0199741110    0.0004377510    
0.0371218100    0.0205658650    0.0004429173    
0.0373444710    0.0193688510    0.0004345152    
0.0375671320    0.0199150800    0.0004399579    
0.0377897930    0.0200778400    0.0004303163    
0.0380124540    0.0187616630    0.0004185828    
0.0382351150    0.0201905140    0.0004342297    
0.0384577760    0.0204622630    0.0004329244    
0.0386804370    0.0193156960    0.0004238304    
0.0389030980    0.0194639070    0.0004222314    
0.0391257590    0.0197968850    0.0004229370    
0.0393484200    0.0194035850    0.0004173055    
0.0395710810    0.0194828960    0.0004187208    
0.0397937420    0.0196628910    0.0004206507    
0.0400164030    0.0195328830    0.0004209634    
0.0402390640    0.0194489410    0.0004144645    
0.0404617250    0.0197351250    0.0004150397    
0.0406843860    0.0204000160    0.0004178963    
0.0409070470    0.0208185170    0.0004265588    
0.0411297080    0.0195176390    0.0004090211    
0.0413523690    0.0201094950    0.0004162466    
0.0415750300    0.0194799050    0.0004131589    
0.0417976910    0.0200486120    0.0004083060    
0.0420203520    0.0205933280    0.0004153705    
0.0422430130    0.0199307120    0.0004101803    
0.0424656740    0.0196208600    0.0004016824    
0.0426883350    0.0198410230    0.0004059345    
0.0429109960    0.0197813430    0.0004065900    
0.0431336570    0.0198777290    0.0004018369    
0.0433563180    0.0198172220    0.0004046860    
0.0435789790    0.0198799810    0.0003989584    
0.0438016400    0.0194493660    0.0003967606    
0.0440243010    0.0191756530    0.0003899618    
0.0442469620    0.0197191480    0.0003978190    
0.0444696230    0.0192672140    0.0003918238    
0.0446922840    0.0190420580    0.0003883709    
0.0449149450    0.0199242490    0.0003919545    
0.0451376060    0.0199373870    0.0003969260    
0.0453602670    0.0194673970    0.0003881080    
0.0455829280    0.0197620610    0.0003905820    
0.0458055890    0.0195402420    0.0003906486    
0.0460282500    0.0193462410    0.0003840173    
0.0462509110    0.0197537550    0.0003856273    
0.0464735720    0.0198514330    0.0003867978    
0.0466962330    0.0202224600    0.0003921704    
0.0469188940    0.0200020960    0.0003889221    
0.0471415550    0.0195739550    0.0003867132    
0.0473642160    0.0196461400    0.0003820009    
0.0475868770    0.0200912270    0.0003843847    
0.0478095380    0.0194929660    0.0003769617    
0.0480321990    0.0196809830    0.0003796052    
0.0482548600    0.0194155050    0.0003753935    
0.0484775210    0.0192403450    0.0003774068    
0.0487001820    0.0200396690    0.0003795283    
0.0489228430    0.0189698420    0.0003690603    
0.0491455040    0.0195651610    0.0003722142    
0.0493681650    0.0194778750    0.0003745745    
0.0495908260    0.0200255880    0.0003734142    
0.0498134870    0.0199616060    0.0003763662    
0.0500361480    0.0205055190    0.0003804501    
0.0502588090    0.0199709650    0.0003698327    
0.0504814700    0.0198217520    0.0003732652    
0.0507041310    0.0200463660    0.0003709111    
0.0509267920    0.0192853260    0.0003653074    
0.0511494530    0.0195752160    0.0003655886    
0.0513721140    0.0196227290    0.0003692556    
0.0515947750    0.0197891540    0.0003659016    
0.0518174360    0.0194779370    0.0003608263    
0.0520400970    0.0198349930    0.0003615938    
0.0522627580    0.0199187930    0.0003654363    
0.0524854190    0.0193377720    0.0003629947    
0.0527080800    0.0200881640    0.0003728350    
0.0529307410    0.0193343290    0.0003674905    
0.0531534020    0.0195474500    0.0003681651    
0.0533760630    0.0191955430    0.0003659781    
0.0535987240    0.0195075190    0.0003672176    
0.0538213850    0.0193679660    0.0003701411    
0.0540440460    0.0193952850    0.0003686491    
0.0542667070    0.0196919530    0.0003740177    
0.0544893680    0.0197627230    0.0003748888    
0.0547120290    0.0201241640    0.0003757098    
0.0549346900    0.0193097590    0.0003682226    
0.0551573510    0.0194076590    0.0003735006    
0.0553800120    0.0191568110    0.0003679243    
0.0556026730    0.0194956020    0.0003788590    
0.0558253340    0.0196063620    0.0003831151    
0.0560479950    0.0195240330    0.0003823101    
0.0562706560    0.0200254840    0.0003909319    
0.0564933170    0.0204679630    0.0003986593    
0.0567159780    0.0196541710    0.0003859699    
0.0569386390    0.0195483760    0.0003909675    
0.0571613000    0.0193669200    0.0003807697    
0.0573839610    0.0194442210    0.0003783610    
0.0576066220    0.0193151210    0.0003781468    
0.0578292830    0.0198199820    0.0003817894    
0.0580519440    0.0196923490    0.0003820338    
0.0582746050    0.0192252080    0.0003758107    
0.0584972660    0.0196469420    0.0003784561    
0.0587199270    0.0197180800    0.0003758724    
0.0589425880    0.0199625470    0.0003759832    
0.0591652490    0.0194745120    0.0003735441    
0.0593879100    0.0196875130    0.0003727920    
0.0596105710    0.0193924120    0.0003695972    
0.0598332320    0.0192237970    0.0003711324    
0.0600558930    0.0189087070    0.0003657315    
0.0602785540    0.0197723050    0.0003735947    
0.0605012150    0.0202162720    0.0003769699    
0.0607238760    0.0197425880    0.0003698126    
0.0609465370    0.0193228440    0.0003687405    
0.0611691980    0.0188688320    0.0003649602    
0.0613918590    0.0200405030    0.0003720145    
0.0616145200    0.0197042800    0.0003715805    
0.0618371810    0.0196076850    0.0003670281    
0.0620598420    0.0199785880    0.0003708652    
0.0622825030    0.0198562700    0.0003753823    
0.0625051640    0.0191023880    0.0003630163    
0.0627278250    0.0199375460    0.0003701033    
0.0629504860    0.0197431140    0.0003653002    
0.0631731470    0.0194449530    0.0003670166    
0.0633958080    0.0196133600    0.0003707239    
0.0636184690    0.0192269920    0.0003721663    
0.0638411300    0.0188469690    0.0003670868    
0.0640637910    0.0194175500    0.0003752227    
0.0642864520    0.0194202370    0.0003744367    
0.0645091130    0.0191890630    0.0003754630    
0.0647317740    0.0187969980    0.0003720173    
0.0649544350    0.0194462350    0.0003779711    
0.0651770960    0.0185879290    0.0003675198    
0.0653997570    0.0194769000    0.0003753897    
0.0656224180    0.0192274330    0.0003737889    
0.0658450790    0.0190881150    0.0003670791    
0.0660677400    0.0191227860    0.0003689760    
0.0662904010    0.0195529290    0.0003775569    
0.0665130620    0.0196944370    0.0003772770    
0.0667357230    0.0195475150    0.0003825499    
0.0669583840    0.0191120310    0.0003769991    
0.0671810450    0.0196223290    0.0003798898    
0.0674037060    0.0195017950    0.0003851373    
0.0676263670    0.0194196460    0.0003815115    
0.0678490280    0.0193753390    0.0003787455    
0.0680716890    0.0192236950    0.0003780999    
0.0682943500    0.0198015240    0.0003795374    
0.0685170110    0.0194998020    0.0003727968    
0.0687396720    0.0192190920    0.0003691204    
0.0689623330    0.0197314750    0.0003728233    
0.0691849940    0.0197987110    0.0003760454    
0.0694076550    0.0193923050    0.0003719673    
0.0696303160    0.0201257490    0.0003759360    
0.0698529770    0.0189925510    0.0003644336    
0.0700756380    0.0194075790    0.0003636649    
0.0702982990    0.0199022240    0.0003722807    
0.0705209600    0.0194099800    0.0003649937    
0.0707436210    0.0200345850    0.0003691169    
0.0709662820    0.0191641450    0.0003653131    
0.0711889430    0.0191922160    0.0003610904    
0.0714116040    0.0197549800    0.0003670940    
0.0716342650    0.0191686130    0.0003601367    
0.0718569260    0.0195111910    0.0003618772    
0.0720795870    0.0200618020    0.0003684322    
0.0723022480    0.0195461100    0.0003642203    
0.0725249090    0.0198956580    0.0003630619    
0.0727475700    0.0201695930    0.0003686751    
0.0729702310    0.0194578680    0.0003592239    
0.0731928920    0.0194265330    0.0003603691    
0.0734155530    0.0196753430    0.0003619458    
0.0736382140    0.0187137180    0.0003507247    
0.0738608750    0.0192226270    0.0003577580    
0.0740835360    0.0200084690    0.0003640914    
0.0743061970    0.0191849110    0.0003514993    
0.0745288580    0.0199364270    0.0003620021    
0.0747515190    0.0199954550    0.0003632537    
0.0749741800    0.0192512930    0.0003531307    
0.0751968410    0.0202588130    0.0003650977    
0.0754195020    0.0191312410    0.0003527133    
0.0756421630    0.0193187020    0.0003515398    
0.0758648240    0.0193602750    0.0003527638    
0.0760874850    0.0198040360    0.0003566125    
0.0763101460    0.0190802640    0.0003496995    
0.0765328070    0.0195381450    0.0003574915    
0.0767554680    0.0196933050    0.0003564728    
0.0769781290    0.0193974550    0.0003517520    
0.0772007900    0.0190812830    0.0003460754    
0.0774234510    0.0193941920    0.0003508860    
0.0776461120    0.0201304480    0.0003571452    
0.0778687730    0.0195444590    0.0003507461    
0.0780914340    0.0192245910    0.0003503497    
0.0783140950    0.0201096920    0.0003526388    
0.0785367560    0.0193204160    0.0003512222    
0.0787594170    0.0197847060    0.0003522329    
0.0789820780    0.0196507480    0.0003492397    
0.0792047390    0.0190547470    0.0003450272    
0.0794274000    0.0189015340    0.0003450932    
0.0796500610    0.0199368050    0.0003509587    
0.0798727220    0.0195793460    0.0003474772    
0.0800953830    0.0196796850    0.0003475653    
0.0803180440    0.0192141440    0.0003458221    
0.0805407050    0.0198742400    0.0003513852    
0.0807633660    0.0196823340    0.0003493600    
0.0809860270    0.0191740700    0.0003435463    
0.0812086880    0.0198543710    0.0003465667    
0.0814313490    0.0199382080    0.0003488816    
0.0816540100    0.0196530620    0.0003455892    
0.0818766710    0.0194681960    0.0003447454    
0.0820993320    0.0189046140    0.0003390996    
0.0823219930    0.0190547450    0.0003418476    
0.0825446540    0.0191173340    0.0003399208    
0.0827673150    0.0194516740    0.0003405768    
0.0829899760    0.0194240730    0.0003397292    
0.0832126370    0.0187231590    0.0003350373    
0.0834352980    0.0190752250    0.0003374165    
0.0836579590    0.0202203770    0.0003466237    
0.0838806200    0.0193187070    0.0003398674    
0.0841032810    0.0193217120    0.0003377839    
0.0843259420    0.0191852830    0.0003355527    
0.0845486030    0.0194552800    0.0003379059    
0.0847712640    0.0190333520    0.0003321849    
0.0849939250    0.0196291150    0.0003379311    
0.0852165860    0.0198613980    0.0003403700    
0.0854392470    0.0197960500    0.0003365916    
0.0856619080    0.0199144880    0.0003400834    
0.0858845690    0.0196999720    0.0003352003    
0.0861072300    0.0192211720    0.0003333875    
0.0863298910    0.0193937820    0.0003366347    
0.0865525520    0.0196116050    0.0003355968    
0.0867752130    0.0196015150    0.0003328032    
0.0869978740    0.0192869630    0.0003309634    
0.0872205350    0.0198044050    0.0003349470    
0.0874431960    0.0197307920    0.0003343242    
0.0876658570    0.0186096090    0.0003259331    
0.0878885180    0.0196357930    0.0003353730    
0.0881111790    0.0192826230    0.0003319168    
0.0883338400    0.0196651510    0.0003302853    
0.0885565010    0.0192447240    0.0003311663    
0.0887791620    0.0198148070    0.0003316779    
0.0890018230    0.0201840790    0.0003380012    
0.0892244840    0.0192815860    0.0003309199    
0.0894471450    0.0196427710    0.0003325941    
0.0896698060    0.0194445630    0.0003296636    
0.0898924670    0.0194390900    0.0003311451    
0.0901151280    0.0189275830    0.0003232298    
0.0903377890    0.0192064370    0.0003283271    
0.0905604500    0.0195421880    0.0003296646    
0.0907831110    0.0197826250    0.0003308612    
0.0910057720    0.0191660210    0.0003271586    
0.0912284330    0.0198798900    0.0003284250    
0.0914510940    0.0192717250    0.0003269683    
0.0916737550    0.0195073890    0.0003281451    
0.0918964160    0.0203434600    0.0003364969    
0.0921190770    0.0191081920    0.0003231721    
0.0923417380    0.0193262710    0.0003251444    
0.0925643990    0.0191828060    0.0003231426    
0.0927870600    0.0194721790    0.0003269059    
0.0930097210    0.0195950980    0.0003251431    
0.0932323820    0.0192108460    0.0003243059    
