# Diamond Light Source Ltd.
# Data extracted from: /dls/b21/data/2018/cm19678-3/processed/b21-386631_00059.dat
q(1/A)          Column          Error           
0.0035000000    2.0919091000    0.0246362830    
0.0037226610    1.8673892000    0.0227865990    
0.0039453220    1.6489756000    0.0194794120    
0.0041679830    1.2710157000    0.0140445870    
0.0043906440    0.9661972100    0.0117125570    
0.0046133050    0.7880943800    0.0101548100    
0.0048359660    0.5954387300    0.0083492776    
0.0050586270    0.4501597600    0.0071355120    
0.0052812880    0.4386127600    0.0066594213    
0.0055039490    0.3841217300    0.0059257163    
0.0057266100    0.3154381900    0.0051949061    
0.0059492710    0.2659023600    0.0047695970    
0.0061719320    0.2254597100    0.0042321665    
0.0063945930    0.1988947100    0.0040232093    
0.0066172539    0.1824733000    0.0036184798    
0.0068399149    0.1684295000    0.0034216962    
0.0070625759    0.1517819100    0.0032148817    
0.0072852369    0.1265931600    0.0028920944    
0.0075078979    0.1172395100    0.0027695230    
0.0077305589    0.1016094000    0.0025291938    
0.0079532199    0.0945272580    0.0024056554    
0.0081758809    0.0875004360    0.0023360460    
0.0083985419    0.0799703070    0.0020829556    
0.0086212029    0.0791022570    0.0020716201    
0.0088438639    0.0725514290    0.0019680505    
0.0090665249    0.0619017500    0.0017557689    
0.0092891859    0.0617952760    0.0018310214    
0.0095118469    0.0629692930    0.0017774891    
0.0097345079    0.0590179540    0.0016712866    
0.0099571689    0.0565182760    0.0016017850    
0.0101798300    0.0502536090    0.0015104051    
0.0104024910    0.0492828130    0.0014906834    
0.0106251520    0.0484831740    0.0014835610    
0.0108478130    0.0458516650    0.0014050129    
0.0110704740    0.0416785340    0.0012753424    
0.0112931350    0.0402750250    0.0012573672    
0.0115157960    0.0420957990    0.0012779795    
0.0117384570    0.0414504310    0.0012572287    
0.0119611180    0.0382753300    0.0012115844    
0.0121837790    0.0369253460    0.0011700244    
0.0124064400    0.0376562340    0.0011322943    
0.0126291010    0.0349931060    0.0010778596    
0.0128517620    0.0350012480    0.0010806767    
0.0130744230    0.0326759690    0.0010364188    
0.0132970840    0.0334965240    0.0010442201    
0.0135197450    0.0304250260    0.0009809422    
0.0137424060    0.0319517210    0.0009912575    
0.0139650670    0.0295446430    0.0009319567    
0.0141877280    0.0287600190    0.0009215305    
0.0144103890    0.0298586110    0.0009227759    
0.0146330500    0.0288330440    0.0009010326    
0.0148557110    0.0290105950    0.0009000132    
0.0150783720    0.0291372270    0.0008945210    
0.0153010330    0.0277074510    0.0008599989    
0.0155236940    0.0276690540    0.0008542925    
0.0157463550    0.0266421860    0.0008237663    
0.0159690160    0.0266931350    0.0008214244    
0.0161916770    0.0265681750    0.0008148827    
0.0164143380    0.0268453920    0.0008253286    
0.0166369990    0.0257398310    0.0007832381    
0.0168596600    0.0256394880    0.0007748226    
0.0170823210    0.0246451630    0.0007530728    
0.0173049820    0.0230678970    0.0007298360    
0.0175276430    0.0260565150    0.0007838540    
0.0177503040    0.0227071340    0.0007130883    
0.0179729650    0.0241029120    0.0007273917    
0.0181956260    0.0251304800    0.0007284962    
0.0184182870    0.0238690980    0.0007066318    
0.0186409480    0.0240239100    0.0007134067    
0.0188636090    0.0233670470    0.0006991611    
0.0190862700    0.0236485520    0.0007022602    
0.0193089310    0.0232422620    0.0006951163    
0.0195315920    0.0214166930    0.0006445667    
0.0197542530    0.0226853960    0.0006643502    
0.0199769140    0.0227632270    0.0006654890    
0.0201995750    0.0218862420    0.0006423254    
0.0204222360    0.0222827750    0.0006536815    
0.0206448970    0.0228745850    0.0006575981    
0.0208675580    0.0221960820    0.0006344328    
0.0210902190    0.0233474270    0.0006569576    
0.0213128800    0.0210632810    0.0006155277    
0.0215355410    0.0224083710    0.0006273140    
0.0217582020    0.0221625190    0.0006238633    
0.0219808630    0.0218241130    0.0006182692    
0.0222035240    0.0216539790    0.0006102740    
0.0224261850    0.0213547190    0.0006006484    
0.0226488460    0.0224331150    0.0006110048    
0.0228715070    0.0219243730    0.0006025362    
0.0230941680    0.0209970660    0.0005896564    
0.0233168290    0.0206857530    0.0005867266    
0.0235394900    0.0213710390    0.0005897844    
0.0237621510    0.0217616460    0.0005791278    
0.0239848120    0.0219665060    0.0005825205    
0.0242074730    0.0215554470    0.0005724254    
0.0244301340    0.0220312780    0.0005793694    
0.0246527950    0.0206098730    0.0005655569    
0.0248754560    0.0206874790    0.0005538861    
0.0250981170    0.0210628660    0.0005601351    
0.0253207780    0.0205529090    0.0005367923    
0.0255434390    0.0219677670    0.0005608842    
0.0257661000    0.0207985000    0.0005475186    
0.0259887610    0.0213464010    0.0005487887    
0.0262114220    0.0209327980    0.0005463416    
0.0264340830    0.0209220160    0.0005387693    
0.0266567440    0.0210479460    0.0005370493    
0.0268794050    0.0203056450    0.0005253412    
0.0271020660    0.0212066180    0.0005346962    
0.0273247270    0.0200468840    0.0005167478    
0.0275473880    0.0211479680    0.0005296933    
0.0277700490    0.0203218130    0.0005161746    
0.0279927100    0.0200846880    0.0005086769    
0.0282153710    0.0208788530    0.0005211576    
0.0284380320    0.0200331510    0.0005075345    
0.0286606930    0.0211578210    0.0005171222    
0.0288833540    0.0205912350    0.0005111203    
0.0291060150    0.0202229330    0.0005060480    
0.0293286760    0.0197617690    0.0004932741    
0.0295513370    0.0211044790    0.0005042055    
0.0297739980    0.0196017260    0.0004912729    
0.0299966590    0.0207816870    0.0004972037    
0.0302193200    0.0205591510    0.0005017413    
0.0304419810    0.0210035860    0.0005080687    
0.0306646420    0.0203337610    0.0004857923    
0.0308873030    0.0204921540    0.0004855743    
0.0311099640    0.0198469330    0.0004791095    
0.0313326250    0.0204389380    0.0004808164    
0.0315552860    0.0201016850    0.0004830127    
0.0317779470    0.0204273740    0.0004873339    
0.0320006080    0.0202980640    0.0004747517    
0.0322232690    0.0200876590    0.0004742618    
0.0324459300    0.0198991520    0.0004685072    
0.0326685910    0.0201854130    0.0004710872    
0.0328912520    0.0202861230    0.0004738248    
0.0331139130    0.0202469260    0.0004672091    
0.0333365740    0.0203677750    0.0004701229    
0.0335592350    0.0205952990    0.0004681959    
0.0337818960    0.0202968510    0.0004644211    
0.0340045570    0.0203171720    0.0004639156    
0.0342272170    0.0200731300    0.0004593021    
0.0344498780    0.0199252590    0.0004594197    
0.0346725390    0.0200920360    0.0004527945    
0.0348952000    0.0203542970    0.0004536639    
0.0351178610    0.0201634910    0.0004535992    
0.0353405220    0.0195656300    0.0004447883    
0.0355631830    0.0198400200    0.0004462094    
0.0357858440    0.0196092180    0.0004436066    
0.0360085050    0.0206466450    0.0004565652    
0.0362311660    0.0200798410    0.0004449024    
0.0364538270    0.0197200100    0.0004373594    
0.0366764880    0.0199529200    0.0004396154    
0.0368991490    0.0198481420    0.0004362492    
0.0371218100    0.0198491410    0.0004350121    
0.0373444710    0.0197479720    0.0004386273    
0.0375671320    0.0198556340    0.0004391808    
0.0377897930    0.0192741560    0.0004215007    
0.0380124540    0.0204594860    0.0004369929    
0.0382351150    0.0200301480    0.0004323837    
0.0384577760    0.0193800160    0.0004212052    
0.0386804370    0.0195561050    0.0004263434    
0.0389030980    0.0204877340    0.0004330758    
0.0391257590    0.0192532680    0.0004169758    
0.0393484200    0.0201105830    0.0004247241    
0.0395710810    0.0188876390    0.0004121621    
0.0397937420    0.0199579530    0.0004236794    
0.0400164030    0.0196491600    0.0004220992    
0.0402390640    0.0192088030    0.0004117853    
0.0404617250    0.0201169150    0.0004189206    
0.0406843860    0.0195503910    0.0004089897    
0.0409070470    0.0195667550    0.0004134232    
0.0411297080    0.0196354850    0.0004101421    
0.0413523690    0.0201760140    0.0004168207    
0.0415750300    0.0197232520    0.0004156180    
0.0417976910    0.0195888740    0.0004034871    
0.0420203520    0.0198954550    0.0004081602    
0.0422430130    0.0202151240    0.0004129838    
0.0424656740    0.0198813670    0.0004042298    
0.0426883350    0.0196807770    0.0004041815    
0.0429109960    0.0198123030    0.0004067969    
0.0431336570    0.0196963780    0.0003998904    
0.0433563180    0.0196825070    0.0004031980    
0.0435789790    0.0192289590    0.0003922644    
0.0438016400    0.0192446000    0.0003945588    
0.0440243010    0.0200528990    0.0003986731    
0.0442469620    0.0190025030    0.0003904166    
0.0444696230    0.0203158900    0.0004022357    
0.0446922840    0.0192770760    0.0003906535    
0.0449149450    0.0193508000    0.0003861674    
0.0451376060    0.0190498280    0.0003878845    
0.0453602670    0.0191551700    0.0003848779    
0.0455829280    0.0195661020    0.0003885346    
0.0458055890    0.0197637380    0.0003927690    
0.0460282500    0.0198156400    0.0003885420    
0.0462509110    0.0194796280    0.0003828376    
0.0464735720    0.0196372150    0.0003846001    
0.0466962330    0.0194741070    0.0003847406    
0.0469188940    0.0195603610    0.0003844986    
0.0471415550    0.0195098140    0.0003859737    
0.0473642160    0.0199175080    0.0003845251    
0.0475868770    0.0196980540    0.0003805011    
0.0478095380    0.0198393270    0.0003801921    
0.0480321990    0.0201971170    0.0003844455    
0.0482548600    0.0185851810    0.0003671785    
0.0484775210    0.0192594330    0.0003774908    
0.0487001820    0.0188936680    0.0003684159    
0.0489228430    0.0194833440    0.0003739199    
0.0491455040    0.0201489670    0.0003776235    
0.0493681650    0.0200287930    0.0003797311    
0.0495908260    0.0197084470    0.0003703444    
0.0498134870    0.0194400580    0.0003713155    
0.0500361480    0.0194713680    0.0003706312    
0.0502588090    0.0201927900    0.0003717794    
0.0504814700    0.0200006070    0.0003748430    
0.0507041310    0.0199531090    0.0003699463    
0.0509267920    0.0202430290    0.0003741658    
0.0511494530    0.0195372300    0.0003651340    
0.0513721140    0.0199731410    0.0003724362    
0.0515947750    0.0199068220    0.0003668876    
0.0518174360    0.0199149010    0.0003647516    
0.0520400970    0.0193498040    0.0003570464    
0.0522627580    0.0195795790    0.0003622124    
0.0524854190    0.0200150370    0.0003691957    
0.0527080800    0.0196069050    0.0003682413    
0.0529307410    0.0194494320    0.0003684821    
0.0531534020    0.0191694650    0.0003644886    
0.0533760630    0.0196871770    0.0003705340    
0.0535987240    0.0199321260    0.0003710913    
0.0538213850    0.0192442710    0.0003688565    
0.0540440460    0.0186703740    0.0003615954    
0.0542667070    0.0196101990    0.0003731386    
0.0544893680    0.0193752290    0.0003710940    
0.0547120290    0.0195943960    0.0003706304    
0.0549346900    0.0197974840    0.0003727421    
0.0551573510    0.0195694790    0.0003749520    
0.0553800120    0.0193087870    0.0003692800    
0.0556026730    0.0197792900    0.0003815013    
0.0558253340    0.0201792600    0.0003885660    
0.0560479950    0.0190943730    0.0003779767    
0.0562706560    0.0190992490    0.0003816798    
0.0564933170    0.0196884920    0.0003908879    
0.0567159780    0.0204464470    0.0003935650    
0.0569386390    0.0195298860    0.0003906759    
0.0571613000    0.0194087190    0.0003810763    
0.0573839610    0.0195071870    0.0003788696    
0.0576066220    0.0196967320    0.0003817598    
0.0578292830    0.0199708650    0.0003831352    
0.0580519440    0.0194519650    0.0003795912    
0.0582746050    0.0190311530    0.0003738071    
0.0584972660    0.0200150930    0.0003818812    
0.0587199270    0.0200582060    0.0003789968    
0.0589425880    0.0200861200    0.0003770421    
0.0591652490    0.0193779440    0.0003725150    
0.0593879100    0.0196767620    0.0003725885    
0.0596105710    0.0193043790    0.0003686567    
0.0598332320    0.0190414320    0.0003692669    
0.0600558930    0.0202134200    0.0003780356    
0.0602785540    0.0191547640    0.0003676139    
0.0605012150    0.0198539590    0.0003734746    
0.0607238760    0.0194964100    0.0003673993    
0.0609465370    0.0199944820    0.0003749918    
0.0611691980    0.0195428820    0.0003713203    
0.0613918590    0.0196982640    0.0003687236    
0.0616145200    0.0198125770    0.0003724985    
0.0618371810    0.0199746350    0.0003703454    
0.0620598420    0.0197199740    0.0003683564    
0.0622825030    0.0190935990    0.0003680021    
0.0625051640    0.0199469230    0.0003708529    
0.0627278250    0.0194803340    0.0003657352    
0.0629504860    0.0194553630    0.0003625293    
0.0631731470    0.0200366810    0.0003724573    
0.0633958080    0.0195046020    0.0003695936    
0.0636184690    0.0190940940    0.0003707766    
0.0638411300    0.0194941030    0.0003732339    
0.0640637910    0.0191967890    0.0003729818    
0.0642864520    0.0199002850    0.0003789328    
0.0645091130    0.0197733260    0.0003810321    
0.0647317740    0.0196771350    0.0003805232    
0.0649544350    0.0197293160    0.0003806082    
0.0651770960    0.0196308580    0.0003775863    
0.0653997570    0.0191264000    0.0003718950    
0.0656224180    0.0195945900    0.0003772378    
0.0658450790    0.0193034620    0.0003690432    
0.0660677400    0.0194610050    0.0003721231    
0.0662904010    0.0198701410    0.0003805033    
0.0665130620    0.0198498190    0.0003786589    
0.0667357230    0.0198136930    0.0003850405    
0.0669583840    0.0199340370    0.0003849159    
0.0671810450    0.0192587810    0.0003762514    
0.0674037060    0.0194911460    0.0003849270    
0.0676263670    0.0190195130    0.0003774575    
0.0678490280    0.0199789260    0.0003844946    
0.0680716890    0.0198226680    0.0003838403    
0.0682943500    0.0192744940    0.0003743502    
0.0685170110    0.0191614850    0.0003694478    
0.0687396720    0.0195557820    0.0003722379    
0.0689623330    0.0197699840    0.0003730850    
0.0691849940    0.0187885110    0.0003662262    
0.0694076550    0.0197881760    0.0003756421    
0.0696303160    0.0189567210    0.0003647547    
0.0698529770    0.0198837630    0.0003727842    
0.0700756380    0.0197647610    0.0003668959    
0.0702982990    0.0190213700    0.0003638497    
0.0705209600    0.0196874910    0.0003674933    
0.0707436210    0.0192216110    0.0003614515    
0.0709662820    0.0189031230    0.0003627176    
0.0711889430    0.0193311150    0.0003622957    
0.0714116040    0.0194646640    0.0003642872    
0.0716342650    0.0193813080    0.0003620304    
0.0718569260    0.0201780570    0.0003679090    
0.0720795870    0.0197397710    0.0003653634    
0.0723022480    0.0196710990    0.0003652831    
0.0725249090    0.0190637090    0.0003552929    
0.0727475700    0.0199969320    0.0003669934    
0.0729702310    0.0197587700    0.0003618919    
0.0731928920    0.0196898590    0.0003627042    
0.0734155530    0.0195181960    0.0003603990    
0.0736382140    0.0193276060    0.0003563336    
0.0738608750    0.0197777800    0.0003627882    
0.0740835360    0.0191301000    0.0003559127    
0.0743061970    0.0197987780    0.0003569811    
0.0745288580    0.0195379340    0.0003582681    
0.0747515190    0.0193843400    0.0003575619    
0.0749741800    0.0192148840    0.0003527003    
0.0751968410    0.0194915000    0.0003580191    
0.0754195020    0.0197122250    0.0003579311    
0.0756421630    0.0194168410    0.0003523353    
0.0758648240    0.0197993960    0.0003566446    
0.0760874850    0.0200499430    0.0003587217    
0.0763101460    0.0195823030    0.0003541735    
0.0765328070    0.0195928510    0.0003578939    
0.0767554680    0.0202371710    0.0003612629    
0.0769781290    0.0199478770    0.0003566103    
0.0772007900    0.0198926670    0.0003532603    
0.0774234510    0.0189521500    0.0003467695    
0.0776461120    0.0193151830    0.0003497429    
0.0778687730    0.0197602640    0.0003525809    
0.0780914340    0.0199926110    0.0003571818    
0.0783140950    0.0199318390    0.0003509801    
0.0785367560    0.0192460520    0.0003504499    
0.0787594170    0.0194417250    0.0003490711    
0.0789820780    0.0192616090    0.0003456700    
0.0792047390    0.0198560680    0.0003521111    
0.0794274000    0.0192690370    0.0003483367    
0.0796500610    0.0192219960    0.0003445156    
0.0798727220    0.0197597170    0.0003489787    
0.0800953830    0.0194910220    0.0003458008    
0.0803180440    0.0195831210    0.0003490314    
0.0805407050    0.0195839710    0.0003487144    
0.0807633660    0.0186117740    0.0003396332    
0.0809860270    0.0196311540    0.0003475221    
0.0812086880    0.0194323890    0.0003427704    
0.0814313490    0.0192744650    0.0003429316    
0.0816540100    0.0198063190    0.0003468394    
0.0818766710    0.0193782460    0.0003438541    
0.0820993320    0.0199703170    0.0003484314    
0.0823219930    0.0194427570    0.0003452163    
0.0825446540    0.0198921920    0.0003466465    
0.0827673150    0.0191490190    0.0003378245    
0.0829899760    0.0192353060    0.0003379820    
0.0832126370    0.0199892250    0.0003460851    
0.0834352980    0.0194585120    0.0003406965    
0.0836579590    0.0190809860    0.0003366243    
0.0838806200    0.0192663250    0.0003393137    
0.0841032810    0.0195118260    0.0003393489    
0.0843259420    0.0195912680    0.0003389919    
0.0845486030    0.0193214770    0.0003366499    
0.0847712640    0.0194169760    0.0003354242    
0.0849939250    0.0191416000    0.0003336171    
0.0852165860    0.0193083780    0.0003355063    
0.0854392470    0.0194363240    0.0003334283    
0.0856619080    0.0195205160    0.0003366107    
0.0858845690    0.0193642900    0.0003322414    
0.0861072300    0.0193320430    0.0003342564    
0.0863298910    0.0192605500    0.0003353848    
0.0865525520    0.0194975820    0.0003345284    
0.0867752130    0.0201611980    0.0003374289    
0.0869978740    0.0192139930    0.0003302465    
0.0872205350    0.0196746920    0.0003337571    
0.0874431960    0.0196520750    0.0003335655    
0.0876658570    0.0197747500    0.0003358897    
0.0878885180    0.0200372660    0.0003386916    
0.0881111790    0.0199858750    0.0003378229    
0.0883338400    0.0198706390    0.0003319157    
0.0885565010    0.0199404750    0.0003370074    
0.0887791620    0.0187330510    0.0003224091    
0.0890018230    0.0188436490    0.0003264959    
0.0892244840    0.0196570450    0.0003340350    
0.0894471450    0.0191198560    0.0003280476    
0.0896698060    0.0196462160    0.0003312781    
0.0898924670    0.0201839640    0.0003373377    
0.0901151280    0.0195958190    0.0003287963    
0.0903377890    0.0194259410    0.0003301078    
0.0905604500    0.0195982150    0.0003300467    
0.0907831110    0.0201755540    0.0003340397    
0.0910057720    0.0190885770    0.0003264078    
0.0912284330    0.0196250090    0.0003262237    
0.0914510940    0.0192445680    0.0003266486    
0.0916737550    0.0193532970    0.0003267572    
0.0918964160    0.0190584490    0.0003256071    
0.0921190770    0.0191305340    0.0003232727    
0.0923417380    0.0199827190    0.0003305300    
0.0925643990    0.0197163810    0.0003275164    
0.0927870600    0.0196261020    0.0003281058    
0.0930097210    0.0197192020    0.0003260820    
0.0932323820    0.0201141370    0.0003317521    
