# Diamond Light Source Ltd.
# Data extracted from: /dls/b21/data/2018/cm19678-3/processed/b21-386631_00057.dat
q(1/A)          Column          Error           
0.0035000000    2.0989555000    0.0246799350    
0.0037226610    1.8902474000    0.0229276750    
0.0039453220    1.6248728000    0.0193382430    
0.0041679830    1.3055451000    0.0142353470    
0.0043906440    0.9709132900    0.0117421510    
0.0046133050    0.7890197400    0.0101616730    
0.0048359660    0.5998771200    0.0083810826    
0.0050586270    0.4610998700    0.0072223397    
0.0052812880    0.4197799300    0.0065154633    
0.0055039490    0.3921444700    0.0059878109    
0.0057266100    0.3219119900    0.0052484100    
0.0059492710    0.2680888800    0.0047895929    
0.0061719320    0.2206529000    0.0041871807    
0.0063945930    0.1964068200    0.0039983233    
0.0066172539    0.1876730400    0.0036699998    
0.0068399149    0.1695718500    0.0034335855    
0.0070625759    0.1537839900    0.0032363028    
0.0072852369    0.1257565800    0.0028827789    
0.0075078979    0.1184381900    0.0027838927    
0.0077305589    0.1003051700    0.0025131329    
0.0079532199    0.0976669610    0.0024454981    
0.0081758809    0.0915705500    0.0023899719    
0.0083985419    0.0819380170    0.0021086135    
0.0086212029    0.0759690340    0.0020303578    
0.0088438639    0.0713362370    0.0019516726    
0.0090665249    0.0644530230    0.0017917448    
0.0092891859    0.0612093650    0.0018224823    
0.0095118469    0.0599192880    0.0017340614    
0.0097345079    0.0593598030    0.0016762689    
0.0099571689    0.0533500270    0.0015563802    
0.0101798300    0.0496722890    0.0015017772    
0.0104024910    0.0482092370    0.0014744885    
0.0106251520    0.0462669840    0.0014493861    
0.0108478130    0.0481851050    0.0014404486    
0.0110704740    0.0428959310    0.0012939493    
0.0112931350    0.0431875300    0.0013021530    
0.0115157960    0.0417152360    0.0012723028    
0.0117384570    0.0383303510    0.0012090932    
0.0119611180    0.0387424420    0.0012190634    
0.0121837790    0.0406770150    0.0012281340    
0.0124064400    0.0329295240    0.0010589421    
0.0126291010    0.0354310090    0.0010846792    
0.0128517620    0.0350742160    0.0010818987    
0.0130744230    0.0327146590    0.0010371244    
0.0132970840    0.0322001490    0.0010239052    
0.0135197450    0.0320753240    0.0010072843    
0.0137424060    0.0327571070    0.0010037620    
0.0139650670    0.0306966100    0.0009500362    
0.0141877280    0.0281154080    0.0009112256    
0.0144103890    0.0298639200    0.0009229400    
0.0146330500    0.0291761180    0.0009064579    
0.0148557110    0.0272563770    0.0008724554    
0.0150783720    0.0286205370    0.0008866330    
0.0153010330    0.0277657740    0.0008609801    
0.0155236940    0.0270672050    0.0008450253    
0.0157463550    0.0267997740    0.0008262724    
0.0159690160    0.0268242920    0.0008235132    
0.0161916770    0.0257479640    0.0008022769    
0.0164143380    0.0257335240    0.0008081282    
0.0166369990    0.0257205700    0.0007830146    
0.0168596600    0.0244730860    0.0007570605    
0.0170823210    0.0246955770    0.0007539097    
0.0173049820    0.0253584130    0.0007652810    
0.0175276430    0.0233960720    0.0007428260    
0.0177503040    0.0250405220    0.0007488977    
0.0179729650    0.0239974200    0.0007258627    
0.0181956260    0.0235296920    0.0007049749    
0.0184182870    0.0235385720    0.0007017846    
0.0186409480    0.0238586710    0.0007110122    
0.0188636090    0.0242918220    0.0007129252    
0.0190862700    0.0232564590    0.0006964760    
0.0193089310    0.0243276230    0.0007112246    
0.0195315920    0.0232443480    0.0006715664    
0.0197542530    0.0225142970    0.0006618990    
0.0199769140    0.0237596940    0.0006799594    
0.0201995750    0.0223992070    0.0006498669    
0.0204222360    0.0223634560    0.0006549221    
0.0206448970    0.0229542840    0.0006588012    
0.0208675580    0.0232338530    0.0006491524    
0.0210902190    0.0223716630    0.0006431401    
0.0213128800    0.0224343140    0.0006353011    
0.0215355410    0.0225704360    0.0006296343    
0.0217582020    0.0212882330    0.0006114885    
0.0219808630    0.0224586580    0.0006272487    
0.0222035240    0.0213997940    0.0006067355    
0.0224261850    0.0224061650    0.0006153125    
0.0226488460    0.0204230910    0.0005830411    
0.0228715070    0.0216964010    0.0005994487    
0.0230941680    0.0217792210    0.0006005919    
0.0233168290    0.0210889060    0.0005924692    
0.0235394900    0.0221236910    0.0006001335    
0.0237621510    0.0225516640    0.0005895986    
0.0239848120    0.0218777100    0.0005813936    
0.0242074730    0.0203581640    0.0005563503    
0.0244301340    0.0211056340    0.0005671181    
0.0246527950    0.0215603950    0.0005785030    
0.0248754560    0.0207208230    0.0005543816    
0.0250981170    0.0212900910    0.0005631984    
0.0253207780    0.0212997410    0.0005465066    
0.0255434390    0.0217281800    0.0005578669    
0.0257661000    0.0220852170    0.0005642509    
0.0259887610    0.0206869720    0.0005402937    
0.0262114220    0.0206512810    0.0005427036    
0.0264340830    0.0203429240    0.0005313080    
0.0266567440    0.0200374800    0.0005240460    
0.0268794050    0.0216142680    0.0005420533    
0.0271020660    0.0209541920    0.0005315516    
0.0273247270    0.0204368030    0.0005217954    
0.0275473880    0.0217754000    0.0005375413    
0.0277700490    0.0204041050    0.0005172646    
0.0279927100    0.0207840690    0.0005175036    
0.0282153710    0.0209346090    0.0005218994    
0.0284380320    0.0209626720    0.0005192217    
0.0286606930    0.0207697020    0.0005124028    
0.0288833540    0.0200111840    0.0005039146    
0.0291060150    0.0204165090    0.0005085094    
0.0293286760    0.0203071350    0.0005000787    
0.0295513370    0.0206985970    0.0004993779    
0.0297739980    0.0204918790    0.0005023485    
0.0299966590    0.0200120280    0.0004879531    
0.0302193200    0.0197545010    0.0004918684    
0.0304419810    0.0198026880    0.0004933741    
0.0306646420    0.0200355660    0.0004822600    
0.0308873030    0.0194140440    0.0004726705    
0.0311099640    0.0204404240    0.0004862634    
0.0313326250    0.0209742830    0.0004871158    
0.0315552860    0.0205115440    0.0004879553    
0.0317779470    0.0207914850    0.0004917017    
0.0320006080    0.0202350380    0.0004740562    
0.0322232690    0.0208079750    0.0004827330    
0.0324459300    0.0201233410    0.0004711809    
0.0326685910    0.0197821430    0.0004663992    
0.0328912520    0.0196809280    0.0004667450    
0.0331139130    0.0200240830    0.0004646722    
0.0333365740    0.0198504440    0.0004641554    
0.0335592350    0.0200241070    0.0004616988    
0.0337818960    0.0198965770    0.0004598598    
0.0340045570    0.0201618630    0.0004621801    
0.0342272170    0.0195931770    0.0004538182    
0.0344498780    0.0200983190    0.0004614515    
0.0346725390    0.0206161150    0.0004587025    
0.0348952000    0.0199230480    0.0004488722    
0.0351178610    0.0204426390    0.0004567688    
0.0353405220    0.0197208080    0.0004465884    
0.0355631830    0.0203454080    0.0004518971    
0.0357858440    0.0208372440    0.0004573268    
0.0360085050    0.0198424800    0.0004476253    
0.0362311660    0.0202411600    0.0004467257    
0.0364538270    0.0199757600    0.0004402254    
0.0366764880    0.0196174020    0.0004359423    
0.0368991490    0.0201297870    0.0004393726    
0.0371218100    0.0211113420    0.0004486700    
0.0373444710    0.0200243210    0.0004417249    
0.0375671320    0.0194705320    0.0004349396    
0.0377897930    0.0203746810    0.0004334058    
0.0380124540    0.0204257820    0.0004366717    
0.0382351150    0.0196322890    0.0004281060    
0.0384577760    0.0205829110    0.0004341188    
0.0386804370    0.0190110970    0.0004203979    
0.0389030980    0.0194292690    0.0004217778    
0.0391257590    0.0200515260    0.0004255699    
0.0393484200    0.0196386690    0.0004197485    
0.0395710810    0.0197006120    0.0004209763    
0.0397937420    0.0199884890    0.0004240411    
0.0400164030    0.0195982400    0.0004215894    
0.0402390640    0.0201569370    0.0004218632    
0.0404617250    0.0196318770    0.0004138763    
0.0406843860    0.0194340620    0.0004078073    
0.0409070470    0.0195440250    0.0004132197    
0.0411297080    0.0195618600    0.0004094088    
0.0413523690    0.0194216830    0.0004089908    
0.0415750300    0.0200508660    0.0004190928    
0.0417976910    0.0197918550    0.0004056083    
0.0420203520    0.0199576180    0.0004088337    
0.0422430130    0.0186660290    0.0003968802    
0.0424656740    0.0204110020    0.0004096151    
0.0426883350    0.0193604950    0.0004009149    
0.0429109960    0.0190806690    0.0003992506    
0.0431336570    0.0194562710    0.0003974808    
0.0433563180    0.0192729560    0.0003990166    
0.0435789790    0.0197846190    0.0003979270    
0.0438016400    0.0199842860    0.0004021056    
0.0440243010    0.0189624760    0.0003877167    
0.0442469620    0.0193749290    0.0003942589    
0.0444696230    0.0200008900    0.0003991407    
0.0446922840    0.0190904700    0.0003887926    
0.0449149450    0.0195083970    0.0003877712    
0.0451376060    0.0197720550    0.0003952041    
0.0453602670    0.0191121690    0.0003844799    
0.0455829280    0.0198319490    0.0003912000    
0.0458055890    0.0203059340    0.0003981556    
0.0460282500    0.0194000730    0.0003844804    
0.0462509110    0.0189713690    0.0003778437    
0.0464735720    0.0200400000    0.0003885589    
0.0466962330    0.0199261170    0.0003892146    
0.0469188940    0.0198737770    0.0003876012    
0.0471415550    0.0193223510    0.0003841490    
0.0473642160    0.0197502770    0.0003829414    
0.0475868770    0.0196868550    0.0003804267    
0.0478095380    0.0198501420    0.0003803295    
0.0480321990    0.0191906730    0.0003747778    
0.0482548600    0.0194591410    0.0003757459    
0.0484775210    0.0198622790    0.0003833874    
0.0487001820    0.0197879900    0.0003770680    
0.0489228430    0.0198097950    0.0003770730    
0.0491455040    0.0194659330    0.0003712008    
0.0493681650    0.0201115620    0.0003805488    
0.0495908260    0.0194822580    0.0003682458    
0.0498134870    0.0194718890    0.0003716524    
0.0500361480    0.0194113260    0.0003700922    
0.0502588090    0.0190941370    0.0003615562    
0.0504814700    0.0191891010    0.0003671925    
0.0507041310    0.0194558540    0.0003653400    
0.0509267920    0.0199007690    0.0003710222    
0.0511494530    0.0190219840    0.0003603191    
0.0513721140    0.0197752590    0.0003706196    
0.0515947750    0.0191529020    0.0003599051    
0.0518174360    0.0200654420    0.0003661601    
0.0520400970    0.0198210970    0.0003614005    
0.0522627580    0.0190603100    0.0003574087    
0.0524854190    0.0198006330    0.0003672456    
0.0527080800    0.0195896400    0.0003681119    
0.0529307410    0.0195506430    0.0003694724    
0.0531534020    0.0195749080    0.0003683557    
0.0533760630    0.0192512480    0.0003664412    
0.0535987240    0.0195141530    0.0003672124    
0.0538213850    0.0198487420    0.0003746380    
0.0540440460    0.0197873910    0.0003722882    
0.0542667070    0.0197344080    0.0003743517    
0.0544893680    0.0197341160    0.0003745484    
0.0547120290    0.0199414570    0.0003739315    
0.0549346900    0.0196957180    0.0003718159    
0.0551573510    0.0192855430    0.0003722551    
0.0553800120    0.0201104210    0.0003769011    
0.0556026730    0.0199741590    0.0003834101    
0.0558253340    0.0195093380    0.0003820956    
0.0560479950    0.0198012120    0.0003849434    
0.0562706560    0.0198884170    0.0003895199    
0.0564933170    0.0201111370    0.0003950963    
0.0567159780    0.0194044690    0.0003834396    
0.0569386390    0.0199945300    0.0003953311    
0.0571613000    0.0195693240    0.0003826837    
0.0573839610    0.0195916130    0.0003797224    
0.0576066220    0.0199148500    0.0003839018    
0.0578292830    0.0200626370    0.0003840487    
0.0580519440    0.0197962270    0.0003829695    
0.0582746050    0.0201434170    0.0003846097    
0.0584972660    0.0192534690    0.0003745783    
0.0587199270    0.0200904220    0.0003793347    
0.0589425880    0.0198136170    0.0003745091    
0.0591652490    0.0195461240    0.0003741613    
0.0593879100    0.0197014310    0.0003728551    
0.0596105710    0.0196458040    0.0003719356    
0.0598332320    0.0196392970    0.0003750526    
0.0600558930    0.0202665140    0.0003785654    
0.0602785540    0.0196662320    0.0003725226    
0.0605012150    0.0189580700    0.0003649834    
0.0607238760    0.0189112800    0.0003618762    
0.0609465370    0.0197096380    0.0003723442    
0.0611691980    0.0196169220    0.0003720561    
0.0613918590    0.0196189280    0.0003680131    
0.0616145200    0.0196900170    0.0003713776    
0.0618371810    0.0197927590    0.0003686883    
0.0620598420    0.0198198270    0.0003693207    
0.0622825030    0.0194871630    0.0003718085    
0.0625051640    0.0193298190    0.0003651037    
0.0627278250    0.0202323820    0.0003727611    
0.0629504860    0.0196074670    0.0003639760    
0.0631731470    0.0197355550    0.0003696808    
0.0633958080    0.0192629060    0.0003673292    
0.0636184690    0.0196519790    0.0003761876    
0.0638411300    0.0193260360    0.0003716545    
0.0640637910    0.0186783390    0.0003679434    
0.0642864520    0.0199326900    0.0003792749    
0.0645091130    0.0193509020    0.0003769736    
0.0647317740    0.0192095940    0.0003760087    
0.0649544350    0.0196667300    0.0003800379    
0.0651770960    0.0198304750    0.0003795350    
0.0653997570    0.0196360720    0.0003768510    
0.0656224180    0.0195908110    0.0003772350    
0.0658450790    0.0195397630    0.0003713281    
0.0660677400    0.0197135540    0.0003745631    
0.0662904010    0.0192250650    0.0003743091    
0.0665130620    0.0202796030    0.0003827703    
0.0667357230    0.0190388970    0.0003774707    
0.0669583840    0.0201903330    0.0003874169    
0.0671810450    0.0200709240    0.0003841369    
0.0674037060    0.0199051850    0.0003890285    
0.0676263670    0.0200193670    0.0003872863    
0.0678490280    0.0196272340    0.0003811293    
0.0680716890    0.0194321960    0.0003800748    
0.0682943500    0.0195106240    0.0003766698    
0.0685170110    0.0200554540    0.0003780013    
0.0687396720    0.0192757920    0.0003695964    
0.0689623330    0.0193721140    0.0003693446    
0.0691849940    0.0199342140    0.0003772606    
0.0694076550    0.0188573830    0.0003667336    
0.0696303160    0.0195076240    0.0003700497    
0.0698529770    0.0194049700    0.0003683013    
0.0700756380    0.0197137800    0.0003664550    
0.0702982990    0.0200967660    0.0003740268    
0.0705209600    0.0200614840    0.0003710004    
0.0707436210    0.0193337980    0.0003625370    
0.0709662820    0.0195608320    0.0003690066    
0.0711889430    0.0193481340    0.0003624874    
0.0714116040    0.0196658750    0.0003661977    
0.0716342650    0.0202640350    0.0003702159    
0.0718569260    0.0195845160    0.0003624898    
0.0720795870    0.0193915680    0.0003621588    
0.0723022480    0.0196813810    0.0003654111    
0.0725249090    0.0195373200    0.0003597112    
0.0727475700    0.0197175580    0.0003644532    
0.0729702310    0.0196893600    0.0003612879    
0.0731928920    0.0199205660    0.0003648553    
0.0734155530    0.0192820550    0.0003582441    
0.0736382140    0.0197515680    0.0003602526    
0.0738608750    0.0197347050    0.0003624251    
0.0740835360    0.0199216240    0.0003632335    
0.0743061970    0.0190104640    0.0003498332    
0.0745288580    0.0193311440    0.0003563988    
0.0747515190    0.0202387650    0.0003653897    
0.0749741800    0.0195809100    0.0003560754    
0.0751968410    0.0196396660    0.0003594092    
0.0754195020    0.0197872350    0.0003586434    
0.0756421630    0.0197847840    0.0003556896    
0.0758648240    0.0194880750    0.0003538610    
0.0760874850    0.0199828970    0.0003581532    
0.0763101460    0.0191437110    0.0003502159    
0.0765328070    0.0194655620    0.0003567611    
0.0767554680    0.0194215920    0.0003539398    
0.0769781290    0.0195178360    0.0003527768    
0.0772007900    0.0189675890    0.0003449793    
0.0774234510    0.0199899190    0.0003561687    
0.0776461120    0.0200153550    0.0003560572    
0.0778687730    0.0193170330    0.0003486352    
0.0780914340    0.0195238660    0.0003530011    
0.0783140950    0.0197375750    0.0003492966    
0.0785367560    0.0193388290    0.0003513248    
0.0787594170    0.0197460750    0.0003518240    
0.0789820780    0.0195938730    0.0003486697    
0.0792047390    0.0193100250    0.0003472667    
0.0794274000    0.0194362160    0.0003498757    
0.0796500610    0.0195712610    0.0003476624    
0.0798727220    0.0193625420    0.0003454844    
0.0800953830    0.0191815450    0.0003430750    
0.0803180440    0.0202212390    0.0003547040    
0.0805407050    0.0198048160    0.0003507063    
0.0807633660    0.0194271300    0.0003470237    
0.0809860270    0.0200099860    0.0003508904    
0.0812086880    0.0193814190    0.0003423510    
0.0814313490    0.0190948170    0.0003413601    
0.0816540100    0.0196397470    0.0003454085    
0.0818766710    0.0193328710    0.0003434818    
0.0820993320    0.0192685500    0.0003422850    
0.0823219930    0.0198937470    0.0003492281    
0.0825446540    0.0200044820    0.0003476544    
0.0827673150    0.0196471800    0.0003422210    
0.0829899760    0.0197376620    0.0003423975    
0.0832126370    0.0191297820    0.0003385935    
0.0834352980    0.0191159280    0.0003377141    
0.0836579590    0.0196427140    0.0003415737    
0.0838806200    0.0187258470    0.0003345502    
0.0841032810    0.0189781240    0.0003347055    
0.0843259420    0.0195712850    0.0003388491    
0.0845486030    0.0190374440    0.0003341960    
0.0847712640    0.0194494060    0.0003357340    
0.0849939250    0.0195928060    0.0003375562    
0.0852165860    0.0199881910    0.0003413918    
0.0854392470    0.0197201070    0.0003358835    
0.0856619080    0.0194659320    0.0003361696    
0.0858845690    0.0192366010    0.0003311737    
0.0861072300    0.0193932840    0.0003348152    
0.0863298910    0.0192873390    0.0003356478    
0.0865525520    0.0197536380    0.0003367478    
0.0867752130    0.0194474370    0.0003314316    
0.0869978740    0.0191038650    0.0003293280    
0.0872205350    0.0192761330    0.0003303887    
0.0874431960    0.0192818260    0.0003304377    
0.0876658570    0.0191848040    0.0003308709    
0.0878885180    0.0193193590    0.0003325984    
0.0881111790    0.0193611900    0.0003325310    
0.0883338400    0.0193196470    0.0003273106    
0.0885565010    0.0198129980    0.0003359583    
0.0887791620    0.0191137730    0.0003256978    
0.0890018230    0.0195429410    0.0003325284    
0.0892244840    0.0196548630    0.0003340462    
0.0894471450    0.0189487420    0.0003266054    
0.0896698060    0.0193982910    0.0003292105    
0.0898924670    0.0192796770    0.0003297237    
0.0901151280    0.0197703560    0.0003302867    
0.0903377890    0.0193564570    0.0003295462    
0.0905604500    0.0193459770    0.0003279450    
0.0907831110    0.0192498390    0.0003263153    
0.0910057720    0.0199572500    0.0003337818    
0.0912284330    0.0191566330    0.0003223360    
0.0914510940    0.0188764500    0.0003235382    
0.0916737550    0.0193732920    0.0003269550    
0.0918964160    0.0190284550    0.0003253797    
0.0921190770    0.0198059730    0.0003289593    
0.0923417380    0.0197183300    0.0003283653    
0.0925643990    0.0196981220    0.0003273939    
0.0927870600    0.0200410560    0.0003315857    
0.0930097210    0.0193559750    0.0003230936    
0.0932323820    0.0190395880    0.0003227976    
