# Diamond Light Source Ltd.
# Data extracted from: /dls/b21/data/2018/cm19678-3/processed/b21-386631_00058.dat
q(1/A)          Column          Error           
0.0035000000    2.1175433000    0.0247856680    
0.0037226610    1.8916895000    0.0229333610    
0.0039453220    1.6499795000    0.0194844740    
0.0041679830    1.2806789000    0.0140972480    
0.0043906440    0.9632719100    0.0116942930    
0.0046133050    0.8024162700    0.0102462100    
0.0048359660    0.6148183700    0.0084836839    
0.0050586270    0.4664054900    0.0072628040    
0.0052812880    0.4253296100    0.0065575161    
0.0055039490    0.3753126200    0.0058571143    
0.0057266100    0.3258468300    0.0052796851    
0.0059492710    0.2663920000    0.0047737743    
0.0061719320    0.2306030100    0.0042799772    
0.0063945930    0.2016437300    0.0040507372    
0.0066172539    0.1819548400    0.0036131750    
0.0068399149    0.1691095900    0.0034284451    
0.0070625759    0.1488406300    0.0031834383    
0.0072852369    0.1245999300    0.0028691084    
0.0075078979    0.1153973800    0.0027475567    
0.0077305589    0.0999636800    0.0025085166    
0.0079532199    0.0962329290    0.0024271546    
0.0081758809    0.0903612710    0.0023738219    
0.0083985419    0.0839776330    0.0021344115    
0.0086212029    0.0759487760    0.0020298164    
0.0088438639    0.0725449800    0.0019678756    
0.0090665249    0.0630415520    0.0017717810    
0.0092891859    0.0603793060    0.0018098415    
0.0095118469    0.0591005850    0.0017219444    
0.0097345079    0.0551321610    0.0016152586    
0.0099571689    0.0540166830    0.0015658654    
0.0101798300    0.0513385540    0.0015265546    
0.0104024910    0.0463027910    0.0014448473    
0.0106251520    0.0454829790    0.0014368620    
0.0108478130    0.0434368240    0.0013674532    
0.0110704740    0.0413626580    0.0012704440    
0.0112931350    0.0412919690    0.0012730859    
0.0115157960    0.0397255920    0.0012414247    
0.0117384570    0.0398453090    0.0012325912    
0.0119611180    0.0386937620    0.0012181349    
0.0121837790    0.0382195260    0.0011902987    
0.0124064400    0.0375847990    0.0011311695    
0.0126291010    0.0364506780    0.0011000298    
0.0128517620    0.0355319500    0.0010887903    
0.0130744230    0.0321800110    0.0010284776    
0.0132970840    0.0311499750    0.0010069357    
0.0135197450    0.0327625000    0.0010178813    
0.0137424060    0.0304728980    0.0009680035    
0.0139650670    0.0296595970    0.0009337265    
0.0141877280    0.0291412900    0.0009275775    
0.0144103890    0.0302836920    0.0009292799    
0.0146330500    0.0296469690    0.0009136211    
0.0148557110    0.0299293490    0.0009141130    
0.0150783720    0.0284481470    0.0008838409    
0.0153010330    0.0268241930    0.0008461428    
0.0155236940    0.0268753670    0.0008419132    
0.0157463550    0.0272001200    0.0008323102    
0.0159690160    0.0263874580    0.0008166713    
0.0161916770    0.0263908730    0.0008121230    
0.0164143380    0.0254475760    0.0008035186    
0.0166369990    0.0270482510    0.0008028627    
0.0168596600    0.0254030800    0.0007712079    
0.0170823210    0.0229172740    0.0007261616    
0.0173049820    0.0257210740    0.0007706311    
0.0175276430    0.0235548820    0.0007452435    
0.0177503040    0.0246755790    0.0007433213    
0.0179729650    0.0251982550    0.0007437030    
0.0181956260    0.0250860140    0.0007278191    
0.0184182870    0.0254985490    0.0007303207    
0.0186409480    0.0227295980    0.0006938920    
0.0188636090    0.0233440520    0.0006987859    
0.0190862700    0.0236881550    0.0007028167    
0.0193089310    0.0228868120    0.0006897499    
0.0195315920    0.0229859830    0.0006677346    
0.0197542530    0.0221581210    0.0006565549    
0.0199769140    0.0221970370    0.0006571313    
0.0201995750    0.0229021710    0.0006570350    
0.0204222360    0.0219740020    0.0006491078    
0.0206448970    0.0219085020    0.0006435332    
0.0208675580    0.0225023600    0.0006387666    
0.0210902190    0.0212196860    0.0006262792    
0.0213128800    0.0221225730    0.0006307875    
0.0215355410    0.0226346570    0.0006304454    
0.0217582020    0.0221956690    0.0006243020    
0.0219808630    0.0224351560    0.0006268369    
0.0222035240    0.0210329330    0.0006014321    
0.0224261850    0.0207108850    0.0005914982    
0.0226488460    0.0212829400    0.0005951088    
0.0228715070    0.0224853860    0.0006101695    
0.0230941680    0.0213097970    0.0005940049    
0.0233168290    0.0202346260    0.0005802677    
0.0235394900    0.0227687940    0.0006087390    
0.0237621510    0.0213744480    0.0005739270    
0.0239848120    0.0209605480    0.0005690006    
0.0242074730    0.0210519330    0.0005656751    
0.0244301340    0.0212675870    0.0005692139    
0.0246527950    0.0203442330    0.0005618753    
0.0248754560    0.0216198310    0.0005662048    
0.0250981170    0.0224312990    0.0005780188    
0.0253207780    0.0210277100    0.0005429331    
0.0255434390    0.0209061860    0.0005471399    
0.0257661000    0.0206813540    0.0005459502    
0.0259887610    0.0210200330    0.0005445531    
0.0262114220    0.0208881620    0.0005457345    
0.0264340830    0.0204346090    0.0005324330    
0.0266567440    0.0213201130    0.0005404863    
0.0268794050    0.0213502900    0.0005386612    
0.0271020660    0.0209081640    0.0005308966    
0.0273247270    0.0209507950    0.0005282459    
0.0275473880    0.0211460880    0.0005296462    
0.0277700490    0.0200184840    0.0005122850    
0.0279927100    0.0205981800    0.0005151155    
0.0282153710    0.0196542940    0.0005056211    
0.0284380320    0.0203656560    0.0005117064    
0.0286606930    0.0200438000    0.0005033018    
0.0288833540    0.0201580800    0.0005056933    
0.0291060150    0.0208542330    0.0005138631    
0.0293286760    0.0203632780    0.0005007027    
0.0295513370    0.0205364940    0.0004973523    
0.0297739980    0.0198092800    0.0004938450    
0.0299966590    0.0204586860    0.0004933027    
0.0302193200    0.0202879600    0.0004983990    
0.0304419810    0.0207682300    0.0005051916    
0.0306646420    0.0198677530    0.0004801721    
0.0308873030    0.0201336790    0.0004812870    
0.0311099640    0.0193710130    0.0004733092    
0.0313326250    0.0199168620    0.0004746148    
0.0315552860    0.0196473020    0.0004775012    
0.0317779470    0.0205418100    0.0004886753    
0.0320006080    0.0198188320    0.0004690930    
0.0322232690    0.0197275970    0.0004699712    
0.0324459300    0.0204378330    0.0004747852    
0.0326685910    0.0200626930    0.0004696321    
0.0328912520    0.0198859380    0.0004691071    
0.0331139130    0.0201696650    0.0004662961    
0.0333365740    0.0196498460    0.0004617426    
0.0335592350    0.0197207740    0.0004581274    
0.0337818960    0.0202206670    0.0004635281    
0.0340045570    0.0195739290    0.0004553308    
0.0342272170    0.0205337230    0.0004645211    
0.0344498780    0.0198493440    0.0004585232    
0.0346725390    0.0203351290    0.0004555051    
0.0348952000    0.0204940350    0.0004551983    
0.0351178610    0.0204677970    0.0004569889    
0.0353405220    0.0204435080    0.0004546371    
0.0355631830    0.0206510530    0.0004552181    
0.0357858440    0.0197880960    0.0004456055    
0.0360085050    0.0202712850    0.0004523758    
0.0362311660    0.0195162250    0.0004385945    
0.0364538270    0.0203971940    0.0004447857    
0.0366764880    0.0200286270    0.0004404290    
0.0368991490    0.0199614290    0.0004374730    
0.0371218100    0.0202477570    0.0004393389    
0.0373444710    0.0203112290    0.0004448189    
0.0375671320    0.0196498910    0.0004368801    
0.0377897930    0.0195581650    0.0004245760    
0.0380124540    0.0198230310    0.0004301231    
0.0382351150    0.0199070410    0.0004310337    
0.0384577760    0.0199366660    0.0004271925    
0.0386804370    0.0210135100    0.0004419247    
0.0389030980    0.0196346220    0.0004239444    
0.0391257590    0.0195314800    0.0004199590    
0.0393484200    0.0195527090    0.0004187730    
0.0395710810    0.0203248910    0.0004275373    
0.0397937420    0.0204867850    0.0004292368    
0.0400164030    0.0206991440    0.0004332110    
0.0402390640    0.0194012850    0.0004138249    
0.0404617250    0.0189462520    0.0004065307    
0.0406843860    0.0203785080    0.0004175433    
0.0409070470    0.0202113600    0.0004201592    
0.0411297080    0.0198050640    0.0004118910    
0.0413523690    0.0200967270    0.0004159824    
0.0415750300    0.0193624480    0.0004117806    
0.0417976910    0.0198115080    0.0004057555    
0.0420203520    0.0199941590    0.0004091532    
0.0422430130    0.0203398710    0.0004142377    
0.0424656740    0.0197974190    0.0004033575    
0.0426883350    0.0203098190    0.0004105718    
0.0429109960    0.0191256920    0.0003996680    
0.0431336570    0.0196215640    0.0003991125    
0.0433563180    0.0199037450    0.0004054397    
0.0435789790    0.0193472710    0.0003934518    
0.0438016400    0.0191458260    0.0003935274    
0.0440243010    0.0196707000    0.0003948380    
0.0442469620    0.0196424630    0.0003969187    
0.0444696230    0.0198681460    0.0003977609    
0.0446922840    0.0196474120    0.0003943705    
0.0449149450    0.0200811240    0.0003933696    
0.0451376060    0.0199958030    0.0003973809    
0.0453602670    0.0200040460    0.0003932961    
0.0455829280    0.0196029360    0.0003888828    
0.0458055890    0.0196839330    0.0003919578    
0.0460282500    0.0195091670    0.0003855085    
0.0462509110    0.0202603220    0.0003904165    
0.0464735720    0.0203735880    0.0003917273    
0.0466962330    0.0194267730    0.0003842556    
0.0469188940    0.0194452610    0.0003833486    
0.0471415550    0.0196989610    0.0003878229    
0.0473642160    0.0200716190    0.0003859927    
0.0475868770    0.0197697970    0.0003811765    
0.0478095380    0.0196335780    0.0003781987    
0.0480321990    0.0194782410    0.0003775250    
0.0482548600    0.0195409950    0.0003764852    
0.0484775210    0.0195758480    0.0003805622    
0.0487001820    0.0197324310    0.0003764881    
0.0489228430    0.0196322990    0.0003753299    
0.0491455040    0.0198570340    0.0003748612    
0.0493681650    0.0198974350    0.0003784670    
0.0495908260    0.0192891810    0.0003663677    
0.0498134870    0.0200978580    0.0003775286    
0.0500361480    0.0196671560    0.0003724733    
0.0502588090    0.0198419300    0.0003685189    
0.0504814700    0.0196265290    0.0003713046    
0.0507041310    0.0198416000    0.0003688948    
0.0509267920    0.0192730810    0.0003650755    
0.0511494530    0.0200677210    0.0003700416    
0.0513721140    0.0200685840    0.0003733084    
0.0515947750    0.0202228300    0.0003697717    
0.0518174360    0.0201202120    0.0003666106    
0.0520400970    0.0198092240    0.0003612441    
0.0522627580    0.0196716410    0.0003630468    
0.0524854190    0.0198838770    0.0003679676    
0.0527080800    0.0191556610    0.0003639630    
0.0529307410    0.0197967280    0.0003717409    
0.0531534020    0.0197152130    0.0003696242    
0.0533760630    0.0198737050    0.0003722686    
0.0535987240    0.0194951330    0.0003669845    
0.0538213850    0.0193132540    0.0003695006    
0.0540440460    0.0199221650    0.0003735041    
0.0542667070    0.0189482150    0.0003667702    
0.0544893680    0.0201339490    0.0003782733    
0.0547120290    0.0193823570    0.0003686031    
0.0549346900    0.0196904660    0.0003717168    
0.0551573510    0.0192085660    0.0003714619    
0.0553800120    0.0202321720    0.0003779899    
0.0556026730    0.0197039550    0.0003807572    
0.0558253340    0.0200053930    0.0003868712    
0.0560479950    0.0197660060    0.0003845497    
0.0562706560    0.0195627870    0.0003862665    
0.0564933170    0.0195936240    0.0003899277    
0.0567159780    0.0193083960    0.0003824382    
0.0569386390    0.0194343770    0.0003897021    
0.0571613000    0.0203945510    0.0003906171    
0.0573839610    0.0195716730    0.0003794785    
0.0576066220    0.0197171760    0.0003819409    
0.0578292830    0.0194399130    0.0003779910    
0.0580519440    0.0197761350    0.0003827241    
0.0582746050    0.0192203430    0.0003756439    
0.0584972660    0.0194596150    0.0003765280    
0.0587199270    0.0197342030    0.0003759066    
0.0589425880    0.0198295650    0.0003746098    
0.0591652490    0.0190038770    0.0003688856    
0.0593879100    0.0194704320    0.0003706134    
0.0596105710    0.0202530130    0.0003775893    
0.0598332320    0.0197343070    0.0003759086    
0.0600558930    0.0189886040    0.0003663870    
0.0602785540    0.0197738600    0.0003734908    
0.0605012150    0.0198662440    0.0003735735    
0.0607238760    0.0195915970    0.0003682787    
0.0609465370    0.0189941240    0.0003654744    
0.0611691980    0.0197951090    0.0003736922    
0.0613918590    0.0198759480    0.0003703664    
0.0616145200    0.0191735650    0.0003664259    
0.0618371810    0.0193068690    0.0003640862    
0.0620598420    0.0201791840    0.0003726041    
0.0622825030    0.0192833880    0.0003698101    
0.0625051640    0.0191729910    0.0003635711    
0.0627278250    0.0198905570    0.0003695496    
0.0629504860    0.0197103140    0.0003648807    
0.0631731470    0.0197026010    0.0003693228    
0.0633958080    0.0196499270    0.0003709515    
0.0636184690    0.0196755360    0.0003763629    
0.0638411300    0.0193280280    0.0003716241    
0.0640637910    0.0192747900    0.0003737221    
0.0642864520    0.0198624410    0.0003785555    
0.0645091130    0.0192796650    0.0003762289    
0.0647317740    0.0201021520    0.0003845937    
0.0649544350    0.0189933770    0.0003734255    
0.0651770960    0.0202972150    0.0003839242    
0.0653997570    0.0194789950    0.0003752907    
0.0656224180    0.0192805830    0.0003741863    
0.0658450790    0.0200777670    0.0003763552    
0.0660677400    0.0198150200    0.0003754758    
0.0662904010    0.0193292260    0.0003752717    
0.0665130620    0.0195085870    0.0003753734    
0.0667357230    0.0194378400    0.0003813541    
0.0669583840    0.0190998960    0.0003767597    
0.0671810450    0.0196613200    0.0003801463    
0.0674037060    0.0191397590    0.0003814245    
0.0676263670    0.0192275500    0.0003794993    
0.0678490280    0.0197699790    0.0003824617    
0.0680716890    0.0197242910    0.0003828697    
0.0682943500    0.0190183310    0.0003718378    
0.0685170110    0.0195016670    0.0003726962    
0.0687396720    0.0197524180    0.0003740881    
0.0689623330    0.0193599090    0.0003691790    
0.0691849940    0.0192079740    0.0003702753    
0.0694076550    0.0195297280    0.0003731644    
0.0696303160    0.0200217390    0.0003748443    
0.0698529770    0.0195325750    0.0003694610    
0.0700756380    0.0196063710    0.0003654066    
0.0702982990    0.0204115330    0.0003768943    
0.0705209600    0.0194456710    0.0003652131    
0.0707436210    0.0203005120    0.0003714406    
0.0709662820    0.0195208200    0.0003685799    
0.0711889430    0.0197299710    0.0003659979    
0.0714116040    0.0197492540    0.0003669243    
0.0716342650    0.0198867270    0.0003667041    
0.0718569260    0.0203707830    0.0003696454    
0.0720795870    0.0190009680    0.0003584450    
0.0723022480    0.0204086470    0.0003720515    
0.0725249090    0.0195056250    0.0003593714    
0.0727475700    0.0205002530    0.0003715668    
0.0729702310    0.0198299180    0.0003625268    
0.0731928920    0.0191803740    0.0003579649    
0.0734155530    0.0195963100    0.0003611034    
0.0736382140    0.0194835430    0.0003577522    
0.0738608750    0.0191971140    0.0003574070    
0.0740835360    0.0199957650    0.0003638602    
0.0743061970    0.0195524510    0.0003547377    
0.0745288580    0.0189121430    0.0003524682    
0.0747515190    0.0198244810    0.0003615824    
0.0749741800    0.0196792630    0.0003569210    
0.0751968410    0.0195949750    0.0003589522    
0.0754195020    0.0199574220    0.0003601343    
0.0756421630    0.0191338290    0.0003497426    
0.0758648240    0.0193030160    0.0003521299    
0.0760874850    0.0200160730    0.0003584026    
0.0763101460    0.0196318030    0.0003546051    
0.0765328070    0.0192185050    0.0003544426    
0.0767554680    0.0197839770    0.0003571790    
0.0769781290    0.0198632340    0.0003558371    
0.0772007900    0.0195082610    0.0003498149    
0.0774234510    0.0197752260    0.0003542037    
0.0776461120    0.0193071340    0.0003496545    
0.0778687730    0.0194251110    0.0003495625    
0.0780914340    0.0193336180    0.0003512302    
0.0783140950    0.0191884830    0.0003443577    
0.0785367560    0.0195314750    0.0003530233    
0.0787594170    0.0199037490    0.0003531788    
0.0789820780    0.0190489990    0.0003437417    
0.0792047390    0.0194796930    0.0003487425    
0.0794274000    0.0192988070    0.0003485902    
0.0796500610    0.0195722170    0.0003476245    
0.0798727220    0.0199305200    0.0003504682    
0.0800953830    0.0195445000    0.0003462595    
0.0803180440    0.0196622440    0.0003497203    
0.0805407050    0.0195449780    0.0003483516    
0.0807633660    0.0196698370    0.0003491381    
0.0809860270    0.0196048030    0.0003472734    
0.0812086880    0.0190739690    0.0003395795    
0.0814313490    0.0199011450    0.0003484465    
0.0816540100    0.0196527300    0.0003454766    
0.0818766710    0.0198462940    0.0003479665    
0.0820993320    0.0198652040    0.0003474977    
0.0823219930    0.0198026370    0.0003483811    
0.0825446540    0.0197092170    0.0003450332    
0.0827673150    0.0194750800    0.0003406734    
0.0829899760    0.0191742150    0.0003374299    
0.0832126370    0.0198256790    0.0003446511    
0.0834352980    0.0191466190    0.0003379400    
0.0836579590    0.0194949600    0.0003402412    
0.0838806200    0.0196171600    0.0003423739    
0.0841032810    0.0195336980    0.0003395240    
0.0843259420    0.0193842470    0.0003371811    
0.0845486030    0.0195836910    0.0003389115    
0.0847712640    0.0192588150    0.0003340405    
0.0849939250    0.0194247880    0.0003360610    
0.0852165860    0.0190268550    0.0003330366    
0.0854392470    0.0198235170    0.0003367181    
0.0856619080    0.0189732070    0.0003318435    
0.0858845690    0.0199895580    0.0003375478    
0.0861072300    0.0194574590    0.0003353239    
0.0863298910    0.0194281850    0.0003368262    
0.0865525520    0.0195991530    0.0003353837    
0.0867752130    0.0193236660    0.0003303311    
0.0869978740    0.0196890440    0.0003342893    
0.0872205350    0.0190558640    0.0003284517    
0.0874431960    0.0200013280    0.0003365015    
0.0876658570    0.0194478150    0.0003330867    
0.0878885180    0.0194744910    0.0003338866    
0.0881111790    0.0196015460    0.0003345441    
0.0883338400    0.0194087400    0.0003280207    
0.0885565010    0.0189933090    0.0003288916    
0.0887791620    0.0195691930    0.0003295112    
0.0890018230    0.0197979310    0.0003346461    
0.0892244840    0.0192069100    0.0003301736    
0.0894471450    0.0187635950    0.0003249625    
0.0896698060    0.0192869920    0.0003282209    
0.0898924670    0.0192463480    0.0003293947    
0.0901151280    0.0191748340    0.0003252308    
0.0903377890    0.0188689160    0.0003253261    
0.0905604500    0.0191296250    0.0003260626    
0.0907831110    0.0199470270    0.0003321277    
0.0910057720    0.0193659280    0.0003287559    
0.0912284330    0.0195148190    0.0003252922    
0.0914510940    0.0188658720    0.0003234044    
0.0916737550    0.0190481740    0.0003241567    
0.0918964160    0.0195462460    0.0003297330    
0.0921190770    0.0191506820    0.0003234285    
0.0923417380    0.0196693390    0.0003279134    
0.0925643990    0.0193120670    0.0003241265    
0.0927870600    0.0192349420    0.0003248052    
0.0930097210    0.0189572190    0.0003197056    
0.0932323820    0.0194776830    0.0003264467    
