# Diamond Light Source Ltd.
# Data extracted from: /dls/b21/data/2018/cm19678-3/processed/b21-386631_00063.dat
q(1/A)          Column          Error           
0.0035000000    2.0843554000    0.0245968400    
0.0037226610    1.8662132000    0.0227841260    
0.0039453220    1.6335422000    0.0193920420    
0.0041679830    1.3052310000    0.0142353070    
0.0043906440    0.9629031000    0.0116949880    
0.0046133050    0.7734970500    0.0100624020    
0.0048359660    0.5996667800    0.0083805980    
0.0050586270    0.4579268500    0.0071982928    
0.0052812880    0.4352535900    0.0066352409    
0.0055039490    0.3761411500    0.0058650469    
0.0057266100    0.3239562200    0.0052656669    
0.0059492710    0.2735440400    0.0048386463    
0.0061719320    0.2183205000    0.0041654812    
0.0063945930    0.2011750300    0.0040470419    
0.0066172539    0.1825486600    0.0036199741    
0.0068399149    0.1724629200    0.0034631387    
0.0070625759    0.1524576900    0.0032226957    
0.0072852369    0.1267776300    0.0028947984    
0.0075078979    0.1245529700    0.0028551878    
0.0077305589    0.0995100020    0.0025034458    
0.0079532199    0.0986086350    0.0024575480    
0.0081758809    0.0945869140    0.0024293017    
0.0083985419    0.0833684640    0.0021271896    
0.0086212029    0.0796776850    0.0020795707    
0.0088438639    0.0760529050    0.0020153980    
0.0090665249    0.0632724750    0.0017754685    
0.0092891859    0.0633948100    0.0018549503    
0.0095118469    0.0583773150    0.0017118049    
0.0097345079    0.0564855610    0.0016353745    
0.0099571689    0.0528175890    0.0015487764    
0.0101798300    0.0496385510    0.0015014436    
0.0104024910    0.0464162460    0.0014469793    
0.0106251520    0.0529084480    0.0015501084    
0.0108478130    0.0475934390    0.0014317459    
0.0110704740    0.0441162850    0.0013123803    
0.0112931350    0.0403701980    0.0012591119    
0.0115157960    0.0394738310    0.0012377952    
0.0117384570    0.0395219690    0.0012278878    
0.0119611180    0.0396340110    0.0012331556    
0.0121837790    0.0395368210    0.0012109414    
0.0124064400    0.0360709040    0.0011084320    
0.0126291010    0.0363361160    0.0010985753    
0.0128517620    0.0336471180    0.0010597846    
0.0130744230    0.0347942170    0.0010697055    
0.0132970840    0.0320123230    0.0010210345    
0.0135197450    0.0320828650    0.0010075211    
0.0137424060    0.0328878680    0.0010058816    
0.0139650670    0.0293215650    0.0009286233    
0.0141877280    0.0303079730    0.0009462006    
0.0144103890    0.0302418310    0.0009288705    
0.0146330500    0.0274083370    0.0008786709    
0.0148557110    0.0281287140    0.0008864110    
0.0150783720    0.0282151640    0.0008804351    
0.0153010330    0.0266507270    0.0008436140    
0.0155236940    0.0286832050    0.0008699873    
0.0157463550    0.0276724300    0.0008397159    
0.0159690160    0.0267041580    0.0008217636    
0.0161916770    0.0270792240    0.0008228525    
0.0164143380    0.0261203360    0.0008142750    
0.0166369990    0.0280393900    0.0008176452    
0.0168596600    0.0260248720    0.0007807852    
0.0170823210    0.0252308620    0.0007621261    
0.0173049820    0.0254567770    0.0007668539    
0.0175276430    0.0259493240    0.0007824016    
0.0177503040    0.0240158770    0.0007335016    
0.0179729650    0.0254744300    0.0007479550    
0.0181956260    0.0248239560    0.0007241892    
0.0184182870    0.0237533860    0.0007050625    
0.0186409480    0.0231436890    0.0007003599    
0.0188636090    0.0234813370    0.0007010135    
0.0190862700    0.0236791800    0.0007028598    
0.0193089310    0.0209017170    0.0006593241    
0.0195315920    0.0234826990    0.0006750801    
0.0197542530    0.0225585170    0.0006626266    
0.0199769140    0.0233760040    0.0006745261    
0.0201995750    0.0224233310    0.0006502932    
0.0204222360    0.0226372920    0.0006589970    
0.0206448970    0.0241889880    0.0006763670    
0.0208675580    0.0220782570    0.0006328772    
0.0210902190    0.0215447220    0.0006312159    
0.0213128800    0.0210719790    0.0006157818    
0.0215355410    0.0232082150    0.0006385433    
0.0217582020    0.0223473580    0.0006265888    
0.0219808630    0.0211147000    0.0006082630    
0.0222035240    0.0235040110    0.0006359407    
0.0224261850    0.0212452270    0.0005992303    
0.0226488460    0.0212270270    0.0005944757    
0.0228715070    0.0223144450    0.0006079982    
0.0230941680    0.0207406800    0.0005861663    
0.0233168290    0.0207775390    0.0005881483    
0.0235394900    0.0212170320    0.0005877768    
0.0237621510    0.0208146990    0.0005665043    
0.0239848120    0.0216819510    0.0005788547    
0.0242074730    0.0215339330    0.0005722578    
0.0244301340    0.0211868070    0.0005682744    
0.0246527950    0.0202147110    0.0005602244    
0.0248754560    0.0212894570    0.0005620030    
0.0250981170    0.0211460750    0.0005613563    
0.0253207780    0.0216694110    0.0005512935    
0.0255434390    0.0206444750    0.0005438409    
0.0257661000    0.0212829270    0.0005539724    
0.0259887610    0.0205648050    0.0005387593    
0.0262114220    0.0212124820    0.0005500929    
0.0264340830    0.0205975420    0.0005346855    
0.0266567440    0.0213445220    0.0005409313    
0.0268794050    0.0207763310    0.0005315048    
0.0271020660    0.0209456310    0.0005315055    
0.0273247270    0.0205082360    0.0005227680    
0.0275473880    0.0208647020    0.0005262425    
0.0277700490    0.0205662970    0.0005193774    
0.0279927100    0.0198996570    0.0005064329    
0.0282153710    0.0205621250    0.0005172964    
0.0284380320    0.0211476900    0.0005215693    
0.0286606930    0.0209389600    0.0005145469    
0.0288833540    0.0207647390    0.0005133751    
0.0291060150    0.0205353230    0.0005100468    
0.0293286760    0.0214944090    0.0005145503    
0.0295513370    0.0206070560    0.0004983310    
0.0297739980    0.0209894050    0.0005084700    
0.0299966590    0.0210758820    0.0005008140    
0.0302193200    0.0201388940    0.0004966892    
0.0304419810    0.0209753740    0.0005078322    
0.0306646420    0.0198428920    0.0004799919    
0.0308873030    0.0211567290    0.0004934871    
0.0311099640    0.0204799400    0.0004867905    
0.0313326250    0.0209000040    0.0004863097    
0.0315552860    0.0202609270    0.0004850222    
0.0317779470    0.0201217700    0.0004837747    
0.0320006080    0.0213617600    0.0004871328    
0.0322232690    0.0196814900    0.0004695394    
0.0324459300    0.0208122490    0.0004792346    
0.0326685910    0.0196878050    0.0004653404    
0.0328912520    0.0210584510    0.0004828599    
0.0331139130    0.0206219960    0.0004716141    
0.0333365740    0.0192037680    0.0004565859    
0.0335592350    0.0197945590    0.0004590988    
0.0337818960    0.0200926120    0.0004621740    
0.0340045570    0.0195095720    0.0004546957    
0.0342272170    0.0199867950    0.0004584079    
0.0344498780    0.0203679750    0.0004645914    
0.0346725390    0.0202126260    0.0004542450    
0.0348952000    0.0202008520    0.0004520440    
0.0351178610    0.0202534850    0.0004547041    
0.0353405220    0.0209190860    0.0004600102    
0.0355631830    0.0201192810    0.0004494316    
0.0357858440    0.0201594520    0.0004498802    
0.0360085050    0.0202208560    0.0004519262    
0.0362311660    0.0201177180    0.0004454138    
0.0364538270    0.0191847310    0.0004314718    
0.0366764880    0.0194863560    0.0004345348    
0.0368991490    0.0202592210    0.0004408347    
0.0371218100    0.0204486710    0.0004416240    
0.0373444710    0.0197658730    0.0004389166    
0.0375671320    0.0198929880    0.0004396844    
0.0377897930    0.0205270150    0.0004350741    
0.0380124540    0.0200570810    0.0004327635    
0.0382351150    0.0194501530    0.0004261656    
0.0384577760    0.0202214190    0.0004303404    
0.0386804370    0.0202057830    0.0004334568    
0.0389030980    0.0203130300    0.0004313144    
0.0391257590    0.0195232140    0.0004199755    
0.0393484200    0.0200650460    0.0004243305    
0.0395710810    0.0200651570    0.0004249033    
0.0397937420    0.0197232530    0.0004212678    
0.0400164030    0.0202015460    0.0004280796    
0.0402390640    0.0207886930    0.0004284735    
0.0404617250    0.0201426770    0.0004192753    
0.0406843860    0.0197467730    0.0004111235    
0.0409070470    0.0198369990    0.0004163543    
0.0411297080    0.0205434960    0.0004196047    
0.0413523690    0.0200465100    0.0004155665    
0.0415750300    0.0198540610    0.0004170800    
0.0417976910    0.0202704270    0.0004105311    
0.0420203520    0.0195685920    0.0004048771    
0.0422430130    0.0198014460    0.0004088207    
0.0424656740    0.0196429100    0.0004018813    
0.0426883350    0.0198798980    0.0004063049    
0.0429109960    0.0196533640    0.0004052455    
0.0431336570    0.0200862560    0.0004039122    
0.0433563180    0.0195749530    0.0004021779    
0.0435789790    0.0200854690    0.0004009882    
0.0438016400    0.0195600700    0.0003978617    
0.0440243010    0.0204180000    0.0004023691    
0.0442469620    0.0199010840    0.0003996234    
0.0444696230    0.0200055930    0.0003992345    
0.0446922840    0.0193800750    0.0003917766    
0.0449149450    0.0206000360    0.0003985197    
0.0451376060    0.0194606560    0.0003921257    
0.0453602670    0.0195189550    0.0003885957    
0.0455829280    0.0196204930    0.0003891546    
0.0458055890    0.0199202670    0.0003944028    
0.0460282500    0.0193741480    0.0003842686    
0.0462509110    0.0194425090    0.0003825517    
0.0464735720    0.0199392130    0.0003876262    
0.0466962330    0.0200676780    0.0003906406    
0.0469188940    0.0198103980    0.0003870281    
0.0471415550    0.0195484270    0.0003864352    
0.0473642160    0.0199034530    0.0003844687    
0.0475868770    0.0190664730    0.0003744287    
0.0478095380    0.0200734730    0.0003825080    
0.0480321990    0.0196344330    0.0003791307    
0.0482548600    0.0202112040    0.0003829831    
0.0484775210    0.0195560640    0.0003804653    
0.0487001820    0.0190739550    0.0003702459    
0.0489228430    0.0196780480    0.0003758612    
0.0491455040    0.0190669390    0.0003674200    
0.0493681650    0.0199146230    0.0003787255    
0.0495908260    0.0196539270    0.0003699082    
0.0498134870    0.0195687050    0.0003726190    
0.0500361480    0.0195782180    0.0003717234    
0.0502588090    0.0194684090    0.0003651254    
0.0504814700    0.0199737260    0.0003746684    
0.0507041310    0.0197143200    0.0003678019    
0.0509267920    0.0193381040    0.0003657826    
0.0511494530    0.0200573120    0.0003700384    
0.0513721140    0.0199952840    0.0003727196    
0.0515947750    0.0197188680    0.0003652269    
0.0518174360    0.0193349890    0.0003594758    
0.0520400970    0.0198059840    0.0003613052    
0.0522627580    0.0196681070    0.0003631052    
0.0524854190    0.0195804590    0.0003652410    
0.0527080800    0.0197948920    0.0003700788    
0.0529307410    0.0196949200    0.0003708768    
0.0531534020    0.0197528410    0.0003700695    
0.0533760630    0.0200929810    0.0003744106    
0.0535987240    0.0196984460    0.0003689857    
0.0538213850    0.0197331700    0.0003735896    
0.0540440460    0.0196379100    0.0003709230    
0.0542667070    0.0199734440    0.0003766563    
0.0544893680    0.0194898880    0.0003722672    
0.0547120290    0.0191676560    0.0003666479    
0.0549346900    0.0203813650    0.0003782768    
0.0551573510    0.0199441000    0.0003786020    
0.0553800120    0.0201504760    0.0003773206    
0.0556026730    0.0193973030    0.0003778775    
0.0558253340    0.0191321790    0.0003784287    
0.0560479950    0.0202400100    0.0003892310    
0.0562706560    0.0193971000    0.0003847238    
0.0564933170    0.0194870010    0.0003889629    
0.0567159780    0.0198334380    0.0003877003    
0.0569386390    0.0198741380    0.0003941854    
0.0571613000    0.0195514690    0.0003825540    
0.0573839610    0.0202440280    0.0003860385    
0.0576066220    0.0196826580    0.0003817021    
0.0578292830    0.0197143910    0.0003807457    
0.0580519440    0.0199120390    0.0003841332    
0.0582746050    0.0192593710    0.0003761194    
0.0584972660    0.0198411290    0.0003802965    
0.0587199270    0.0195578420    0.0003743171    
0.0589425880    0.0192801590    0.0003694765    
0.0591652490    0.0197656410    0.0003763007    
0.0593879100    0.0195649010    0.0003716046    
0.0596105710    0.0198405880    0.0003738188    
0.0598332320    0.0190421310    0.0003693500    
0.0600558930    0.0190759380    0.0003673207    
0.0602785540    0.0192685450    0.0003687802    
0.0605012150    0.0193701720    0.0003689724    
0.0607238760    0.0193382300    0.0003659814    
0.0609465370    0.0192780530    0.0003682883    
0.0611691980    0.0202214720    0.0003777900    
0.0613918590    0.0194094900    0.0003660865    
0.0616145200    0.0194354130    0.0003690121    
0.0618371810    0.0192341270    0.0003634908    
0.0620598420    0.0202168460    0.0003730452    
0.0622825030    0.0199458660    0.0003762032    
0.0625051640    0.0191067380    0.0003630335    
0.0627278250    0.0200035800    0.0003706910    
0.0629504860    0.0192133470    0.0003603418    
0.0631731470    0.0201142190    0.0003732544    
0.0633958080    0.0198769860    0.0003731822    
0.0636184690    0.0195917730    0.0003756551    
0.0638411300    0.0196951730    0.0003752312    
0.0640637910    0.0198644480    0.0003794908    
0.0642864520    0.0195259240    0.0003754291    
0.0645091130    0.0195537800    0.0003789891    
0.0647317740    0.0195012170    0.0003788966    
0.0649544350    0.0193408040    0.0003769199    
0.0651770960    0.0199513870    0.0003807350    
0.0653997570    0.0198360100    0.0003788093    
0.0656224180    0.0195590880    0.0003769737    
0.0658450790    0.0193043760    0.0003691281    
0.0660677400    0.0193124350    0.0003707765    
0.0662904010    0.0195940580    0.0003779286    
0.0665130620    0.0194894720    0.0003752836    
0.0667357230    0.0198892460    0.0003858536    
0.0669583840    0.0193771640    0.0003795797    
0.0671810450    0.0198403240    0.0003819687    
0.0674037060    0.0199098640    0.0003891199    
0.0676263670    0.0197767710    0.0003849778    
0.0678490280    0.0197724990    0.0003825821    
0.0680716890    0.0198605960    0.0003842867    
0.0682943500    0.0198207040    0.0003796958    
0.0685170110    0.0194330660    0.0003721335    
0.0687396720    0.0200246010    0.0003767512    
0.0689623330    0.0190244930    0.0003660588    
0.0691849940    0.0193390190    0.0003716294    
0.0694076550    0.0197464100    0.0003753229    
0.0696303160    0.0200949790    0.0003756235    
0.0698529770    0.0185914790    0.0003605411    
0.0700756380    0.0193164140    0.0003627855    
0.0702982990    0.0196976500    0.0003703377    
0.0705209600    0.0192907280    0.0003638465    
0.0707436210    0.0201067090    0.0003697561    
0.0709662820    0.0195723940    0.0003691591    
0.0711889430    0.0201814040    0.0003702543    
0.0714116040    0.0192885470    0.0003627102    
0.0716342650    0.0200658400    0.0003684442    
0.0718569260    0.0192602860    0.0003595190    
0.0720795870    0.0189699120    0.0003582418    
0.0723022480    0.0198149410    0.0003666919    
0.0725249090    0.0191709470    0.0003563644    
0.0727475700    0.0197491450    0.0003647879    
0.0729702310    0.0197669290    0.0003620414    
0.0731928920    0.0199453010    0.0003651247    
0.0734155530    0.0194996250    0.0003603019    
0.0736382140    0.0191647080    0.0003549020    
0.0738608750    0.0196128530    0.0003613470    
0.0740835360    0.0194360990    0.0003588220    
0.0743061970    0.0194206020    0.0003536283    
0.0745288580    0.0195065690    0.0003580543    
0.0747515190    0.0190954220    0.0003549605    
0.0749741800    0.0195077930    0.0003554517    
0.0751968410    0.0200653260    0.0003633258    
0.0754195020    0.0196553460    0.0003574881    
0.0756421630    0.0198086230    0.0003559456    
0.0758648240    0.0189528010    0.0003490085    
0.0760874850    0.0196729810    0.0003554069    
0.0763101460    0.0194814470    0.0003533332    
0.0765328070    0.0192412310    0.0003547411    
0.0767554680    0.0199681030    0.0003589273    
0.0769781290    0.0202941370    0.0003597663    
0.0772007900    0.0196686730    0.0003513384    
0.0774234510    0.0194677760    0.0003515276    
0.0776461120    0.0193928490    0.0003505177    
0.0778687730    0.0194537410    0.0003499078    
0.0780914340    0.0199625630    0.0003569870    
0.0783140950    0.0196803850    0.0003488312    
0.0785367560    0.0200073060    0.0003573873    
0.0787594170    0.0199137390    0.0003533561    
0.0789820780    0.0197660410    0.0003502394    
0.0792047390    0.0200204330    0.0003536384    
0.0794274000    0.0189179130    0.0003452197    
0.0796500610    0.0192917060    0.0003452110    
0.0798727220    0.0196075640    0.0003477043    
0.0800953830    0.0191921920    0.0003432106    
0.0803180440    0.0197467930    0.0003505593    
0.0805407050    0.0199709790    0.0003522158    
0.0807633660    0.0193944960    0.0003467729    
0.0809860270    0.0189130200    0.0003411769    
0.0812086880    0.0191198340    0.0003400728    
0.0814313490    0.0195693110    0.0003456159    
0.0816540100    0.0190063630    0.0003398331    
0.0818766710    0.0189528650    0.0003401293    
0.0820993320    0.0191514450    0.0003412834    
0.0823219930    0.0195121060    0.0003459028    
0.0825446540    0.0196707630    0.0003447829    
0.0827673150    0.0189482450    0.0003361182    
0.0829899760    0.0194214830    0.0003396839    
0.0832126370    0.0193440850    0.0003405248    
0.0834352980    0.0200812170    0.0003461764    
0.0836579590    0.0186908090    0.0003332336    
0.0838806200    0.0192324330    0.0003390851    
0.0841032810    0.0191833340    0.0003365497    
0.0843259420    0.0195289410    0.0003385221    
0.0845486030    0.0194996300    0.0003382682    
0.0847712640    0.0196916460    0.0003378580    
0.0849939250    0.0194694390    0.0003365314    
0.0852165860    0.0193105190    0.0003355941    
0.0854392470    0.0197419090    0.0003361086    
0.0856619080    0.0193195290    0.0003349424    
0.0858845690    0.0193494760    0.0003321829    
0.0861072300    0.0186173040    0.0003280869    
0.0863298910    0.0192217640    0.0003351161    
0.0865525520    0.0192989210    0.0003328885    
0.0867752130    0.0197231950    0.0003338123    
0.0869978740    0.0195172120    0.0003329109    
0.0872205350    0.0200396560    0.0003369080    
0.0874431960    0.0194562820    0.0003319682    
0.0876658570    0.0193890840    0.0003326668    
0.0878885180    0.0191979000    0.0003315902    
0.0881111790    0.0190572610    0.0003299495    
0.0883338400    0.0193519220    0.0003276224    
0.0885565010    0.0191680830    0.0003304842    
0.0887791620    0.0192792510    0.0003271431    
0.0890018230    0.0187439020    0.0003256978    
0.0892244840    0.0191256910    0.0003295574    
0.0894471450    0.0198034440    0.0003339293    
0.0896698060    0.0192519650    0.0003280050    
0.0898924670    0.0195775050    0.0003322998    
0.0901151280    0.0198853860    0.0003312851    
0.0903377890    0.0191140850    0.0003275150    
0.0905604500    0.0192003920    0.0003267472    
0.0907831110    0.0199681040    0.0003323865    
0.0910057720    0.0195766620    0.0003306227    
0.0912284330    0.0192316620    0.0003230046    
0.0914510940    0.0195742220    0.0003295025    
0.0916737550    0.0190080610    0.0003238965    
0.0918964160    0.0200513570    0.0003340501    
0.0921190770    0.0193023840    0.0003247885    
0.0923417380    0.0192744680    0.0003246867    
0.0925643990    0.0197245230    0.0003276517    
0.0927870600    0.0190250970    0.0003231097    
0.0930097210    0.0192040880    0.0003218612    
0.0932323820    0.0199855930    0.0003307586    
