# Diamond Light Source Ltd.
# Data extracted from: /dls/b21/data/2018/cm19678-3/processed/b21-386631_00068.dat
q(1/A)          Column          Error           
0.0035000000    2.0412234000    0.0243417110    
0.0037226610    1.8713272000    0.0228159740    
0.0039453220    1.6094625000    0.0192491350    
0.0041679830    1.2927292000    0.0141673740    
0.0043906440    0.9879589700    0.0118465080    
0.0046133050    0.7904285200    0.0101722270    
0.0048359660    0.6043862200    0.0084137519    
0.0050586270    0.4585188200    0.0072031498    
0.0052812880    0.4471138400    0.0067252274    
0.0055039490    0.3832963000    0.0059207373    
0.0057266100    0.3140457900    0.0051846461    
0.0059492710    0.2749291900    0.0048510202    
0.0061719320    0.2203994700    0.0041853869    
0.0063945930    0.2037919400    0.0040733955    
0.0066172539    0.1917480700    0.0037101720    
0.0068399149    0.1719859600    0.0034584455    
0.0070625759    0.1489238500    0.0031852180    
0.0072852369    0.1306849300    0.0029391529    
0.0075078979    0.1127782600    0.0027169569    
0.0077305589    0.1010903000    0.0025233180    
0.0079532199    0.0932241750    0.0023895781    
0.0081758809    0.0871048010    0.0023313066    
0.0083985419    0.0856529660    0.0021561993    
0.0086212029    0.0781624150    0.0020597605    
0.0088438639    0.0706627420    0.0019427216    
0.0090665249    0.0666641030    0.0018224851    
0.0092891859    0.0652982150    0.0018826453    
0.0095118469    0.0617941380    0.0017612388    
0.0097345079    0.0575778440    0.0016511579    
0.0099571689    0.0553185730    0.0015850659    
0.0101798300    0.0519122670    0.0015354896    
0.0104024910    0.0492157620    0.0014900191    
0.0106251520    0.0477338690    0.0014723982    
0.0108478130    0.0468208380    0.0014201179    
0.0110704740    0.0429865540    0.0012955046    
0.0112931350    0.0418648740    0.0012822455    
0.0115157960    0.0402135960    0.0012493756    
0.0117384570    0.0389519660    0.0012190359    
0.0119611180    0.0380247340    0.0012078955    
0.0121837790    0.0361267020    0.0011575742    
0.0124064400    0.0356982700    0.0011027232    
0.0126291010    0.0346773980    0.0010732385    
0.0128517620    0.0338493330    0.0010629948    
0.0130744230    0.0344015420    0.0010636826    
0.0132970840    0.0322095600    0.0010242044    
0.0135197450    0.0313885810    0.0009965884    
0.0137424060    0.0311052710    0.0009782693    
0.0139650670    0.0302938200    0.0009439205    
0.0141877280    0.0293348310    0.0009309127    
0.0144103890    0.0284175330    0.0009004440    
0.0146330500    0.0280578250    0.0008890462    
0.0148557110    0.0286610820    0.0008947854    
0.0150783720    0.0276398030    0.0008714369    
0.0153010330    0.0273465980    0.0008545812    
0.0155236940    0.0291598460    0.0008772111    
0.0157463550    0.0273937050    0.0008355002    
0.0159690160    0.0260228680    0.0008112365    
0.0161916770    0.0253053930    0.0007954682    
0.0164143380    0.0271372550    0.0008299980    
0.0166369990    0.0253704220    0.0007777802    
0.0168596600    0.0259795070    0.0007801267    
0.0170823210    0.0250711490    0.0007597318    
0.0173049820    0.0250655010    0.0007609595    
0.0175276430    0.0251015080    0.0007695361    
0.0177503040    0.0242636950    0.0007372974    
0.0179729650    0.0240922820    0.0007274022    
0.0181956260    0.0243816870    0.0007177296    
0.0184182870    0.0245081990    0.0007161977    
0.0186409480    0.0233357670    0.0007032803    
0.0188636090    0.0225617890    0.0006871699    
0.0190862700    0.0222409240    0.0006811994    
0.0193089310    0.0234403800    0.0006982367    
0.0195315920    0.0244156390    0.0006883793    
0.0197542530    0.0222678330    0.0006583623    
0.0199769140    0.0226766040    0.0006643777    
0.0201995750    0.0238956980    0.0006713228    
0.0204222360    0.0227153260    0.0006601508    
0.0206448970    0.0237553600    0.0006702963    
0.0208675580    0.0227689370    0.0006427186    
0.0210902190    0.0223782010    0.0006433280    
0.0213128800    0.0230347350    0.0006438404    
0.0215355410    0.0217688280    0.0006184426    
0.0217582020    0.0224364840    0.0006278550    
0.0219808630    0.0208530530    0.0006044998    
0.0222035240    0.0217846110    0.0006122559    
0.0224261850    0.0213140510    0.0006002172    
0.0226488460    0.0223770630    0.0006103844    
0.0228715070    0.0207584250    0.0005864336    
0.0230941680    0.0220672250    0.0006046382    
0.0233168290    0.0229431770    0.0006180576    
0.0235394900    0.0221138730    0.0006000880    
0.0237621510    0.0219414880    0.0005816525    
0.0239848120    0.0214359130    0.0005755774    
0.0242074730    0.0219153750    0.0005773204    
0.0244301340    0.0216453130    0.0005744070    
0.0246527950    0.0208214110    0.0005685855    
0.0248754560    0.0218989790    0.0005700076    
0.0250981170    0.0209088360    0.0005582144    
0.0253207780    0.0206046500    0.0005375939    
0.0255434390    0.0198146710    0.0005328142    
0.0257661000    0.0211255210    0.0005519359    
0.0259887610    0.0210882460    0.0005455884    
0.0262114220    0.0204290590    0.0005398547    
0.0264340830    0.0213482690    0.0005443579    
0.0266567440    0.0209070370    0.0005353744    
0.0268794050    0.0207367250    0.0005310131    
0.0271020660    0.0210951960    0.0005334150    
0.0273247270    0.0201895730    0.0005187055    
0.0275473880    0.0199765720    0.0005149354    
0.0277700490    0.0213020250    0.0005286009    
0.0279927100    0.0213314860    0.0005243510    
0.0282153710    0.0205763150    0.0005174896    
0.0284380320    0.0204670910    0.0005131225    
0.0286606930    0.0205102260    0.0005092664    
0.0288833540    0.0209436300    0.0005155965    
0.0291060150    0.0211192730    0.0005172627    
0.0293286760    0.0206456670    0.0005043034    
0.0295513370    0.0204877180    0.0004969001    
0.0297739980    0.0205101860    0.0005026463    
0.0299966590    0.0203749140    0.0004924293    
0.0302193200    0.0208873330    0.0005058489    
0.0304419810    0.0207921370    0.0005056236    
0.0306646420    0.0207148880    0.0004904392    
0.0308873030    0.0205708570    0.0004866202    
0.0311099640    0.0193818430    0.0004735738    
0.0313326250    0.0203353840    0.0004797095    
0.0315552860    0.0212258400    0.0004964515    
0.0317779470    0.0204951360    0.0004882563    
0.0320006080    0.0204298080    0.0004764018    
0.0322232690    0.0198058410    0.0004710339    
0.0324459300    0.0196105420    0.0004652066    
0.0326685910    0.0206788770    0.0004769227    
0.0328912520    0.0203953120    0.0004752100    
0.0331139130    0.0209467610    0.0004753268    
0.0333365740    0.0195739810    0.0004609792    
0.0335592350    0.0199554190    0.0004609736    
0.0337818960    0.0195302850    0.0004556737    
0.0340045570    0.0197650360    0.0004576761    
0.0342272170    0.0207660050    0.0004672716    
0.0344498780    0.0196484830    0.0004563249    
0.0346725390    0.0204179610    0.0004565595    
0.0348952000    0.0197872440    0.0004474051    
0.0351178610    0.0199892090    0.0004517407    
0.0353405220    0.0196254090    0.0004455720    
0.0355631830    0.0204919160    0.0004535875    
0.0357858440    0.0196385170    0.0004440422    
0.0360085050    0.0192624260    0.0004410986    
0.0362311660    0.0192411330    0.0004356142    
0.0364538270    0.0196904630    0.0004371343    
0.0366764880    0.0195262310    0.0004349916    
0.0368991490    0.0194257890    0.0004316842    
0.0371218100    0.0202113860    0.0004390668    
0.0373444710    0.0198644740    0.0004400226    
0.0375671320    0.0195053780    0.0004353923    
0.0377897930    0.0202884160    0.0004325505    
0.0380124540    0.0198808040    0.0004308699    
0.0382351150    0.0195819980    0.0004276198    
0.0384577760    0.0196638900    0.0004243785    
0.0386804370    0.0196582900    0.0004275562    
0.0389030980    0.0196181230    0.0004238847    
0.0391257590    0.0204278160    0.0004296073    
0.0393484200    0.0205597710    0.0004295421    
0.0395710810    0.0195533980    0.0004194618    
0.0397937420    0.0201653000    0.0004259746    
0.0400164030    0.0196039680    0.0004217126    
0.0402390640    0.0201275020    0.0004216166    
0.0404617250    0.0199081770    0.0004168395    
0.0406843860    0.0197992620    0.0004116813    
0.0409070470    0.0198818290    0.0004168364    
0.0411297080    0.0197818520    0.0004117646    
0.0413523690    0.0196599700    0.0004115523    
0.0415750300    0.0201443490    0.0004201301    
0.0417976910    0.0202133810    0.0004099647    
0.0420203520    0.0197205040    0.0004064572    
0.0422430130    0.0197941370    0.0004087570    
0.0424656740    0.0199729410    0.0004052549    
0.0426883350    0.0200222110    0.0004077683    
0.0429109960    0.0200806690    0.0004096390    
0.0431336570    0.0194619580    0.0003975970    
0.0433563180    0.0190720030    0.0003969889    
0.0435789790    0.0195902560    0.0003960255    
0.0438016400    0.0204028780    0.0004063544    
0.0440243010    0.0198799420    0.0003970434    
0.0442469620    0.0198861720    0.0003994851    
0.0444696230    0.0196242890    0.0003954228    
0.0446922840    0.0194445460    0.0003924389    
0.0449149450    0.0193213480    0.0003859641    
0.0451376060    0.0202993430    0.0004004976    
0.0453602670    0.0201699660    0.0003950342    
0.0455829280    0.0193437310    0.0003864112    
0.0458055890    0.0193747580    0.0003889761    
0.0460282500    0.0201603270    0.0003919988    
0.0462509110    0.0191726290    0.0003798982    
0.0464735720    0.0198348480    0.0003866214    
0.0466962330    0.0198863120    0.0003888825    
0.0469188940    0.0196678590    0.0003856443    
0.0471415550    0.0197940090    0.0003888661    
0.0473642160    0.0199194450    0.0003846342    
0.0475868770    0.0201338170    0.0003847773    
0.0478095380    0.0194769020    0.0003767920    
0.0480321990    0.0199284050    0.0003819693    
0.0482548600    0.0200381770    0.0003813511    
0.0484775210    0.0196460110    0.0003813502    
0.0487001820    0.0202465720    0.0003814680    
0.0489228430    0.0202032810    0.0003808552    
0.0491455040    0.0193441710    0.0003700921    
0.0493681650    0.0193539420    0.0003733667    
0.0495908260    0.0201772360    0.0003748111    
0.0498134870    0.0193995280    0.0003710154    
0.0500361480    0.0193464180    0.0003695269    
0.0502588090    0.0197776930    0.0003680247    
0.0504814700    0.0198342980    0.0003733691    
0.0507041310    0.0201958090    0.0003722769    
0.0509267920    0.0196505740    0.0003687365    
0.0511494530    0.0197170960    0.0003668972    
0.0513721140    0.0194892210    0.0003679832    
0.0515947750    0.0194967500    0.0003631744    
0.0518174360    0.0196702820    0.0003625897    
0.0520400970    0.0193918590    0.0003575182    
0.0522627580    0.0201385040    0.0003674322    
0.0524854190    0.0201947810    0.0003709369    
0.0527080800    0.0191386930    0.0003639035    
0.0529307410    0.0192979340    0.0003671304    
0.0531534020    0.0197123680    0.0003697008    
0.0533760630    0.0192638510    0.0003666147    
0.0535987240    0.0195129450    0.0003672547    
0.0538213850    0.0203072290    0.0003789955    
0.0540440460    0.0196180130    0.0003707456    
0.0542667070    0.0199816890    0.0003767449    
0.0544893680    0.0197114400    0.0003743879    
0.0547120290    0.0200174230    0.0003746978    
0.0549346900    0.0200595550    0.0003752893    
0.0551573510    0.0197296160    0.0003765715    
0.0553800120    0.0202364170    0.0003781352    
0.0556026730    0.0195456490    0.0003793306    
0.0558253340    0.0192979570    0.0003800755    
0.0560479950    0.0200390540    0.0003873049    
0.0562706560    0.0201155310    0.0003917949    
0.0564933170    0.0199850240    0.0003939131    
0.0567159780    0.0192661370    0.0003821263    
0.0569386390    0.0197736300    0.0003931986    
0.0571613000    0.0197247570    0.0003842566    
0.0573839610    0.0202451850    0.0003860605    
0.0576066220    0.0192322190    0.0003773200    
0.0578292830    0.0195243190    0.0003789166    
0.0580519440    0.0197501360    0.0003825793    
0.0582746050    0.0199068950    0.0003824009    
0.0584972660    0.0195798380    0.0003777949    
0.0587199270    0.0193440260    0.0003722759    
0.0589425880    0.0202584230    0.0003787448    
0.0591652490    0.0196234810    0.0003749558    
0.0593879100    0.0190507520    0.0003666998    
0.0596105710    0.0199262450    0.0003746355    
0.0598332320    0.0198671360    0.0003772770    
0.0600558930    0.0192609370    0.0003691081    
0.0602785540    0.0191496520    0.0003676512    
0.0605012150    0.0190057840    0.0003654958    
0.0607238760    0.0196787430    0.0003692000    
0.0609465370    0.0196802170    0.0003721206    
0.0611691980    0.0196014790    0.0003719640    
0.0613918590    0.0197351450    0.0003691554    
0.0616145200    0.0194295180    0.0003689666    
0.0618371810    0.0193176630    0.0003642897    
0.0620598420    0.0195984510    0.0003673060    
0.0622825030    0.0196347790    0.0003732686    
0.0625051640    0.0200321800    0.0003717320    
0.0627278250    0.0190910460    0.0003621475    
0.0629504860    0.0197483680    0.0003653349    
0.0631731470    0.0195958610    0.0003684240    
0.0633958080    0.0194016640    0.0003687037    
0.0636184690    0.0194344210    0.0003741542    
0.0638411300    0.0193960280    0.0003723813    
0.0640637910    0.0196553270    0.0003774987    
0.0642864520    0.0200973310    0.0003808937    
0.0645091130    0.0195769350    0.0003792242    
0.0647317740    0.0193256400    0.0003771979    
0.0649544350    0.0193859860    0.0003773707    
0.0651770960    0.0195964910    0.0003773443    
0.0653997570    0.0195984030    0.0003765444    
0.0656224180    0.0198290500    0.0003795772    
0.0658450790    0.0201525200    0.0003771606    
0.0660677400    0.0200111900    0.0003774353    
0.0662904010    0.0189245090    0.0003714260    
0.0665130620    0.0194978130    0.0003753746    
0.0667357230    0.0194112770    0.0003812000    
0.0669583840    0.0195864800    0.0003816353    
0.0671810450    0.0202312270    0.0003857242    
0.0674037060    0.0195231260    0.0003853332    
0.0676263670    0.0194631330    0.0003819239    
0.0678490280    0.0202918450    0.0003875850    
0.0680716890    0.0204120000    0.0003895959    
0.0682943500    0.0192108150    0.0003738192    
0.0685170110    0.0198902780    0.0003764965    
0.0687396720    0.0200966330    0.0003774390    
0.0689623330    0.0198497170    0.0003739244    
0.0691849940    0.0201828620    0.0003796616    
0.0694076550    0.0194407670    0.0003724176    
0.0696303160    0.0192886310    0.0003680206    
0.0698529770    0.0195644730    0.0003698659    
0.0700756380    0.0200602380    0.0003697151    
0.0702982990    0.0193436550    0.0003670054    
0.0705209600    0.0194702680    0.0003655462    
0.0707436210    0.0191014460    0.0003604046    
0.0709662820    0.0186682990    0.0003605424    
0.0711889430    0.0194421010    0.0003634196    
0.0714116040    0.0202582250    0.0003717262    
0.0716342650    0.0199249080    0.0003671586    
0.0718569260    0.0194425910    0.0003612268    
0.0720795870    0.0196205030    0.0003643436    
0.0723022480    0.0199314410    0.0003677788    
0.0725249090    0.0192647900    0.0003572457    
0.0727475700    0.0200130720    0.0003672278    
0.0729702310    0.0189988230    0.0003549477    
0.0731928920    0.0193314700    0.0003594726    
0.0734155530    0.0194874240    0.0003601995    
0.0736382140    0.0187911630    0.0003514363    
0.0738608750    0.0197537890    0.0003626533    
0.0740835360    0.0192649650    0.0003572490    
0.0743061970    0.0194603490    0.0003540001    
0.0745288580    0.0199086160    0.0003617358    
0.0747515190    0.0192614810    0.0003565107    
0.0749741800    0.0192692570    0.0003532820    
0.0751968410    0.0188822220    0.0003524619    
0.0754195020    0.0198450360    0.0003592193    
0.0756421630    0.0188438930    0.0003471797    
0.0758648240    0.0191209910    0.0003505637    
0.0760874850    0.0203097900    0.0003611236    
0.0763101460    0.0193223420    0.0003518974    
0.0765328070    0.0189087620    0.0003516730    
0.0767554680    0.0193498430    0.0003533371    
0.0769781290    0.0193066830    0.0003509146    
0.0772007900    0.0192116310    0.0003472423    
0.0774234510    0.0190054950    0.0003473388    
0.0776461120    0.0197614360    0.0003538432    
0.0778687730    0.0193163840    0.0003486803    
0.0780914340    0.0204616790    0.0003614325    
0.0783140950    0.0192734110    0.0003452154    
0.0785367560    0.0192231790    0.0003503239    
0.0787594170    0.0194822170    0.0003495166    
0.0789820780    0.0192954890    0.0003460552    
0.0792047390    0.0195218190    0.0003492169    
0.0794274000    0.0198198980    0.0003533638    
0.0796500610    0.0196140470    0.0003480931    
0.0798727220    0.0198368360    0.0003497413    
0.0800953830    0.0200403230    0.0003507221    
0.0803180440    0.0190944290    0.0003447299    
0.0805407050    0.0187980200    0.0003417257    
0.0807633660    0.0198792540    0.0003510899    
0.0809860270    0.0191479890    0.0003432995    
0.0812086880    0.0196048480    0.0003443689    
0.0814313490    0.0195765340    0.0003456896    
0.0816540100    0.0191715160    0.0003413161    
0.0818766710    0.0198085550    0.0003477326    
0.0820993320    0.0192863460    0.0003424931    
0.0823219930    0.0189122490    0.0003405540    
0.0825446540    0.0195207980    0.0003434759    
0.0827673150    0.0201001210    0.0003461938    
0.0829899760    0.0190185740    0.0003361515    
0.0832126370    0.0195490130    0.0003423335    
0.0834352980    0.0192945870    0.0003393381    
0.0836579590    0.0197019280    0.0003421381    
0.0838806200    0.0196520420    0.0003427740    
0.0841032810    0.0193615720    0.0003381193    
0.0843259420    0.0197765300    0.0003406710    
0.0845486030    0.0195359550    0.0003385928    
0.0847712640    0.0191014660    0.0003327660    
0.0849939250    0.0194298300    0.0003361985    
0.0852165860    0.0197723960    0.0003395936    
0.0854392470    0.0194511850    0.0003336341    
0.0856619080    0.0203427050    0.0003437072    
0.0858845690    0.0192137080    0.0003310249    
0.0861072300    0.0197690070    0.0003380923    
0.0863298910    0.0194273610    0.0003369132    
0.0865525520    0.0192368580    0.0003323623    
0.0867752130    0.0191197670    0.0003286756    
0.0869978740    0.0186721740    0.0003256334    
0.0872205350    0.0193723970    0.0003312610    
0.0874431960    0.0192874610    0.0003305343    
0.0876658570    0.0195671410    0.0003342004    
0.0878885180    0.0192333630    0.0003319058    
0.0881111790    0.0188469710    0.0003281334    
0.0883338400    0.0194473250    0.0003284384    
0.0885565010    0.0195851570    0.0003340699    
0.0887791620    0.0196967150    0.0003306755    
0.0890018230    0.0192656670    0.0003302093    
0.0892244840    0.0193880170    0.0003318193    
0.0894471450    0.0197482650    0.0003334733    
0.0896698060    0.0187221390    0.0003234693    
0.0898924670    0.0192289050    0.0003293374    
0.0901151280    0.0189482190    0.0003233937    
0.0903377890    0.0192442580    0.0003286377    
0.0905604500    0.0191792460    0.0003265765    
0.0907831110    0.0198696480    0.0003315755    
0.0910057720    0.0196559590    0.0003313011    
0.0912284330    0.0194714750    0.0003250215    
0.0914510940    0.0196363580    0.0003300345    
0.0916737550    0.0199419430    0.0003317672    
0.0918964160    0.0189171410    0.0003244740    
0.0921190770    0.0191777850    0.0003237477    
0.0923417380    0.0195873480    0.0003273207    
0.0925643990    0.0193772950    0.0003247642    
0.0927870600    0.0198932550    0.0003304090    
0.0930097210    0.0191188700    0.0003211555    
0.0932323820    0.0198717750    0.0003298248    
