# Diamond Light Source Ltd.
# Data extracted from: /dls/b21/data/2018/cm19678-3/processed/b21-386631_00066.dat
q(1/A)          Column          Error           
0.0035000000    2.0640391000    0.0244749630    
0.0037226610    1.8859776000    0.0229028560    
0.0039453220    1.6328535000    0.0193866000    
0.0041679830    1.3104817000    0.0142629150    
0.0043906440    0.9746984100    0.0117655780    
0.0046133050    0.7757448600    0.0100763080    
0.0048359660    0.5912684500    0.0083211245    
0.0050586270    0.4655561400    0.0072575015    
0.0052812880    0.4403507600    0.0066735134    
0.0055039490    0.3805691000    0.0058990555    
0.0057266100    0.3056829400    0.0051146447    
0.0059492710    0.2738481300    0.0048409967    
0.0061719320    0.2333883100    0.0043065266    
0.0063945930    0.1969953600    0.0040045002    
0.0066172539    0.1841739700    0.0036357994    
0.0068399149    0.1672239300    0.0034098942    
0.0070625759    0.1545478900    0.0032444854    
0.0072852369    0.1322453500    0.0029563570    
0.0075078979    0.1134104700    0.0027242934    
0.0077305589    0.1007555400    0.0025188885    
0.0079532199    0.1025753900    0.0025063158    
0.0081758809    0.0915168940    0.0023893855    
0.0083985419    0.0854190270    0.0021530408    
0.0086212029    0.0774958000    0.0020507563    
0.0088438639    0.0745470640    0.0019952064    
0.0090665249    0.0664517220    0.0018194006    
0.0092891859    0.0636030260    0.0018578642    
0.0095118469    0.0593729260    0.0017262197    
0.0097345079    0.0585133260    0.0016643534    
0.0099571689    0.0527193910    0.0015472279    
0.0101798300    0.0526739920    0.0015465617    
0.0104024910    0.0478079150    0.0014684085    
0.0106251520    0.0482693740    0.0014804885    
0.0108478130    0.0462087100    0.0014106653    
0.0110704740    0.0414557050    0.0012721023    
0.0112931350    0.0430738510    0.0013005001    
0.0115157960    0.0412147010    0.0012647069    
0.0117384570    0.0403555980    0.0012406834    
0.0119611180    0.0362909340    0.0011799201    
0.0121837790    0.0361195890    0.0011573463    
0.0124064400    0.0372237850    0.0011259276    
0.0126291010    0.0346373610    0.0010725132    
0.0128517620    0.0331084100    0.0010511931    
0.0130744230    0.0322574270    0.0010299004    
0.0132970840    0.0323985870    0.0010271042    
0.0135197450    0.0309711400    0.0009898419    
0.0137424060    0.0303608880    0.0009663977    
0.0139650670    0.0297291480    0.0009349898    
0.0141877280    0.0297425570    0.0009372675    
0.0144103890    0.0299808710    0.0009247895    
0.0146330500    0.0288690840    0.0009017187    
0.0148557110    0.0292140250    0.0009032866    
0.0150783720    0.0276893000    0.0008721310    
0.0153010330    0.0268339060    0.0008464491    
0.0155236940    0.0271489360    0.0008463405    
0.0157463550    0.0274647430    0.0008365004    
0.0159690160    0.0270038400    0.0008263041    
0.0161916770    0.0258004190    0.0008031320    
0.0164143380    0.0259644030    0.0008117841    
0.0166369990    0.0266289300    0.0007967593    
0.0168596600    0.0262086070    0.0007834818    
0.0170823210    0.0257337240    0.0007696296    
0.0173049820    0.0247833980    0.0007565907    
0.0175276430    0.0236577590    0.0007470044    
0.0177503040    0.0244381160    0.0007398699    
0.0179729650    0.0239118770    0.0007246023    
0.0181956260    0.0249683540    0.0007262417    
0.0184182870    0.0235617400    0.0007021634    
0.0186409480    0.0236278450    0.0007075981    
0.0188636090    0.0240430350    0.0007092989    
0.0190862700    0.0240096290    0.0007076977    
0.0193089310    0.0227287400    0.0006874883    
0.0195315920    0.0228196650    0.0006654350    
0.0197542530    0.0237619510    0.0006800240    
0.0199769140    0.0222050740    0.0006573693    
0.0201995750    0.0225899050    0.0006526585    
0.0204222360    0.0229985760    0.0006641885    
0.0206448970    0.0213869600    0.0006359424    
0.0208675580    0.0222021440    0.0006346061    
0.0210902190    0.0229285170    0.0006511261    
0.0213128800    0.0224544450    0.0006356163    
0.0215355410    0.0220280350    0.0006220524    
0.0217582020    0.0222388380    0.0006250219    
0.0219808630    0.0217424740    0.0006171959    
0.0222035240    0.0216770980    0.0006106831    
0.0224261850    0.0227969820    0.0006206852    
0.0226488460    0.0211075370    0.0005927587    
0.0228715070    0.0212346850    0.0005930643    
0.0230941680    0.0216653510    0.0005990483    
0.0233168290    0.0217234770    0.0006013455    
0.0235394900    0.0225816660    0.0006063421    
0.0237621510    0.0213205230    0.0005733064    
0.0239848120    0.0209526850    0.0005689968    
0.0242074730    0.0217438000    0.0005749995    
0.0244301340    0.0203608770    0.0005570488    
0.0246527950    0.0210501670    0.0005716441    
0.0248754560    0.0205447920    0.0005520480    
0.0250981170    0.0208153200    0.0005569098    
0.0253207780    0.0209371580    0.0005418609    
0.0255434390    0.0214294370    0.0005540449    
0.0257661000    0.0201842360    0.0005394464    
0.0259887610    0.0207877310    0.0005416337    
0.0262114220    0.0210668850    0.0005481634    
0.0264340830    0.0203032300    0.0005308147    
0.0266567440    0.0209029210    0.0005352689    
0.0268794050    0.0199713120    0.0005210696    
0.0271020660    0.0207808810    0.0005293740    
0.0273247270    0.0211182660    0.0005304490    
0.0275473880    0.0216049540    0.0005354589    
0.0277700490    0.0203142490    0.0005161490    
0.0279927100    0.0206571840    0.0005159461    
0.0282153710    0.0207153980    0.0005191845    
0.0284380320    0.0201415180    0.0005089748    
0.0286606930    0.0208854640    0.0005138532    
0.0288833540    0.0202669040    0.0005071483    
0.0291060150    0.0208871170    0.0005143612    
0.0293286760    0.0207893940    0.0005060059    
0.0295513370    0.0199896660    0.0004907749    
0.0297739980    0.0199765600    0.0004960155    
0.0299966590    0.0205969810    0.0004950568    
0.0302193200    0.0204912780    0.0005009808    
0.0304419810    0.0201979630    0.0004982976    
0.0306646420    0.0199213840    0.0004809067    
0.0308873030    0.0196115490    0.0004750913    
0.0311099640    0.0199217680    0.0004800775    
0.0313326250    0.0194828250    0.0004694997    
0.0315552860    0.0208269480    0.0004917161    
0.0317779470    0.0198165920    0.0004800585    
0.0320006080    0.0198926500    0.0004700508    
0.0322232690    0.0198915430    0.0004720054    
0.0324459300    0.0196397810    0.0004655075    
0.0326685910    0.0200479630    0.0004695447    
0.0328912520    0.0198488570    0.0004687544    
0.0331139130    0.0205975470    0.0004713015    
0.0333365740    0.0200585660    0.0004666045    
0.0335592350    0.0205476930    0.0004677183    
0.0337818960    0.0199303620    0.0004602720    
0.0340045570    0.0196763780    0.0004566035    
0.0342272170    0.0198158040    0.0004564109    
0.0344498780    0.0193267410    0.0004525288    
0.0346725390    0.0197096600    0.0004485264    
0.0348952000    0.0208756800    0.0004595003    
0.0351178610    0.0199342380    0.0004510748    
0.0353405220    0.0204407960    0.0004546892    
0.0355631830    0.0197952480    0.0004457666    
0.0357858440    0.0201566350    0.0004498173    
0.0360085050    0.0188849740    0.0004367125    
0.0362311660    0.0197007760    0.0004407432    
0.0364538270    0.0194828310    0.0004347807    
0.0366764880    0.0202393380    0.0004428199    
0.0368991490    0.0198727460    0.0004365792    
0.0371218100    0.0197973460    0.0004345035    
0.0373444710    0.0209422710    0.0004517577    
0.0375671320    0.0200068090    0.0004409097    
0.0377897930    0.0188552920    0.0004169525    
0.0380124540    0.0195314480    0.0004270253    
0.0382351150    0.0201850000    0.0004341111    
0.0384577760    0.0198156870    0.0004259715    
0.0386804370    0.0198403660    0.0004294894    
0.0389030980    0.0202918770    0.0004310596    
0.0391257590    0.0197192140    0.0004220488    
0.0393484200    0.0200891590    0.0004245557    
0.0395710810    0.0202602770    0.0004269345    
0.0397937420    0.0192886610    0.0004165716    
0.0400164030    0.0189017240    0.0004140498    
0.0402390640    0.0201058790    0.0004213486    
0.0404617250    0.0200002450    0.0004177611    
0.0406843860    0.0201890460    0.0004156730    
0.0409070470    0.0202186780    0.0004203113    
0.0411297080    0.0200350360    0.0004143505    
0.0413523690    0.0194149200    0.0004089391    
0.0415750300    0.0193694590    0.0004119297    
0.0417976910    0.0202925340    0.0004107262    
0.0420203520    0.0204871950    0.0004142421    
0.0422430130    0.0200181020    0.0004110224    
0.0424656740    0.0193277640    0.0003986165    
0.0426883350    0.0190053160    0.0003972393    
0.0429109960    0.0194584560    0.0004032029    
0.0431336570    0.0194093990    0.0003970207    
0.0433563180    0.0196135270    0.0004025458    
0.0435789790    0.0194663350    0.0003947321    
0.0438016400    0.0201803880    0.0004040930    
0.0440243010    0.0202090130    0.0004002766    
0.0442469620    0.0200106330    0.0004006938    
0.0444696230    0.0204329650    0.0004034481    
0.0446922840    0.0195911760    0.0003938770    
0.0449149450    0.0196490100    0.0003891847    
0.0451376060    0.0195606370    0.0003931042    
0.0453602670    0.0194543450    0.0003879249    
0.0455829280    0.0203200380    0.0003960036    
0.0458055890    0.0193553280    0.0003887427    
0.0460282500    0.0194171640    0.0003846680    
0.0462509110    0.0188828650    0.0003769793    
0.0464735720    0.0195446300    0.0003837448    
0.0466962330    0.0192817430    0.0003828879    
0.0469188940    0.0200419950    0.0003892567    
0.0471415550    0.0192248980    0.0003831973    
0.0473642160    0.0198709690    0.0003841280    
0.0475868770    0.0203798220    0.0003870827    
0.0478095380    0.0191086760    0.0003731765    
0.0480321990    0.0193022990    0.0003758841    
0.0482548600    0.0198673410    0.0003796846    
0.0484775210    0.0192128870    0.0003770859    
0.0487001820    0.0192006350    0.0003714474    
0.0489228430    0.0195173790    0.0003742975    
0.0491455040    0.0201827870    0.0003779919    
0.0493681650    0.0202359030    0.0003817415    
0.0495908260    0.0192195930    0.0003657724    
0.0498134870    0.0198355530    0.0003751247    
0.0500361480    0.0187851240    0.0003640911    
0.0502588090    0.0200750610    0.0003707447    
0.0504814700    0.0201255300    0.0003760632    
0.0507041310    0.0192381580    0.0003633076    
0.0509267920    0.0194253340    0.0003665810    
0.0511494530    0.0194470030    0.0003643397    
0.0513721140    0.0197493570    0.0003703945    
0.0515947750    0.0189382900    0.0003579000    
0.0518174360    0.0197198680    0.0003630107    
0.0520400970    0.0193550900    0.0003571439    
0.0522627580    0.0198128150    0.0003644131    
0.0524854190    0.0200136920    0.0003692337    
0.0527080800    0.0194808200    0.0003671055    
0.0529307410    0.0193081000    0.0003671910    
0.0531534020    0.0195767740    0.0003683908    
0.0533760630    0.0192461070    0.0003664098    
0.0535987240    0.0188871330    0.0003612819    
0.0538213850    0.0201405790    0.0003774000    
0.0540440460    0.0188786200    0.0003636561    
0.0542667070    0.0195019250    0.0003721579    
0.0544893680    0.0192667700    0.0003701044    
0.0547120290    0.0194314500    0.0003691365    
0.0549346900    0.0193746840    0.0003687908    
0.0551573510    0.0196898010    0.0003761543    
0.0553800120    0.0200770160    0.0003766059    
0.0556026730    0.0203588020    0.0003871026    
0.0558253340    0.0196010080    0.0003830105    
0.0560479950    0.0194962490    0.0003819858    
0.0562706560    0.0192189090    0.0003829258    
0.0564933170    0.0195774300    0.0003898371    
0.0567159780    0.0201337720    0.0003905974    
0.0569386390    0.0193163390    0.0003885872    
0.0571613000    0.0195487360    0.0003825006    
0.0573839610    0.0201087110    0.0003847192    
0.0576066220    0.0195466860    0.0003803548    
0.0578292830    0.0192999050    0.0003766956    
0.0580519440    0.0196351050    0.0003814260    
0.0582746050    0.0199617300    0.0003828895    
0.0584972660    0.0201444590    0.0003831657    
0.0587199270    0.0196195760    0.0003748811    
0.0589425880    0.0204526600    0.0003805187    
0.0591652490    0.0196339430    0.0003750188    
0.0593879100    0.0196045090    0.0003719545    
0.0596105710    0.0195772550    0.0003713038    
0.0598332320    0.0190036550    0.0003689508    
0.0600558930    0.0193985860    0.0003703882    
0.0602785540    0.0199997890    0.0003756864    
0.0605012150    0.0199999300    0.0003748962    
0.0607238760    0.0193147520    0.0003657336    
0.0609465370    0.0199577350    0.0003746982    
0.0611691980    0.0195976200    0.0003718908    
0.0613918590    0.0197726830    0.0003694699    
0.0616145200    0.0196498620    0.0003710164    
0.0618371810    0.0196984880    0.0003678268    
0.0620598420    0.0197460080    0.0003686498    
0.0622825030    0.0189072580    0.0003662520    
0.0625051640    0.0197523650    0.0003690903    
0.0627278250    0.0192796030    0.0003638957    
0.0629504860    0.0186565740    0.0003550575    
0.0631731470    0.0199659750    0.0003718504    
0.0633958080    0.0196150100    0.0003706888    
0.0636184690    0.0195458250    0.0003751881    
0.0638411300    0.0197424560    0.0003756551    
0.0640637910    0.0191512910    0.0003725904    
0.0642864520    0.0194438040    0.0003746126    
0.0645091130    0.0198301380    0.0003816312    
0.0647317740    0.0194248850    0.0003781279    
0.0649544350    0.0201386540    0.0003845889    
0.0651770960    0.0194981930    0.0003763597    
0.0653997570    0.0196668760    0.0003771645    
0.0656224180    0.0196580600    0.0003778999    
0.0658450790    0.0194004800    0.0003700199    
0.0660677400    0.0197794900    0.0003752069    
0.0662904010    0.0192852050    0.0003749120    
0.0665130620    0.0195445510    0.0003757873    
0.0667357230    0.0188161750    0.0003752742    
0.0669583840    0.0197759220    0.0003834387    
0.0671810450    0.0194405060    0.0003780740    
0.0674037060    0.0198766660    0.0003887682    
0.0676263670    0.0192569900    0.0003798585    
0.0678490280    0.0196291050    0.0003811656    
0.0680716890    0.0193597030    0.0003793833    
0.0682943500    0.0193452130    0.0003750876    
0.0685170110    0.0194232260    0.0003720133    
0.0687396720    0.0194831630    0.0003715969    
0.0689623330    0.0195781940    0.0003713216    
0.0691849940    0.0196433550    0.0003745160    
0.0694076550    0.0190945640    0.0003690503    
0.0696303160    0.0195867080    0.0003708167    
0.0698529770    0.0194977020    0.0003691979    
0.0700756380    0.0195725940    0.0003651578    
0.0702982990    0.0201474130    0.0003745157    
0.0705209600    0.0191096300    0.0003621093    
0.0707436210    0.0193628360    0.0003628265    
0.0709662820    0.0199873680    0.0003730259    
0.0711889430    0.0192073500    0.0003611834    
0.0714116040    0.0197632240    0.0003671205    
0.0716342650    0.0199006920    0.0003668993    
0.0718569260    0.0194924430    0.0003616539    
0.0720795870    0.0197519270    0.0003655258    
0.0723022480    0.0193643620    0.0003624735    
0.0725249090    0.0192742440    0.0003572982    
0.0727475700    0.0194364800    0.0003618634    
0.0729702310    0.0201420800    0.0003654352    
0.0731928920    0.0195883070    0.0003618170    
0.0734155530    0.0196433440    0.0003616020    
0.0736382140    0.0197468790    0.0003602270    
0.0738608750    0.0190909040    0.0003564814    
0.0740835360    0.0194068890    0.0003585272    
0.0743061970    0.0198750070    0.0003577165    
0.0745288580    0.0192607020    0.0003557658    
0.0747515190    0.0195677640    0.0003592987    
0.0749741800    0.0192848900    0.0003533905    
0.0751968410    0.0199506980    0.0003622612    
0.0754195020    0.0194705710    0.0003557790    
0.0756421630    0.0194733060    0.0003528954    
0.0758648240    0.0197212670    0.0003559888    
0.0760874850    0.0197729490    0.0003562838    
0.0763101460    0.0193313530    0.0003519448    
0.0765328070    0.0201998160    0.0003634448    
0.0767554680    0.0192105660    0.0003520285    
0.0769781290    0.0196281040    0.0003537888    
0.0772007900    0.0197663250    0.0003521848    
0.0774234510    0.0195348680    0.0003521082    
0.0776461120    0.0195421690    0.0003518400    
0.0778687730    0.0193062880    0.0003485548    
0.0780914340    0.0189448700    0.0003477440    
0.0783140950    0.0190779710    0.0003434268    
0.0785367560    0.0192576920    0.0003506038    
0.0787594170    0.0193404590    0.0003482084    
0.0789820780    0.0192234340    0.0003453745    
0.0792047390    0.0194929920    0.0003489246    
0.0794274000    0.0191231290    0.0003470628    
0.0796500610    0.0195484210    0.0003474760    
0.0798727220    0.0187108930    0.0003396371    
0.0800953830    0.0196559010    0.0003473078    
0.0803180440    0.0197813690    0.0003508416    
0.0805407050    0.0195768980    0.0003486991    
0.0807633660    0.0199373340    0.0003515678    
0.0809860270    0.0198026670    0.0003490846    
0.0812086880    0.0193469800    0.0003420630    
0.0814313490    0.0195848850    0.0003457293    
0.0816540100    0.0194836600    0.0003440496    
0.0818766710    0.0194262610    0.0003443269    
0.0820993320    0.0201217140    0.0003497974    
0.0823219930    0.0195952160    0.0003466145    
0.0825446540    0.0193115120    0.0003415961    
0.0827673150    0.0191959800    0.0003382847    
0.0829899760    0.0196207380    0.0003413981    
0.0832126370    0.0197189790    0.0003437846    
0.0834352980    0.0190879160    0.0003374826    
0.0836579590    0.0194426160    0.0003398456    
0.0838806200    0.0197258810    0.0003433835    
0.0841032810    0.0190743900    0.0003355693    
0.0843259420    0.0198313090    0.0003411089    
0.0845486030    0.0189688520    0.0003336093    
0.0847712640    0.0193643200    0.0003350148    
0.0849939250    0.0197400780    0.0003388387    
0.0852165860    0.0194711000    0.0003369630    
0.0854392470    0.0202598060    0.0003404649    
0.0856619080    0.0193110230    0.0003348453    
0.0858845690    0.0198827570    0.0003367058    
0.0861072300    0.0189789030    0.0003312346    
0.0863298910    0.0196688860    0.0003389676    
0.0865525520    0.0191125050    0.0003312537    
0.0867752130    0.0196978430    0.0003335744    
0.0869978740    0.0193611850    0.0003315544    
0.0872205350    0.0193459300    0.0003310021    
0.0874431960    0.0189665160    0.0003277404    
0.0876658570    0.0197573230    0.0003357875    
0.0878885180    0.0198652180    0.0003372805    
0.0881111790    0.0200313170    0.0003382530    
0.0883338400    0.0195100450    0.0003289352    
0.0885565010    0.0201965990    0.0003392112    
0.0887791620    0.0195596280    0.0003294903    
0.0890018230    0.0196466590    0.0003334255    
0.0892244840    0.0197419050    0.0003348010    
0.0894471450    0.0194685080    0.0003310703    
0.0896698060    0.0193275010    0.0003286249    
0.0898924670    0.0195183740    0.0003317744    
0.0901151280    0.0191928130    0.0003254422    
0.0903377890    0.0197061910    0.0003325259    
0.0905604500    0.0193144630    0.0003276934    
0.0907831110    0.0195946640    0.0003292407    
0.0910057720    0.0187867260    0.0003238609    
0.0912284330    0.0196357940    0.0003263579    
0.0914510940    0.0193274670    0.0003273961    
0.0916737550    0.0194965430    0.0003280090    
0.0918964160    0.0191026060    0.0003260286    
0.0921190770    0.0194581490    0.0003260735    
0.0923417380    0.0194303680    0.0003259743    
0.0925643990    0.0195911590    0.0003265193    
0.0927870600    0.0195985430    0.0003279201    
0.0930097210    0.0193200640    0.0003228091    
0.0932323820    0.0197857640    0.0003290779    
