# Diamond Light Source Ltd.
# Data extracted from: /dls/b21/data/2018/cm19678-3/processed/b21-386631_00067.dat
q(1/A)          Column          Error           
0.0035000000    2.1122069000    0.0247605490    
0.0037226610    1.8993028000    0.0229851560    
0.0039453220    1.6181080000    0.0193001520    
0.0041679830    1.2792951000    0.0140931200    
0.0043906440    0.9638912300    0.0117009490    
0.0046133050    0.7733612000    0.0100614860    
0.0048359660    0.6025909900    0.0084009798    
0.0050586270    0.4651656200    0.0072549407    
0.0052812880    0.4287771700    0.0065856698    
0.0055039490    0.3815343600    0.0059069257    
0.0057266100    0.3110302200    0.0051595298    
0.0059492710    0.2672087100    0.0047822708    
0.0061719320    0.2300019900    0.0042754550    
0.0063945930    0.2001967800    0.0040371772    
0.0066172539    0.1830499800    0.0036249297    
0.0068399149    0.1712100800    0.0034505259    
0.0070625759    0.1461213900    0.0031550056    
0.0072852369    0.1279665900    0.0029083316    
0.0075078979    0.1210833000    0.0028151294    
0.0077305589    0.0956045670    0.0024538203    
0.0079532199    0.0980567790    0.0024506538    
0.0081758809    0.0937752120    0.0024188479    
0.0083985419    0.0838564150    0.0021333988    
0.0086212029    0.0755521990    0.0020250115    
0.0088438639    0.0722604790    0.0019644996    
0.0090665249    0.0647168660    0.0017956137    
0.0092891859    0.0620375030    0.0018349794    
0.0095118469    0.0601337710    0.0017373608    
0.0097345079    0.0558223390    0.0016257401    
0.0099571689    0.0543159350    0.0015705858    
0.0101798300    0.0519997970    0.0015367347    
0.0104024910    0.0467768110    0.0014525839    
0.0106251520    0.0478216650    0.0014737048    
0.0108478130    0.0477654180    0.0014343258    
0.0110704740    0.0445064100    0.0013181661    
0.0112931350    0.0422549170    0.0012881639    
0.0115157960    0.0414142660    0.0012678497    
0.0117384570    0.0381483750    0.0012063575    
0.0119611180    0.0387129350    0.0012187384    
0.0121837790    0.0340103490    0.0011231207    
0.0124064400    0.0363772230    0.0011131249    
0.0126291010    0.0341769870    0.0010654329    
0.0128517620    0.0326121270    0.0010433544    
0.0130744230    0.0333469850    0.0010472192    
0.0132970840    0.0310025810    0.0010047994    
0.0135197450    0.0331584090    0.0010242667    
0.0137424060    0.0306418210    0.0009709233    
0.0139650670    0.0305859910    0.0009484313    
0.0141877280    0.0295988250    0.0009350624    
0.0144103890    0.0296425110    0.0009196175    
0.0146330500    0.0294363090    0.0009105949    
0.0148557110    0.0284637300    0.0008916711    
0.0150783720    0.0275556270    0.0008700813    
0.0153010330    0.0266238530    0.0008431859    
0.0155236940    0.0276011410    0.0008534168    
0.0157463550    0.0267804220    0.0008260685    
0.0159690160    0.0282718350    0.0008455379    
0.0161916770    0.0255038150    0.0007985554    
0.0164143380    0.0254855690    0.0008043174    
0.0166369990    0.0243197230    0.0007614801    
0.0168596600    0.0263526490    0.0007856842    
0.0170823210    0.0249314310    0.0007575878    
0.0173049820    0.0259417220    0.0007741211    
0.0175276430    0.0249583720    0.0007673145    
0.0177503040    0.0244189720    0.0007396294    
0.0179729650    0.0247276070    0.0007369074    
0.0181956260    0.0235773260    0.0007057688    
0.0184182870    0.0223510610    0.0006839314    
0.0186409480    0.0244151640    0.0007193387    
0.0188636090    0.0241090260    0.0007103190    
0.0190862700    0.0239085180    0.0007062531    
0.0193089310    0.0234804850    0.0006988116    
0.0195315920    0.0234437340    0.0006745177    
0.0197542530    0.0248550840    0.0006955363    
0.0199769140    0.0237456640    0.0006798364    
0.0201995750    0.0217631280    0.0006406464    
0.0204222360    0.0233469560    0.0006692447    
0.0206448970    0.0224678140    0.0006518574    
0.0208675580    0.0218604180    0.0006297453    
0.0210902190    0.0219514350    0.0006371439    
0.0213128800    0.0215037180    0.0006220562    
0.0215355410    0.0229972430    0.0006356323    
0.0217582020    0.0213633760    0.0006126368    
0.0219808630    0.0214650140    0.0006132861    
0.0222035240    0.0213358620    0.0006058978    
0.0224261850    0.0226141060    0.0006182318    
0.0226488460    0.0207940290    0.0005883794    
0.0228715070    0.0212706490    0.0005936059    
0.0230941680    0.0217676350    0.0006005008    
0.0233168290    0.0215765370    0.0005993482    
0.0235394900    0.0212331790    0.0005879985    
0.0237621510    0.0210766750    0.0005700564    
0.0239848120    0.0212491040    0.0005730457    
0.0242074730    0.0214577580    0.0005712429    
0.0244301340    0.0208208580    0.0005633435    
0.0246527950    0.0215498000    0.0005784269    
0.0248754560    0.0200876240    0.0005459077    
0.0250981170    0.0202667210    0.0005495586    
0.0253207780    0.0219357550    0.0005546694    
0.0255434390    0.0209451970    0.0005477858    
0.0257661000    0.0208069550    0.0005477411    
0.0259887610    0.0207622750    0.0005413381    
0.0262114220    0.0205704130    0.0005417019    
0.0264340830    0.0213885510    0.0005448539    
0.0266567440    0.0203299450    0.0005279170    
0.0268794050    0.0205042580    0.0005280115    
0.0271020660    0.0208510870    0.0005303029    
0.0273247270    0.0203481970    0.0005207226    
0.0275473880    0.0211963840    0.0005304071    
0.0277700490    0.0211695100    0.0005269374    
0.0279927100    0.0206212740    0.0005155319    
0.0282153710    0.0202756870    0.0005136790    
0.0284380320    0.0210703740    0.0005206133    
0.0286606930    0.0199652220    0.0005024387    
0.0288833540    0.0200792220    0.0005048282    
0.0291060150    0.0203325000    0.0005075201    
0.0293286760    0.0207305790    0.0005053234    
0.0295513370    0.0208720420    0.0005015232    
0.0297739980    0.0207182830    0.0005051737    
0.0299966590    0.0199928040    0.0004877745    
0.0302193200    0.0200040160    0.0004950215    
0.0304419810    0.0198072170    0.0004934870    
0.0306646420    0.0208064570    0.0004915064    
0.0308873030    0.0202127190    0.0004823502    
0.0311099640    0.0201558350    0.0004829217    
0.0313326250    0.0209111860    0.0004864382    
0.0315552860    0.0204814020    0.0004876524    
0.0317779470    0.0189236480    0.0004691493    
0.0320006080    0.0206173540    0.0004785683    
0.0322232690    0.0204654820    0.0004787984    
0.0324459300    0.0195982600    0.0004650461    
0.0326685910    0.0195886910    0.0004641661    
0.0328912520    0.0203165140    0.0004742760    
0.0331139130    0.0196403850    0.0004602513    
0.0333365740    0.0201806530    0.0004680535    
0.0335592350    0.0198370240    0.0004595895    
0.0337818960    0.0198479720    0.0004593503    
0.0340045570    0.0204843900    0.0004659154    
0.0342272170    0.0209539330    0.0004693663    
0.0344498780    0.0202618730    0.0004633782    
0.0346725390    0.0196306220    0.0004476560    
0.0348952000    0.0200894520    0.0004507944    
0.0351178610    0.0193652290    0.0004446200    
0.0353405220    0.0203727130    0.0004539616    
0.0355631830    0.0201392310    0.0004496529    
0.0357858440    0.0202797970    0.0004512196    
0.0360085050    0.0198672180    0.0004479555    
0.0362311660    0.0198217420    0.0004421237    
0.0364538270    0.0196018760    0.0004361360    
0.0366764880    0.0206102500    0.0004468889    
0.0368991490    0.0195780330    0.0004333587    
0.0371218100    0.0195138590    0.0004314101    
0.0373444710    0.0200971250    0.0004425778    
0.0375671320    0.0200872220    0.0004418243    
0.0377897930    0.0198444990    0.0004277785    
0.0380124540    0.0196554410    0.0004284072    
0.0382351150    0.0201596790    0.0004338677    
0.0384577760    0.0201022330    0.0004290689    
0.0386804370    0.0194896680    0.0004257051    
0.0389030980    0.0198091990    0.0004259304    
0.0391257590    0.0197579810    0.0004224917    
0.0393484200    0.0195803440    0.0004191727    
0.0395710810    0.0196511310    0.0004204954    
0.0397937420    0.0195971580    0.0004199177    
0.0400164030    0.0201832750    0.0004278846    
0.0402390640    0.0197111580    0.0004172199    
0.0404617250    0.0199680030    0.0004174521    
0.0406843860    0.0198835980    0.0004125441    
0.0409070470    0.0202475910    0.0004206398    
0.0411297080    0.0195149110    0.0004089640    
0.0413523690    0.0199516200    0.0004145805    
0.0415750300    0.0204672500    0.0004234704    
0.0417976910    0.0193390940    0.0004009879    
0.0420203520    0.0201883580    0.0004112373    
0.0422430130    0.0195987480    0.0004067216    
0.0424656740    0.0199470050    0.0004049788    
0.0426883350    0.0198050340    0.0004055379    
0.0429109960    0.0196783070    0.0004055013    
0.0431336570    0.0200536390    0.0004035828    
0.0433563180    0.0196161420    0.0004025995    
0.0435789790    0.0196130270    0.0003962430    
0.0438016400    0.0198917440    0.0004012194    
0.0440243010    0.0194346390    0.0003925589    
0.0442469620    0.0199571290    0.0004001844    
0.0444696230    0.0195433710    0.0003945942    
0.0446922840    0.0197046670    0.0003950426    
0.0449149450    0.0200602360    0.0003932624    
0.0451376060    0.0199108970    0.0003966346    
0.0453602670    0.0188612400    0.0003819912    
0.0455829280    0.0201992530    0.0003948512    
0.0458055890    0.0198576700    0.0003937813    
0.0460282500    0.0195798060    0.0003863015    
0.0462509110    0.0193370060    0.0003815111    
0.0464735720    0.0194191320    0.0003825362    
0.0466962330    0.0184554540    0.0003746190    
0.0469188940    0.0192507440    0.0003815209    
0.0471415550    0.0193726040    0.0003846922    
0.0473642160    0.0194651550    0.0003802107    
0.0475868770    0.0197942990    0.0003815071    
0.0478095380    0.0200296120    0.0003820887    
0.0480321990    0.0197514400    0.0003802575    
0.0482548600    0.0195434200    0.0003766018    
0.0484775210    0.0196447630    0.0003813259    
0.0487001820    0.0200153070    0.0003792710    
0.0489228430    0.0202450710    0.0003812368    
0.0491455040    0.0196827890    0.0003733054    
0.0493681650    0.0194967590    0.0003747299    
0.0495908260    0.0199113960    0.0003723220    
0.0498134870    0.0194408660    0.0003713987    
0.0500361480    0.0193734190    0.0003697729    
0.0502588090    0.0193724160    0.0003642229    
0.0504814700    0.0192356570    0.0003676797    
0.0507041310    0.0199680830    0.0003701603    
0.0509267920    0.0205418480    0.0003769940    
0.0511494530    0.0198865130    0.0003684584    
0.0513721140    0.0198701000    0.0003715498    
0.0515947750    0.0192384570    0.0003607493    
0.0518174360    0.0190742150    0.0003570423    
0.0520400970    0.0196806290    0.0003601588    
0.0522627580    0.0193328080    0.0003599957    
0.0524854190    0.0202480010    0.0003714135    
0.0527080800    0.0201130320    0.0003730397    
0.0529307410    0.0200509760    0.0003742130    
0.0531534020    0.0193367220    0.0003661496    
0.0533760630    0.0200370390    0.0003738878    
0.0535987240    0.0198434660    0.0003703403    
0.0538213850    0.0194713510    0.0003711017    
0.0540440460    0.0192804790    0.0003675307    
0.0542667070    0.0195755540    0.0003728846    
0.0544893680    0.0200443790    0.0003775244    
0.0547120290    0.0189360920    0.0003644253    
0.0549346900    0.0201214670    0.0003758561    
0.0551573510    0.0204326900    0.0003832102    
0.0553800120    0.0196911000    0.0003729937    
0.0556026730    0.0195738520    0.0003795921    
0.0558253340    0.0200227910    0.0003871353    
0.0560479950    0.0195886710    0.0003829157    
0.0562706560    0.0206178720    0.0003966443    
0.0564933170    0.0197974250    0.0003920474    
0.0567159780    0.0188784020    0.0003782495    
0.0569386390    0.0202101960    0.0003975029    
0.0571613000    0.0200154260    0.0003870652    
0.0573839610    0.0191249620    0.0003752157    
0.0576066220    0.0194308570    0.0003792515    
0.0578292830    0.0196407320    0.0003800325    
0.0580519440    0.0195117460    0.0003802513    
0.0582746050    0.0194649150    0.0003781199    
0.0584972660    0.0201544350    0.0003832861    
0.0587199270    0.0198586050    0.0003771830    
0.0589425880    0.0201721700    0.0003779257    
0.0591652490    0.0201165510    0.0003796251    
0.0593879100    0.0198470960    0.0003742737    
0.0596105710    0.0198193320    0.0003736173    
0.0598332320    0.0195506560    0.0003742481    
0.0600558930    0.0194860480    0.0003712470    
0.0602785540    0.0191766670    0.0003678988    
0.0605012150    0.0196300960    0.0003714385    
0.0607238760    0.0197744610    0.0003700851    
0.0609465370    0.0192005370    0.0003675459    
0.0611691980    0.0196425820    0.0003723419    
0.0613918590    0.0201688930    0.0003731782    
0.0616145200    0.0192040840    0.0003668082    
0.0618371810    0.0194950370    0.0003659467    
0.0620598420    0.0193012170    0.0003644984    
0.0622825030    0.0198109210    0.0003749272    
0.0625051640    0.0188376060    0.0003604664    
0.0627278250    0.0195500770    0.0003664638    
0.0629504860    0.0201661140    0.0003691669    
0.0631731470    0.0192205930    0.0003648676    
0.0633958080    0.0194004310    0.0003686803    
0.0636184690    0.0197717180    0.0003773751    
0.0638411300    0.0197379400    0.0003756372    
0.0640637910    0.0196540780    0.0003774748    
0.0642864520    0.0197279150    0.0003773648    
0.0645091130    0.0190908900    0.0003744752    
0.0647317740    0.0193538590    0.0003774612    
0.0649544350    0.0197814100    0.0003811879    
0.0651770960    0.0199439930    0.0003806632    
0.0653997570    0.0190401320    0.0003711308    
0.0656224180    0.0192102150    0.0003735954    
0.0658450790    0.0195865810    0.0003718152    
0.0660677400    0.0198604310    0.0003759989    
0.0662904010    0.0196886950    0.0003788389    
0.0665130620    0.0195688370    0.0003760458    
0.0667357230    0.0200238590    0.0003871559    
0.0669583840    0.0192580710    0.0003784103    
0.0671810450    0.0195019280    0.0003786961    
0.0674037060    0.0197348230    0.0003874044    
0.0676263670    0.0188024250    0.0003753734    
0.0678490280    0.0199722430    0.0003845084    
0.0680716890    0.0201876350    0.0003874365    
0.0682943500    0.0194205290    0.0003758421    
0.0685170110    0.0195398340    0.0003731532    
0.0687396720    0.0199606780    0.0003761482    
0.0689623330    0.0197005430    0.0003725049    
0.0691849940    0.0192103500    0.0003703899    
0.0694076550    0.0189544350    0.0003677182    
0.0696303160    0.0194629370    0.0003696679    
0.0698529770    0.0203742850    0.0003774310    
0.0700756380    0.0193844260    0.0003634225    
0.0702982990    0.0196766360    0.0003701389    
0.0705209600    0.0192357050    0.0003633261    
0.0707436210    0.0195490090    0.0003645909    
0.0709662820    0.0194399770    0.0003679070    
0.0711889430    0.0196174770    0.0003650434    
0.0714116040    0.0200932450    0.0003701977    
0.0716342650    0.0197680410    0.0003656988    
0.0718569260    0.0194078010    0.0003608920    
0.0720795870    0.0200522330    0.0003683186    
0.0723022480    0.0196587380    0.0003652426    
0.0725249090    0.0196610260    0.0003608895    
0.0727475700    0.0191695530    0.0003593940    
0.0729702310    0.0202972770    0.0003668649    
0.0731928920    0.0196778120    0.0003626669    
0.0734155530    0.0192864640    0.0003583260    
0.0736382140    0.0199926850    0.0003624862    
0.0738608750    0.0199922000    0.0003648236    
0.0740835360    0.0192504920    0.0003571034    
0.0743061970    0.0192659380    0.0003522162    
0.0745288580    0.0198679180    0.0003613543    
0.0747515190    0.0202499920    0.0003655328    
0.0749741800    0.0190413500    0.0003511754    
0.0751968410    0.0196507360    0.0003595516    
0.0754195020    0.0196357150    0.0003573084    
0.0756421630    0.0200003770    0.0003576632    
0.0758648240    0.0195503730    0.0003544667    
0.0760874850    0.0195316010    0.0003541263    
0.0763101460    0.0195005470    0.0003535052    
0.0765328070    0.0197381590    0.0003592916    
0.0767554680    0.0196131330    0.0003557216    
0.0769781290    0.0197901650    0.0003552700    
0.0772007900    0.0198505470    0.0003529579    
0.0774234510    0.0194676510    0.0003515254    
0.0776461120    0.0191393080    0.0003482177    
0.0778687730    0.0192081650    0.0003476911    
0.0780914340    0.0198666770    0.0003561274    
0.0783140950    0.0199832220    0.0003515037    
0.0785367560    0.0199944100    0.0003572710    
0.0787594170    0.0192301780    0.0003472373    
0.0789820780    0.0192756450    0.0003458663    
0.0792047390    0.0200640310    0.0003540221    
0.0794274000    0.0193083690    0.0003487630    
0.0796500610    0.0190939110    0.0003434357    
0.0798727220    0.0193299750    0.0003452332    
0.0800953830    0.0197260350    0.0003479500    
0.0803180440    0.0193172560    0.0003467245    
0.0805407050    0.0194242150    0.0003473598    
0.0807633660    0.0196113800    0.0003487053    
0.0809860270    0.0195406630    0.0003467907    
0.0812086880    0.0197911100    0.0003459900    
0.0814313490    0.0198560700    0.0003481379    
0.0816540100    0.0190548500    0.0003402652    
0.0818766710    0.0198378160    0.0003479783    
0.0820993320    0.0187316840    0.0003375215    
0.0823219930    0.0195610370    0.0003463351    
0.0825446540    0.0195316430    0.0003435604    
0.0827673150    0.0189361990    0.0003360103    
0.0829899760    0.0193203600    0.0003387973    
0.0832126370    0.0196736540    0.0003434122    
0.0834352980    0.0193888440    0.0003401552    
0.0836579590    0.0199442610    0.0003442249    
0.0838806200    0.0197165550    0.0003433252    
0.0841032810    0.0196437500    0.0003405634    
0.0843259420    0.0191532620    0.0003352491    
0.0845486030    0.0198398520    0.0003412053    
0.0847712640    0.0199117960    0.0003397403    
0.0849939250    0.0195565680    0.0003372825    
0.0852165860    0.0196953200    0.0003389203    
0.0854392470    0.0198905620    0.0003373706    
0.0856619080    0.0196562030    0.0003378472    
0.0858845690    0.0190528110    0.0003296255    
0.0861072300    0.0197908770    0.0003382685    
0.0863298910    0.0197299330    0.0003395159    
0.0865525520    0.0189829880    0.0003301514    
0.0867752130    0.0195196800    0.0003320845    
0.0869978740    0.0197839780    0.0003351773    
0.0872205350    0.0188727270    0.0003269506    
0.0874431960    0.0202661230    0.0003388055    
0.0876658570    0.0189551760    0.0003289224    
0.0878885180    0.0200053210    0.0003384903    
0.0881111790    0.0201710900    0.0003394537    
0.0883338400    0.0194682750    0.0003286048    
0.0885565010    0.0195668180    0.0003339028    
0.0887791620    0.0194900710    0.0003289259    
0.0890018230    0.0192304870    0.0003298972    
0.0892244840    0.0192448190    0.0003305811    
0.0894471450    0.0192458740    0.0003291938    
0.0896698060    0.0194139040    0.0003293806    
0.0898924670    0.0192728050    0.0003297026    
0.0901151280    0.0193719840    0.0003269795    
0.0903377890    0.0203654050    0.0003380645    
0.0905604500    0.0200843830    0.0003341832    
0.0907831110    0.0189997320    0.0003242256    
0.0910057720    0.0192750160    0.0003280646    
0.0912284330    0.0194756630    0.0003250462    
0.0914510940    0.0190083390    0.0003247036    
0.0916737550    0.0194494710    0.0003276347    
0.0918964160    0.0193388890    0.0003280606    
0.0921190770    0.0194115600    0.0003257047    
0.0923417380    0.0189461780    0.0003219087    
0.0925643990    0.0196155430    0.0003267442    
0.0927870600    0.0192225230    0.0003247808    
0.0930097210    0.0194736830    0.0003241115    
0.0932323820    0.0195092300    0.0003267919    
