# Diamond Light Source Ltd.
# Data extracted from: /dls/b21/data/2018/cm19678-3/processed/b21-386631_00083.dat
q(1/A)          Column          Error           
0.0035000000    2.1040127000    0.0247240210    
0.0037226610    1.8356485000    0.0226072640    
0.0039453220    1.6373629000    0.0194237170    
0.0041679830    1.2982065000    0.0142035380    
0.0043906440    0.9726118000    0.0117592530    
0.0046133050    0.8102464600    0.0103034440    
0.0048359660    0.5982305500    0.0083744405    
0.0050586270    0.4783985000    0.0073608480    
0.0052812880    0.4283680100    0.0065856026    
0.0055039490    0.3840878800    0.0059294289    
0.0057266100    0.3223722500    0.0052552156    
0.0059492710    0.2777387600    0.0048778673    
0.0061719320    0.2252849000    0.0042333626    
0.0063945930    0.1999764600    0.0040368406    
0.0066172539    0.1888973500    0.0036840928    
0.0068399149    0.1681682400    0.0034213343    
0.0070625759    0.1488490200    0.0031858045    
0.0072852369    0.1322543000    0.0029580357    
0.0075078979    0.1128109900    0.0027185345    
0.0077305589    0.1012414100    0.0025263028    
0.0079532199    0.0987001780    0.0024598295    
0.0081758809    0.0918644580    0.0023951967    
0.0083985419    0.0859448890    0.0021608112    
0.0086212029    0.0761117630    0.0020334463    
0.0088438639    0.0691740310    0.0019229852    
0.0090665249    0.0642786890    0.0017903608    
0.0092891859    0.0630733750    0.0018511003    
0.0095118469    0.0627523260    0.0017756142    
0.0097345079    0.0549740820    0.0016140946    
0.0099571689    0.0560031630    0.0015955382    
0.0101798300    0.0513665470    0.0015280626    
0.0104024910    0.0462787370    0.0014455049    
0.0106251520    0.0477299940    0.0014729796    
0.0108478130    0.0466029590    0.0014174268    
0.0110704740    0.0440790860    0.0013124357    
0.0112931350    0.0417441160    0.0012809525    
0.0115157960    0.0418414780    0.0012749677    
0.0117384570    0.0397877630    0.0012325816    
0.0119611180    0.0378658410    0.0012058940    
0.0121837790    0.0373089980    0.0011768756    
0.0124064400    0.0359339260    0.0011068388    
0.0126291010    0.0349735660    0.0010782812    
0.0128517620    0.0341795210    0.0010686319    
0.0130744230    0.0311726960    0.0010129765    
0.0132970840    0.0325635810    0.0010302661    
0.0135197450    0.0308458780    0.0009883657    
0.0137424060    0.0306704630    0.0009718308    
0.0139650670    0.0307323300    0.0009511417    
0.0141877280    0.0309274560    0.0009562652    
0.0144103890    0.0307268100    0.0009367233    
0.0146330500    0.0279412920    0.0008875844    
0.0148557110    0.0292172730    0.0009038191    
0.0150783720    0.0278838720    0.0008756572    
0.0153010330    0.0282524750    0.0008689985    
0.0155236940    0.0304266120    0.0008964526    
0.0157463550    0.0256832480    0.0008093478    
0.0159690160    0.0276148510    0.0008360463    
0.0161916770    0.0259781430    0.0008063237    
0.0164143380    0.0247979740    0.0007937638    
0.0166369990    0.0247004340    0.0007677758    
0.0168596600    0.0249470480    0.0007648008    
0.0170823210    0.0247473560    0.0007551386    
0.0173049820    0.0237925060    0.0007417072    
0.0175276430    0.0247455800    0.0007643935    
0.0177503040    0.0251593560    0.0007511092    
0.0179729650    0.0243550620    0.0007316769    
0.0181956260    0.0227112160    0.0006930080    
0.0184182870    0.0242153360    0.0007122158    
0.0186409480    0.0237591530    0.0007099405    
0.0188636090    0.0241525090    0.0007112915    
0.0190862700    0.0235341070    0.0007010286    
0.0193089310    0.0229195560    0.0006907367    
0.0195315920    0.0236793260    0.0006782151    
0.0197542530    0.0227547960    0.0006658119    
0.0199769140    0.0228132500    0.0006666666    
0.0201995750    0.0230670720    0.0006598677    
0.0204222360    0.0225814990    0.0006584899    
0.0206448970    0.0239842840    0.0006738116    
0.0208675580    0.0230429890    0.0006468566    
0.0210902190    0.0228234370    0.0006499793    
0.0213128800    0.0222983160    0.0006337409    
0.0215355410    0.0231594200    0.0006381677    
0.0217582020    0.0212954200    0.0006119475    
0.0219808630    0.0212570740    0.0006105935    
0.0222035240    0.0219413680    0.0006147223    
0.0224261850    0.0210957770    0.0005973960    
0.0226488460    0.0209801080    0.0005912823    
0.0228715070    0.0210086480    0.0005902144    
0.0230941680    0.0214563550    0.0005964703    
0.0233168290    0.0209134770    0.0005903429    
0.0235394900    0.0213997120    0.0005905757    
0.0237621510    0.0215130570    0.0005761967    
0.0239848120    0.0207894480    0.0005670787    
0.0242074730    0.0228173250    0.0005893373    
0.0244301340    0.0212369890    0.0005692110    
0.0246527950    0.0211192740    0.0005728874    
0.0248754560    0.0212498220    0.0005617402    
0.0250981170    0.0208375550    0.0005575047    
0.0253207780    0.0209314470    0.0005420763    
0.0255434390    0.0209217570    0.0005477350    
0.0257661000    0.0200037400    0.0005373158    
0.0259887610    0.0216999750    0.0005536861    
0.0262114220    0.0213749600    0.0005524518    
0.0264340830    0.0214085440    0.0005453632    
0.0266567440    0.0206782630    0.0005326690    
0.0268794050    0.0200062560    0.0005218037    
0.0271020660    0.0211675720    0.0005345619    
0.0273247270    0.0209674310    0.0005288335    
0.0275473880    0.0211364870    0.0005299046    
0.0277700490    0.0202965640    0.0005161997    
0.0279927100    0.0203051410    0.0005118040    
0.0282153710    0.0207635790    0.0005200655    
0.0284380320    0.0219527280    0.0005316506    
0.0286606930    0.0209204310    0.0005145578    
0.0288833540    0.0199963580    0.0005040209    
0.0291060150    0.0204783070    0.0005095746    
0.0293286760    0.0203554240    0.0005009641    
0.0295513370    0.0208794900    0.0005018470    
0.0297739980    0.0200595460    0.0004973101    
0.0299966590    0.0196898790    0.0004842913    
0.0302193200    0.0202802030    0.0004986600    
0.0304419810    0.0199487960    0.0004954789    
0.0306646420    0.0205237450    0.0004883838    
0.0308873030    0.0210611550    0.0004925996    
0.0311099640    0.0207189980    0.0004898505    
0.0313326250    0.0199680090    0.0004755636    
0.0315552860    0.0202100070    0.0004846371    
0.0317779470    0.0200007470    0.0004825415    
0.0320006080    0.0208367660    0.0004813329    
0.0322232690    0.0198679430    0.0004719772    
0.0324459300    0.0199148050    0.0004690058    
0.0326685910    0.0202345140    0.0004719761    
0.0328912520    0.0205682270    0.0004774280    
0.0331139130    0.0199394280    0.0004639586    
0.0333365740    0.0201995170    0.0004684910    
0.0335592350    0.0201859600    0.0004638306    
0.0337818960    0.0207390770    0.0004697681    
0.0340045570    0.0202913960    0.0004639321    
0.0342272170    0.0200684910    0.0004595570    
0.0344498780    0.0205141690    0.0004664721    
0.0346725390    0.0201189930    0.0004534020    
0.0348952000    0.0197133560    0.0004467634    
0.0351178610    0.0204459910    0.0004570720    
0.0353405220    0.0189033810    0.0004374892    
0.0355631830    0.0200173720    0.0004484999    
0.0357858440    0.0199269450    0.0004474859    
0.0360085050    0.0210686240    0.0004615166    
0.0362311660    0.0198698830    0.0004428671    
0.0364538270    0.0195910600    0.0004362194    
0.0366764880    0.0202318620    0.0004429745    
0.0368991490    0.0209981290    0.0004490102    
0.0371218100    0.0201335280    0.0004384111    
0.0373444710    0.0205256440    0.0004474803    
0.0375671320    0.0196001870    0.0004366392    
0.0377897930    0.0210998740    0.0004413079    
0.0380124540    0.0205523590    0.0004382774    
0.0382351150    0.0202532930    0.0004350771    
0.0384577760    0.0194885180    0.0004226659    
0.0386804370    0.0200383970    0.0004318580    
0.0389030980    0.0202493860    0.0004308380    
0.0391257590    0.0201110300    0.0004264488    
0.0393484200    0.0206585190    0.0004307599    
0.0395710810    0.0202819200    0.0004273905    
0.0397937420    0.0193002600    0.0004169194    
0.0400164030    0.0192033840    0.0004175635    
0.0402390640    0.0197826190    0.0004181708    
0.0404617250    0.0196896640    0.0004147261    
0.0406843860    0.0190968440    0.0004044889    
0.0409070470    0.0197154640    0.0004152695    
0.0411297080    0.0205110970    0.0004194683    
0.0413523690    0.0195477560    0.0004105548    
0.0415750300    0.0200654290    0.0004194889    
0.0417976910    0.0204223980    0.0004122583    
0.0420203520    0.0202826920    0.0004123896    
0.0422430130    0.0197268970    0.0004082398    
0.0424656740    0.0197269850    0.0004029273    
0.0426883350    0.0205300470    0.0004130869    
0.0429109960    0.0204076220    0.0004131402    
0.0431336570    0.0201130330    0.0004043689    
0.0433563180    0.0194856070    0.0004014452    
0.0435789790    0.0200320000    0.0004006400    
0.0438016400    0.0200156410    0.0004026550    
0.0440243010    0.0193337560    0.0003917217    
0.0442469620    0.0197026930    0.0003978110    
0.0444696230    0.0193064530    0.0003923784    
0.0446922840    0.0209993790    0.0004080050    
0.0449149450    0.0200404040    0.0003932516    
0.0451376060    0.0193442770    0.0003911328    
0.0453602670    0.0197306650    0.0003908787    
0.0455829280    0.0190206520    0.0003833376    
0.0458055890    0.0193916360    0.0003893149    
0.0460282500    0.0194302770    0.0003850034    
0.0462509110    0.0186770130    0.0003751191    
0.0464735720    0.0195428800    0.0003839325    
0.0466962330    0.0201091420    0.0003912255    
0.0469188940    0.0197152650    0.0003862769    
0.0471415550    0.0196048060    0.0003871716    
0.0473642160    0.0192826450    0.0003786009    
0.0475868770    0.0201292770    0.0003849014    
0.0478095380    0.0208289650    0.0003898205    
0.0480321990    0.0195793850    0.0003787746    
0.0482548600    0.0195616880    0.0003769538    
0.0484775210    0.0192260020    0.0003774160    
0.0487001820    0.0195088880    0.0003746172    
0.0489228430    0.0186687450    0.0003662651    
0.0491455040    0.0191838540    0.0003687158    
0.0493681650    0.0198177650    0.0003779787    
0.0495908260    0.0185711440    0.0003597411    
0.0498134870    0.0200271860    0.0003771337    
0.0500361480    0.0196741010    0.0003728055    
0.0502588090    0.0198017760    0.0003684091    
0.0504814700    0.0196968160    0.0003722348    
0.0507041310    0.0191419480    0.0003625915    
0.0509267920    0.0193699070    0.0003662531    
0.0511494530    0.0193721130    0.0003638316    
0.0513721140    0.0199164900    0.0003721571    
0.0515947750    0.0195069630    0.0003634277    
0.0518174360    0.0196539690    0.0003625971    
0.0520400970    0.0201542270    0.0003646368    
0.0522627580    0.0192904920    0.0003597695    
0.0524854190    0.0197077460    0.0003665963    
0.0527080800    0.0205265740    0.0003770313    
0.0529307410    0.0193147450    0.0003674502    
0.0531534020    0.0197642390    0.0003703481    
0.0533760630    0.0193644310    0.0003677306    
0.0535987240    0.0191356080    0.0003638448    
0.0538213850    0.0194824730    0.0003713812    
0.0540440460    0.0194387520    0.0003692086    
0.0542667070    0.0195796330    0.0003730977    
0.0544893680    0.0191948290    0.0003696100    
0.0547120290    0.0196277050    0.0003711940    
0.0549346900    0.0195570090    0.0003707198    
0.0551573510    0.0200201650    0.0003794994    
0.0553800120    0.0192498300    0.0003689630    
0.0556026730    0.0206458070    0.0003900298    
0.0558253340    0.0189926060    0.0003772207    
0.0560479950    0.0194571380    0.0003818062    
0.0562706560    0.0201559670    0.0003923593    
0.0564933170    0.0192641930    0.0003869123    
0.0567159780    0.0189719060    0.0003793622    
0.0569386390    0.0198534600    0.0003941631    
0.0571613000    0.0204611910    0.0003915345    
0.0573839610    0.0198944060    0.0003828680    
0.0576066220    0.0199232050    0.0003842057    
0.0578292830    0.0204245520    0.0003877225    
0.0580519440    0.0191442810    0.0003768296    
0.0582746050    0.0203947720    0.0003872270    
0.0584972660    0.0197719980    0.0003798096    
0.0587199270    0.0196046810    0.0003749389    
0.0589425880    0.0190570970    0.0003675034    
0.0591652490    0.0200421350    0.0003790994    
0.0593879100    0.0191309300    0.0003676307    
0.0596105710    0.0198731060    0.0003742986    
0.0598332320    0.0191888820    0.0003709425    
0.0600558930    0.0197662080    0.0003740810    
0.0602785540    0.0188766840    0.0003651804    
0.0605012150    0.0197328640    0.0003725836    
0.0607238760    0.0198206760    0.0003706904    
0.0609465370    0.0197748270    0.0003731764    
0.0611691980    0.0196892020    0.0003729577    
0.0613918590    0.0195173550    0.0003672727    
0.0616145200    0.0192500860    0.0003674189    
0.0618371810    0.0190800900    0.0003622004    
0.0620598420    0.0198980090    0.0003702636    
0.0622825030    0.0199146670    0.0003760833    
0.0625051640    0.0191382840    0.0003635017    
0.0627278250    0.0194102100    0.0003653211    
0.0629504860    0.0202120210    0.0003697596    
0.0631731470    0.0197654530    0.0003701759    
0.0633958080    0.0197201170    0.0003718792    
0.0636184690    0.0198478760    0.0003782779    
0.0638411300    0.0197134570    0.0003755796    
0.0640637910    0.0200933280    0.0003818479    
0.0642864520    0.0197102290    0.0003773719    
0.0645091130    0.0198954360    0.0003824631    
0.0647317740    0.0193940560    0.0003780295    
0.0649544350    0.0196307970    0.0003799114    
0.0651770960    0.0201517170    0.0003828193    
0.0653997570    0.0204554150    0.0003848567    
0.0656224180    0.0202026700    0.0003833034    
0.0658450790    0.0192092600    0.0003683885    
0.0660677400    0.0196509920    0.0003741858    
0.0662904010    0.0193495840    0.0003757378    
0.0665130620    0.0192327090    0.0003729764    
0.0667357230    0.0198552620    0.0003857027    
0.0669583840    0.0194695770    0.0003806604    
0.0671810450    0.0194907150    0.0003787641    
0.0674037060    0.0200273040    0.0003904470    
0.0676263670    0.0199301480    0.0003866471    
0.0678490280    0.0200501880    0.0003854380    
0.0680716890    0.0204074550    0.0003897222    
0.0682943500    0.0196425340    0.0003781608    
0.0685170110    0.0190088740    0.0003682204    
0.0687396720    0.0200857600    0.0003775012    
0.0689623330    0.0194722070    0.0003705129    
0.0691849940    0.0199645580    0.0003777672    
0.0694076550    0.0190506970    0.0003688230    
0.0696303160    0.0195232970    0.0003704137    
0.0698529770    0.0192805850    0.0003673325    
0.0700756380    0.0202277500    0.0003714172    
0.0702982990    0.0197298740    0.0003708125    
0.0705209600    0.0190544850    0.0003617795    
0.0707436210    0.0195264460    0.0003645507    
0.0709662820    0.0195766260    0.0003693703    
0.0711889430    0.0196970060    0.0003659536    
0.0714116040    0.0193815490    0.0003637523    
0.0716342650    0.0194885700    0.0003632742    
0.0718569260    0.0198289710    0.0003649572    
0.0720795870    0.0198678290    0.0003667924    
0.0723022480    0.0194937240    0.0003638764    
0.0725249090    0.0190892870    0.0003557696    
0.0727475700    0.0200574830    0.0003677951    
0.0729702310    0.0190950190    0.0003560001    
0.0731928920    0.0190071060    0.0003565992    
0.0734155530    0.0198442450    0.0003636405    
0.0736382140    0.0193469590    0.0003567510    
0.0738608750    0.0201308330    0.0003662574    
0.0740835360    0.0192552250    0.0003573142    
0.0743061970    0.0192194960    0.0003519558    
0.0745288580    0.0195970400    0.0003590502    
0.0747515190    0.0197471730    0.0003611348    
0.0749741800    0.0194481110    0.0003550723    
0.0751968410    0.0195571610    0.0003588621    
0.0754195020    0.0196410530    0.0003575240    
0.0756421630    0.0193468620    0.0003519357    
0.0758648240    0.0196715730    0.0003557299    
0.0760874850    0.0198326310    0.0003570116    
0.0763101460    0.0191788170    0.0003507407    
0.0765328070    0.0193180100    0.0003556131    
0.0767554680    0.0199995560    0.0003593766    
0.0769781290    0.0193745710    0.0003516841    
0.0772007900    0.0199507650    0.0003540131    
0.0774234510    0.0189966380    0.0003474091    
0.0776461120    0.0197913330    0.0003542649    
0.0778687730    0.0195410950    0.0003508553    
0.0780914340    0.0189203780    0.0003477047    
0.0783140950    0.0191107280    0.0003439051    
0.0785367560    0.0193421630    0.0003515595    
0.0787594170    0.0189845660    0.0003451739    
0.0789820780    0.0193744160    0.0003469133    
0.0792047390    0.0194888050    0.0003490734    
0.0794274000    0.0191372520    0.0003473763    
0.0796500610    0.0200330310    0.0003519445    
0.0798727220    0.0194035880    0.0003460515    
0.0800953830    0.0197199010    0.0003480585    
0.0803180440    0.0195720210    0.0003491665    
0.0805407050    0.0194175010    0.0003474620    
0.0807633660    0.0193380280    0.0003464284    
0.0809860270    0.0199655070    0.0003507041    
0.0812086880    0.0198398810    0.0003465779    
0.0814313490    0.0196485740    0.0003464759    
0.0816540100    0.0196808470    0.0003459709    
0.0818766710    0.0197952630    0.0003477673    
0.0820993320    0.0199301490    0.0003483142    
0.0823219930    0.0186709400    0.0003385217    
0.0825446540    0.0190296990    0.0003392755    
0.0827673150    0.0195924600    0.0003419429    
0.0829899760    0.0191183950    0.0003371793    
0.0832126370    0.0197460440    0.0003442042    
0.0834352980    0.0194726720    0.0003410490    
0.0836579590    0.0197845050    0.0003430037    
0.0838806200    0.0191425770    0.0003384490    
0.0841032810    0.0189706580    0.0003348343    
0.0843259420    0.0195999330    0.0003392942    
0.0845486030    0.0198466500    0.0003414233    
0.0847712640    0.0194894450    0.0003362749    
0.0849939250    0.0195166250    0.0003370953    
0.0852165860    0.0195035760    0.0003374240    
0.0854392470    0.0197315990    0.0003361767    
0.0856619080    0.0197501370    0.0003388117    
0.0858845690    0.0190877440    0.0003300817    
0.0861072300    0.0193521930    0.0003346548    
0.0863298910    0.0194793720    0.0003375108    
0.0865525520    0.0194720150    0.0003345332    
0.0867752130    0.0194361370    0.0003315280    
0.0869978740    0.0195410150    0.0003332684    
0.0872205350    0.0189640700    0.0003278940    
0.0874431960    0.0192759160    0.0003305792    
0.0876658570    0.0193328140    0.0003323379    
0.0878885180    0.0189749530    0.0003298122    
0.0881111790    0.0195037960    0.0003339476    
0.0883338400    0.0193698880    0.0003279266    
0.0885565010    0.0194824490    0.0003333378    
0.0887791620    0.0198638950    0.0003322205    
0.0890018230    0.0196166650    0.0003333488    
0.0892244840    0.0191377620    0.0003298144    
0.0894471450    0.0193145880    0.0003299350    
0.0896698060    0.0192978060    0.0003285477    
0.0898924670    0.0193585670    0.0003305898    
0.0901151280    0.0191912190    0.0003256025    
0.0903377890    0.0193059590    0.0003293075    
0.0905604500    0.0194798030    0.0003292688    
0.0907831110    0.0189565740    0.0003240085    
0.0910057720    0.0190694760    0.0003264632    
0.0912284330    0.0196621990    0.0003267517    
0.0914510940    0.0189816930    0.0003246276    
0.0916737550    0.0193350680    0.0003268223    
0.0918964160    0.0192567000    0.0003275157    
0.0921190770    0.0190085090    0.0003224561    
0.0923417380    0.0195003950    0.0003267356    
0.0925643990    0.0192361890    0.0003237205    
0.0927870600    0.0196689120    0.0003286837    
0.0930097210    0.0193029070    0.0003228380    
0.0932323820    0.0189247670    0.0003220100    
