# Diamond Light Source Ltd.
# Data extracted from: /dls/b21/data/2018/cm19678-3/processed/b21-386631_00074.dat
q(1/A)          Column          Error           
0.0035000000    2.0880821000    0.0246253910    
0.0037226610    1.9242641000    0.0231419520    
0.0039453220    1.6242799000    0.0193421490    
0.0041679830    1.2927241000    0.0141707230    
0.0043906440    0.9678228900    0.0117279560    
0.0046133050    0.7748268500    0.0100737360    
0.0048359660    0.5983463800    0.0083736010    
0.0050586270    0.4640584100    0.0072482588    
0.0052812880    0.4210136500    0.0065275395    
0.0055039490    0.3872305600    0.0059524642    
0.0057266100    0.3171071100    0.0052110966    
0.0059492710    0.2702646900    0.0048108389    
0.0061719320    0.2273431300    0.0042518189    
0.0063945930    0.2042963900    0.0040794059    
0.0066172539    0.1817124300    0.0036126374    
0.0068399149    0.1649709300    0.0033879864    
0.0070625759    0.1481769400    0.0031779778    
0.0072852369    0.1220175300    0.0028406913    
0.0075078979    0.1131594600    0.0027221934    
0.0077305589    0.1019576900    0.0025347243    
0.0079532199    0.1032573100    0.0025154799    
0.0081758809    0.0944501400    0.0024281927    
0.0083985419    0.0855308860    0.0021551757    
0.0086212029    0.0793400910    0.0020757144    
0.0088438639    0.0718720330    0.0019597415    
0.0090665249    0.0644527500    0.0017924300    
0.0092891859    0.0644061550    0.0018701870    
0.0095118469    0.0596640410    0.0017310294    
0.0097345079    0.0589317330    0.0016708560    
0.0099571689    0.0522550810    0.0015409183    
0.0101798300    0.0488471500    0.0014898241    
0.0104024910    0.0468472190    0.0014540694    
0.0106251520    0.0457118610    0.0014412188    
0.0108478130    0.0464984080    0.0014155570    
0.0110704740    0.0427336150    0.0012919954    
0.0112931350    0.0410990020    0.0012707656    
0.0115157960    0.0420579990    0.0012780104    
0.0117384570    0.0396194090    0.0012297287    
0.0119611180    0.0393096780    0.0012284274    
0.0121837790    0.0368118830    0.0011687785    
0.0124064400    0.0367035940    0.0011184092    
0.0126291010    0.0344945400    0.0010706603    
0.0128517620    0.0329303300    0.0010487154    
0.0130744230    0.0350102210    0.0010733072    
0.0132970840    0.0329091660    0.0010355145    
0.0135197450    0.0322266220    0.0010100454    
0.0137424060    0.0310893190    0.0009782515    
0.0139650670    0.0318678140    0.0009683627    
0.0141877280    0.0311812710    0.0009599919    
0.0144103890    0.0293730750    0.0009156758    
0.0146330500    0.0283530410    0.0008939241    
0.0148557110    0.0283114210    0.0008895225    
0.0150783720    0.0267458750    0.0008574334    
0.0153010330    0.0268787040    0.0008474407    
0.0155236940    0.0266127950    0.0008382243    
0.0157463550    0.0271518180    0.0008320015    
0.0159690160    0.0269714320    0.0008260863    
0.0161916770    0.0254425440    0.0007978111    
0.0164143380    0.0249913850    0.0007966962    
0.0166369990    0.0244521430    0.0007637566    
0.0168596600    0.0246325340    0.0007598148    
0.0170823210    0.0246685050    0.0007537861    
0.0173049820    0.0241529370    0.0007471569    
0.0175276430    0.0244289910    0.0007593384    
0.0177503040    0.0231321070    0.0007200710    
0.0179729650    0.0236643190    0.0007210845    
0.0181956260    0.0254290760    0.0007331583    
0.0184182870    0.0234938590    0.0007013873    
0.0186409480    0.0246616130    0.0007231554    
0.0188636090    0.0232007240    0.0006969982    
0.0190862700    0.0235248330    0.0007007524    
0.0193089310    0.0223278780    0.0006816283    
0.0195315920    0.0231651390    0.0006706790    
0.0197542530    0.0235247960    0.0006768500    
0.0199769140    0.0221226640    0.0006563693    
0.0201995750    0.0234731020    0.0006655187    
0.0204222360    0.0223806570    0.0006554258    
0.0206448970    0.0228962500    0.0006582209    
0.0208675580    0.0225982800    0.0006404581    
0.0210902190    0.0213156840    0.0006280194    
0.0213128800    0.0221815030    0.0006319542    
0.0215355410    0.0209881940    0.0006073974    
0.0217582020    0.0204784380    0.0005999760    
0.0219808630    0.0221428260    0.0006230622    
0.0222035240    0.0208653530    0.0005993416    
0.0224261850    0.0223219350    0.0006143910    
0.0226488460    0.0212550190    0.0005950263    
0.0228715070    0.0217793890    0.0006008250    
0.0230941680    0.0214479000    0.0005962352    
0.0233168290    0.0213549900    0.0005964243    
0.0235394900    0.0214727390    0.0005914659    
0.0237621510    0.0216896980    0.0005784434    
0.0239848120    0.0218481510    0.0005812241    
0.0242074730    0.0213476270    0.0005699290    
0.0244301340    0.0205881020    0.0005603371    
0.0246527950    0.0208468720    0.0005690686    
0.0248754560    0.0208703540    0.0005565923    
0.0250981170    0.0206653340    0.0005550867    
0.0253207780    0.0210214300    0.0005431332    
0.0255434390    0.0210281860    0.0005490182    
0.0257661000    0.0205729390    0.0005447993    
0.0259887610    0.0215784480    0.0005520247    
0.0262114220    0.0205101630    0.0005410541    
0.0264340830    0.0209279450    0.0005391008    
0.0266567440    0.0210678810    0.0005375579    
0.0268794050    0.0215628710    0.0005416166    
0.0271020660    0.0205924660    0.0005271462    
0.0273247270    0.0206658470    0.0005249130    
0.0275473880    0.0213804740    0.0005328493    
0.0277700490    0.0196848960    0.0005082618    
0.0279927100    0.0208258460    0.0005182226    
0.0282153710    0.0209116480    0.0005218137    
0.0284380320    0.0206699060    0.0005157815    
0.0286606930    0.0195332230    0.0004971074    
0.0288833540    0.0201535680    0.0005058986    
0.0291060150    0.0197984590    0.0005009460    
0.0293286760    0.0190040550    0.0004839540    
0.0295513370    0.0198102170    0.0004887316    
0.0297739980    0.0201132630    0.0004978774    
0.0299966590    0.0207894630    0.0004975322    
0.0302193200    0.0209095480    0.0005062385    
0.0304419810    0.0200885550    0.0004971136    
0.0306646420    0.0202833170    0.0004854191    
0.0308873030    0.0203042590    0.0004835718    
0.0311099640    0.0203519550    0.0004853965    
0.0313326250    0.0197450290    0.0004728077    
0.0315552860    0.0196211910    0.0004774309    
0.0317779470    0.0197717570    0.0004796767    
0.0320006080    0.0208396700    0.0004812716    
0.0322232690    0.0192436880    0.0004644117    
0.0324459300    0.0196530140    0.0004658211    
0.0326685910    0.0196653030    0.0004651986    
0.0328912520    0.0205933560    0.0004776254    
0.0331139130    0.0212696950    0.0004790909    
0.0333365740    0.0201589730    0.0004679284    
0.0335592350    0.0198583960    0.0004599612    
0.0337818960    0.0204118040    0.0004659549    
0.0340045570    0.0214603250    0.0004770139    
0.0342272170    0.0203656470    0.0004628556    
0.0344498780    0.0205909100    0.0004672517    
0.0346725390    0.0199885000    0.0004518401    
0.0348952000    0.0195537730    0.0004448638    
0.0351178610    0.0196616810    0.0004481313    
0.0353405220    0.0197865810    0.0004475045    
0.0355631830    0.0200094840    0.0004483232    
0.0357858440    0.0203912040    0.0004525795    
0.0360085050    0.0199587990    0.0004491081    
0.0362311660    0.0210263460    0.0004554829    
0.0364538270    0.0195250860    0.0004353985    
0.0366764880    0.0197585270    0.0004376757    
0.0368991490    0.0195694160    0.0004333804    
0.0371218100    0.0202878210    0.0004400011    
0.0373444710    0.0199031990    0.0004405563    
0.0375671320    0.0202147560    0.0004433444    
0.0377897930    0.0195692030    0.0004249157    
0.0380124540    0.0206283440    0.0004390003    
0.0382351150    0.0192830300    0.0004244440    
0.0384577760    0.0195266550    0.0004229959    
0.0386804370    0.0196397520    0.0004274565    
0.0389030980    0.0203880180    0.0004322251    
0.0391257590    0.0201483020    0.0004267597    
0.0393484200    0.0201924790    0.0004257895    
0.0395710810    0.0195087040    0.0004190820    
0.0397937420    0.0195627340    0.0004196620    
0.0400164030    0.0196586940    0.0004224015    
0.0402390640    0.0200045580    0.0004204272    
0.0404617250    0.0198652770    0.0004164894    
0.0406843860    0.0200570590    0.0004144516    
0.0409070470    0.0201973280    0.0004202308    
0.0411297080    0.0200656860    0.0004148070    
0.0413523690    0.0192211380    0.0004070302    
0.0415750300    0.0189880220    0.0004079909    
0.0417976910    0.0199069030    0.0004069419    
0.0420203520    0.0204423280    0.0004139277    
0.0422430130    0.0197022340    0.0004079041    
0.0424656740    0.0200153700    0.0004057818    
0.0426883350    0.0198323530    0.0004059271    
0.0429109960    0.0196471370    0.0004052895    
0.0431336570    0.0191543000    0.0003945359    
0.0433563180    0.0191968390    0.0003983810    
0.0435789790    0.0191190170    0.0003913266    
0.0438016400    0.0204854780    0.0004072732    
0.0440243010    0.0198894200    0.0003972327    
0.0442469620    0.0204335900    0.0004050427    
0.0444696230    0.0203749890    0.0004030111    
0.0446922840    0.0197311620    0.0003954149    
0.0449149450    0.0191377160    0.0003842171    
0.0451376060    0.0197082090    0.0003947172    
0.0453602670    0.0199551070    0.0003930182    
0.0455829280    0.0204727370    0.0003976226    
0.0458055890    0.0198137090    0.0003934515    
0.0460282500    0.0196285140    0.0003868861    
0.0462509110    0.0203716870    0.0003916908    
0.0464735720    0.0197312100    0.0003857020    
0.0466962330    0.0193784260    0.0003839759    
0.0469188940    0.0190341890    0.0003794714    
0.0471415550    0.0199639530    0.0003906249    
0.0473642160    0.0194608120    0.0003802710    
0.0475868770    0.0195107150    0.0003788667    
0.0478095380    0.0197560190    0.0003795727    
0.0480321990    0.0200404520    0.0003831329    
0.0482548600    0.0198153770    0.0003793155    
0.0484775210    0.0199664270    0.0003845390    
0.0487001820    0.0192495260    0.0003720453    
0.0489228430    0.0200117890    0.0003791363    
0.0491455040    0.0189212720    0.0003661115    
0.0493681650    0.0191686010    0.0003716632    
0.0495908260    0.0197689080    0.0003710876    
0.0498134870    0.0193519850    0.0003706488    
0.0500361480    0.0196663480    0.0003726586    
0.0502588090    0.0196569430    0.0003669870    
0.0504814700    0.0201039310    0.0003759879    
0.0507041310    0.0206860290    0.0003768578    
0.0509267920    0.0198814630    0.0003709848    
0.0511494530    0.0194737680    0.0003647131    
0.0513721140    0.0189285030    0.0003627375    
0.0515947750    0.0196481780    0.0003646689    
0.0518174360    0.0199270760    0.0003650358    
0.0520400970    0.0192428350    0.0003562267    
0.0522627580    0.0194505680    0.0003611880    
0.0524854190    0.0192978000    0.0003626919    
0.0527080800    0.0196047070    0.0003683950    
0.0529307410    0.0199569950    0.0003734359    
0.0531534020    0.0197703250    0.0003703321    
0.0533760630    0.0204806540    0.0003781062    
0.0535987240    0.0199233420    0.0003711851    
0.0538213850    0.0198852380    0.0003751264    
0.0540440460    0.0197745710    0.0003723107    
0.0542667070    0.0194013570    0.0003713221    
0.0544893680    0.0195998950    0.0003734160    
0.0547120290    0.0198024170    0.0003727689    
0.0549346900    0.0195282290    0.0003703740    
0.0551573510    0.0198684580    0.0003779843    
0.0553800120    0.0192210370    0.0003686143    
0.0556026730    0.0194886790    0.0003788676    
0.0558253340    0.0197040850    0.0003841456    
0.0560479950    0.0195992560    0.0003831225    
0.0562706560    0.0202167380    0.0003928729    
0.0564933170    0.0191090120    0.0003852749    
0.0567159780    0.0194876390    0.0003844082    
0.0569386390    0.0193919330    0.0003894779    
0.0571613000    0.0198015640    0.0003850958    
0.0573839610    0.0189658920    0.0003737530    
0.0576066220    0.0196561370    0.0003815467    
0.0578292830    0.0190848320    0.0003747170    
0.0580519440    0.0193665850    0.0003789365    
0.0582746050    0.0197914490    0.0003813813    
0.0584972660    0.0186191950    0.0003684983    
0.0587199270    0.0192672340    0.0003716248    
0.0589425880    0.0198855310    0.0003753323    
0.0591652490    0.0195253180    0.0003741059    
0.0593879100    0.0203803940    0.0003793713    
0.0596105710    0.0195622580    0.0003712866    
0.0598332320    0.0192458320    0.0003714194    
0.0600558930    0.0199424160    0.0003756706    
0.0602785540    0.0197802240    0.0003737444    
0.0605012150    0.0197532170    0.0003727022    
0.0607238760    0.0195495250    0.0003680736    
0.0609465370    0.0193376230    0.0003689553    
0.0611691980    0.0196955670    0.0003729445    
0.0613918590    0.0194682130    0.0003667377    
0.0616145200    0.0194177510    0.0003689428    
0.0618371810    0.0198148550    0.0003690359    
0.0620598420    0.0194631640    0.0003661233    
0.0622825030    0.0195518470    0.0003725682    
0.0625051640    0.0192618700    0.0003646016    
0.0627278250    0.0191963700    0.0003632316    
0.0629504860    0.0193791260    0.0003619896    
0.0631731470    0.0197160840    0.0003696405    
0.0633958080    0.0194459640    0.0003692124    
0.0636184690    0.0199049160    0.0003787464    
0.0638411300    0.0200418660    0.0003786205    
0.0640637910    0.0193382830    0.0003745311    
0.0642864520    0.0193630140    0.0003739595    
0.0645091130    0.0194025330    0.0003776213    
0.0647317740    0.0205428220    0.0003889877    
0.0649544350    0.0199390880    0.0003828075    
0.0651770960    0.0190460830    0.0003720960    
0.0653997570    0.0200058370    0.0003805289    
0.0656224180    0.0201438230    0.0003826693    
0.0658450790    0.0202256860    0.0003779347    
0.0660677400    0.0193441140    0.0003711795    
0.0662904010    0.0194951190    0.0003770738    
0.0665130620    0.0198035480    0.0003783964    
0.0667357230    0.0195778130    0.0003829229    
0.0669583840    0.0197074110    0.0003829028    
0.0671810450    0.0190636500    0.0003745177    
0.0674037060    0.0198063590    0.0003882108    
0.0676263670    0.0192849610    0.0003802623    
0.0678490280    0.0197460230    0.0003824279    
0.0680716890    0.0193727470    0.0003796389    
0.0682943500    0.0196566270    0.0003782219    
0.0685170110    0.0200423600    0.0003780232    
0.0687396720    0.0192055130    0.0003690639    
0.0689623330    0.0193870140    0.0003696287    
0.0691849940    0.0188348870    0.0003668515    
0.0694076550    0.0193643840    0.0003717738    
0.0696303160    0.0192346020    0.0003675924    
0.0698529770    0.0195738000    0.0003700422    
0.0700756380    0.0197289420    0.0003667368    
0.0702982990    0.0199241280    0.0003725601    
0.0705209600    0.0189371170    0.0003605925    
0.0707436210    0.0194711290    0.0003639622    
0.0709662820    0.0197430740    0.0003708641    
0.0711889430    0.0198387660    0.0003671957    
0.0714116040    0.0196127590    0.0003658435    
0.0716342650    0.0197245720    0.0003653952    
0.0718569260    0.0191497090    0.0003585811    
0.0720795870    0.0193252560    0.0003616781    
0.0723022480    0.0192348290    0.0003613808    
0.0725249090    0.0193999050    0.0003585818    
0.0727475700    0.0193619340    0.0003612905    
0.0729702310    0.0190078800    0.0003551169    
0.0731928920    0.0197352580    0.0003632940    
0.0734155530    0.0196699010    0.0003619682    
0.0736382140    0.0198127900    0.0003609492    
0.0738608750    0.0193369020    0.0003588917    
0.0740835360    0.0198110160    0.0003623630    
0.0743061970    0.0197208900    0.0003564469    
0.0745288580    0.0195169840    0.0003582455    
0.0747515190    0.0196535680    0.0003602069    
0.0749741800    0.0188507530    0.0003495078    
0.0751968410    0.0196350250    0.0003595049    
0.0754195020    0.0201277250    0.0003618550    
0.0756421630    0.0196720110    0.0003548108    
0.0758648240    0.0194451920    0.0003536074    
0.0760874850    0.0195807000    0.0003546670    
0.0763101460    0.0192161420    0.0003510127    
0.0765328070    0.0201676200    0.0003632774    
0.0767554680    0.0197528340    0.0003570826    
0.0769781290    0.0201582060    0.0003586551    
0.0772007900    0.0198298770    0.0003528694    
0.0774234510    0.0204181020    0.0003601014    
0.0776461120    0.0196250630    0.0003527042    
0.0778687730    0.0190989000    0.0003467945    
0.0780914340    0.0196283050    0.0003540801    
0.0783140950    0.0197836870    0.0003498388    
0.0785367560    0.0196347470    0.0003541387    
0.0787594170    0.0191903820    0.0003469715    
0.0789820780    0.0192177590    0.0003454398    
0.0792047390    0.0202061220    0.0003553695    
0.0794274000    0.0196213470    0.0003516732    
0.0796500610    0.0192402010    0.0003448419    
0.0798727220    0.0192478820    0.0003445924    
0.0800953830    0.0190980450    0.0003424591    
0.0803180440    0.0196639360    0.0003499165    
0.0805407050    0.0192171810    0.0003455970    
0.0807633660    0.0198018810    0.0003504895    
0.0809860270    0.0197667460    0.0003488853    
0.0812086880    0.0197110250    0.0003453825    
0.0814313490    0.0194026500    0.0003442329    
0.0816540100    0.0196001380    0.0003451927    
0.0818766710    0.0194393500    0.0003445589    
0.0820993320    0.0192590310    0.0003423321    
0.0823219930    0.0195041190    0.0003459243    
0.0825446540    0.0199231240    0.0003470801    
0.0827673150    0.0192387410    0.0003387753    
0.0829899760    0.0192297470    0.0003380932    
0.0832126370    0.0199901640    0.0003462571    
0.0834352980    0.0200023770    0.0003455884    
0.0836579590    0.0197885970    0.0003429716    
0.0838806200    0.0199784350    0.0003456911    
0.0841032810    0.0191817620    0.0003366258    
0.0843259420    0.0193103910    0.0003367124    
0.0845486030    0.0198623140    0.0003414907    
0.0847712640    0.0191627720    0.0003333791    
0.0849939250    0.0199454410    0.0003407113    
0.0852165860    0.0192974880    0.0003355704    
0.0854392470    0.0195348870    0.0003344309    
0.0856619080    0.0200212340    0.0003410619    
0.0858845690    0.0195423930    0.0003339239    
0.0861072300    0.0188123600    0.0003298891    
0.0863298910    0.0192963290    0.0003358551    
0.0865525520    0.0197515970    0.0003368599    
0.0867752130    0.0200107100    0.0003363263    
0.0869978740    0.0195787680    0.0003335245    
0.0872205350    0.0194893090    0.0003323383    
0.0874431960    0.0189962970    0.0003281081    
0.0876658570    0.0199590900    0.0003376114    
0.0878885180    0.0191909600    0.0003316188    
0.0881111790    0.0193875130    0.0003328850    
0.0883338400    0.0192901110    0.0003271861    
0.0885565010    0.0196230000    0.0003344721    
0.0887791620    0.0196061310    0.0003299929    
0.0890018230    0.0190540180    0.0003284687    
0.0892244840    0.0194029420    0.0003320261    
0.0894471450    0.0199604970    0.0003353403    
0.0896698060    0.0193684800    0.0003290839    
0.0898924670    0.0189164030    0.0003267282    
0.0901151280    0.0194100610    0.0003273891    
0.0903377890    0.0191130610    0.0003275936    
0.0905604500    0.0193163500    0.0003278198    
0.0907831110    0.0191041070    0.0003252028    
0.0910057720    0.0191736970    0.0003272896    
0.0912284330    0.0193830560    0.0003243600    
0.0914510940    0.0197456130    0.0003310302    
0.0916737550    0.0189740330    0.0003236928    
0.0918964160    0.0192435440    0.0003273393    
0.0921190770    0.0191431850    0.0003235327    
0.0923417380    0.0193230660    0.0003251825    
0.0925643990    0.0190543480    0.0003221233    
0.0927870600    0.0193152660    0.0003256513    
0.0930097210    0.0193978490    0.0003235672    
0.0932323820    0.0186763250    0.0003198263    
