# Diamond Light Source Ltd.
# Data extracted from: /dls/b21/data/2018/cm19678-3/processed/b21-386631_00075.dat
q(1/A)          Column          Error           
0.0035000000    2.1382744000    0.0249176190    
0.0037226610    1.8552256000    0.0227212120    
0.0039453220    1.6399119000    0.0194334560    
0.0041679830    1.2920527000    0.0141659160    
0.0043906440    0.9953776600    0.0118927920    
0.0046133050    0.7807274300    0.0101112170    
0.0048359660    0.5813793300    0.0082533679    
0.0050586270    0.4652298000    0.0072568244    
0.0052812880    0.4359227200    0.0066415839    
0.0055039490    0.3802160700    0.0058978361    
0.0057266100    0.3158580100    0.0052004098    
0.0059492710    0.2665400100    0.0047771936    
0.0061719320    0.2269889700    0.0042481682    
0.0063945930    0.1989700000    0.0040255559    
0.0066172539    0.1841251400    0.0036362529    
0.0068399149    0.1721797400    0.0034609430    
0.0070625759    0.1358867800    0.0030430889    
0.0072852369    0.1273541500    0.0029019168    
0.0075078979    0.1190342500    0.0027917403    
0.0077305589    0.0967121020    0.0024684631    
0.0079532199    0.1030570900    0.0025128401    
0.0081758809    0.0873197260    0.0023345517    
0.0083985419    0.0838883910    0.0021342123    
0.0086212029    0.0772099100    0.0020474969    
0.0088438639    0.0706851950    0.0019433389    
0.0090665249    0.0654891360    0.0018066398    
0.0092891859    0.0641787320    0.0018667338    
0.0095118469    0.0647764140    0.0018035245    
0.0097345079    0.0572645830    0.0016469217    
0.0099571689    0.0548818310    0.0015790472    
0.0101798300    0.0488848180    0.0014902800    
0.0104024910    0.0485545240    0.0014802108    
0.0106251520    0.0456137320    0.0014395566    
0.0108478130    0.0455861880    0.0014014914    
0.0110704740    0.0440937690    0.0013122913    
0.0112931350    0.0429388810    0.0012987951    
0.0115157960    0.0414300580    0.0012683331    
0.0117384570    0.0369417080    0.0011873515    
0.0119611180    0.0383438740    0.0012131465    
0.0121837790    0.0375109870    0.0011797308    
0.0124064400    0.0378562790    0.0011357452    
0.0126291010    0.0352200400    0.0010817749    
0.0128517620    0.0340604440    0.0010664739    
0.0130744230    0.0343137760    0.0010624937    
0.0132970840    0.0333274520    0.0010419918    
0.0135197450    0.0324430630    0.0010133510    
0.0137424060    0.0321615590    0.0009948989    
0.0139650670    0.0324217450    0.0009766649    
0.0141877280    0.0295510090    0.0009344850    
0.0144103890    0.0283124000    0.0008989196    
0.0146330500    0.0297011490    0.0009148564    
0.0148557110    0.0285584140    0.0008933233    
0.0150783720    0.0275111670    0.0008695448    
0.0153010330    0.0277292850    0.0008606766    
0.0155236940    0.0269517310    0.0008434781    
0.0157463550    0.0266122000    0.0008236269    
0.0159690160    0.0249939390    0.0007951631    
0.0161916770    0.0262889520    0.0008109086    
0.0164143380    0.0263078860    0.0008173462    
0.0166369990    0.0254500390    0.0007791234    
0.0168596600    0.0248629540    0.0007632996    
0.0170823210    0.0261154420    0.0007755162    
0.0173049820    0.0251196840    0.0007619025    
0.0175276430    0.0255578670    0.0007766232    
0.0177503040    0.0244731060    0.0007405899    
0.0179729650    0.0243855330    0.0007319321    
0.0181956260    0.0235017770    0.0007047715    
0.0184182870    0.0231970220    0.0006968870    
0.0186409480    0.0247000970    0.0007236619    
0.0188636090    0.0226108300    0.0006880256    
0.0190862700    0.0228323660    0.0006903070    
0.0193089310    0.0228028560    0.0006887855    
0.0195315920    0.0223654640    0.0006589488    
0.0197542530    0.0245530250    0.0006914288    
0.0199769140    0.0226643380    0.0006643035    
0.0201995750    0.0221110150    0.0006458697    
0.0204222360    0.0214175330    0.0006411171    
0.0206448970    0.0231764030    0.0006621829    
0.0208675580    0.0232843250    0.0006500553    
0.0210902190    0.0219228050    0.0006368497    
0.0213128800    0.0220699680    0.0006303133    
0.0215355410    0.0221272500    0.0006236122    
0.0217582020    0.0222151350    0.0006248495    
0.0219808630    0.0206142710    0.0006011244    
0.0222035240    0.0218431720    0.0006131756    
0.0224261850    0.0216589810    0.0006051506    
0.0226488460    0.0211350560    0.0005932976    
0.0228715070    0.0212456150    0.0005933696    
0.0230941680    0.0216267860    0.0005986689    
0.0233168290    0.0228005730    0.0006162317    
0.0235394900    0.0214530370    0.0005911476    
0.0237621510    0.0204985970    0.0005622917    
0.0239848120    0.0214427240    0.0005757603    
0.0242074730    0.0205835700    0.0005595924    
0.0244301340    0.0211337580    0.0005676689    
0.0246527950    0.0221016270    0.0005858977    
0.0248754560    0.0222176070    0.0005742307    
0.0250981170    0.0213925260    0.0005647238    
0.0253207780    0.0205831360    0.0005373985    
0.0255434390    0.0215837860    0.0005561797    
0.0257661000    0.0205263950    0.0005441395    
0.0259887610    0.0207137130    0.0005408077    
0.0262114220    0.0206210690    0.0005424719    
0.0264340830    0.0207302290    0.0005365055    
0.0266567440    0.0212016720    0.0005392192    
0.0268794050    0.0211513790    0.0005363811    
0.0271020660    0.0215606360    0.0005393531    
0.0273247270    0.0215823800    0.0005363841    
0.0275473880    0.0207530250    0.0005249306    
0.0277700490    0.0202853420    0.0005159143    
0.0279927100    0.0209385750    0.0005195820    
0.0282153710    0.0207260600    0.0005194518    
0.0284380320    0.0207180940    0.0005163413    
0.0286606930    0.0209088640    0.0005142733    
0.0288833540    0.0213819870    0.0005210472    
0.0291060150    0.0205937150    0.0005108672    
0.0293286760    0.0202455900    0.0004994726    
0.0295513370    0.0199879000    0.0004908795    
0.0297739980    0.0200977440    0.0004976458    
0.0299966590    0.0210837840    0.0005010018    
0.0302193200    0.0205876070    0.0005022862    
0.0304419810    0.0191505870    0.0004853307    
0.0306646420    0.0207795460    0.0004912820    
0.0308873030    0.0201167910    0.0004812960    
0.0311099640    0.0202561200    0.0004842139    
0.0313326250    0.0208399200    0.0004857012    
0.0315552860    0.0202569080    0.0004850650    
0.0317779470    0.0201409490    0.0004840959    
0.0320006080    0.0201029180    0.0004726502    
0.0322232690    0.0200474590    0.0004739736    
0.0324459300    0.0201135390    0.0004712098    
0.0326685910    0.0208394880    0.0004788473    
0.0328912520    0.0204682480    0.0004761345    
0.0331139130    0.0198960350    0.0004633254    
0.0333365740    0.0198516950    0.0004643116    
0.0335592350    0.0209097830    0.0004719428    
0.0337818960    0.0203447500    0.0004651520    
0.0340045570    0.0204497960    0.0004656106    
0.0342272170    0.0196892730    0.0004550685    
0.0344498780    0.0193048850    0.0004523892    
0.0346725390    0.0199036250    0.0004508440    
0.0348952000    0.0197328150    0.0004468603    
0.0351178610    0.0209759350    0.0004628296    
0.0353405220    0.0198745110    0.0004484621    
0.0355631830    0.0203176470    0.0004517264    
0.0357858440    0.0199862300    0.0004480272    
0.0360085050    0.0199354190    0.0004488093    
0.0362311660    0.0192768420    0.0004360875    
0.0364538270    0.0191045560    0.0004306499    
0.0366764880    0.0200849660    0.0004412414    
0.0368991490    0.0197678230    0.0004355372    
0.0371218100    0.0205040440    0.0004423045    
0.0373444710    0.0206995470    0.0004492477    
0.0375671320    0.0201920990    0.0004430607    
0.0377897930    0.0191417460    0.0004202159    
0.0380124540    0.0191678590    0.0004231408    
0.0382351150    0.0204662810    0.0004372378    
0.0384577760    0.0201098990    0.0004292325    
0.0386804370    0.0200645250    0.0004320200    
0.0389030980    0.0201282500    0.0004294286    
0.0391257590    0.0195937980    0.0004208128    
0.0393484200    0.0196506500    0.0004200046    
0.0395710810    0.0201086840    0.0004254437    
0.0397937420    0.0201177000    0.0004255392    
0.0400164030    0.0202635680    0.0004288166    
0.0402390640    0.0196126600    0.0004162555    
0.0404617250    0.0203510330    0.0004215172    
0.0406843860    0.0196342990    0.0004100279    
0.0409070470    0.0199930510    0.0004180671    
0.0411297080    0.0201396600    0.0004155379    
0.0413523690    0.0207176100    0.0004225445    
0.0415750300    0.0202559300    0.0004213589    
0.0417976910    0.0193131980    0.0004007957    
0.0420203520    0.0188049590    0.0003969730    
0.0422430130    0.0196653270    0.0004074895    
0.0424656740    0.0195433460    0.0004009366    
0.0426883350    0.0190150990    0.0003974438    
0.0429109960    0.0193347260    0.0004020223    
0.0431336570    0.0199556570    0.0004026724    
0.0433563180    0.0201526500    0.0004081458    
0.0435789790    0.0202611750    0.0004028138    
0.0438016400    0.0189845100    0.0003920378    
0.0440243010    0.0195689670    0.0003939883    
0.0442469620    0.0195713850    0.0003963736    
0.0444696230    0.0200609140    0.0003998611    
0.0446922840    0.0197042580    0.0003951138    
0.0449149450    0.0194971620    0.0003877777    
0.0451376060    0.0191754980    0.0003893151    
0.0453602670    0.0202537680    0.0003959168    
0.0455829280    0.0202146770    0.0003950772    
0.0458055890    0.0203261340    0.0003984751    
0.0460282500    0.0194500320    0.0003850925    
0.0462509110    0.0195326280    0.0003835091    
0.0464735720    0.0198713040    0.0003870380    
0.0466962330    0.0194438100    0.0003845926    
0.0469188940    0.0193488540    0.0003825648    
0.0471415550    0.0194793370    0.0003858240    
0.0473642160    0.0187816390    0.0003735467    
0.0475868770    0.0199783860    0.0003833500    
0.0478095380    0.0194903820    0.0003769822    
0.0480321990    0.0195246170    0.0003781399    
0.0482548600    0.0203712390    0.0003845684    
0.0484775210    0.0194967530    0.0003799591    
0.0487001820    0.0190020210    0.0003696164    
0.0489228430    0.0194843340    0.0003740767    
0.0491455040    0.0193998980    0.0003706837    
0.0493681650    0.0199581150    0.0003792099    
0.0495908260    0.0196682600    0.0003701124    
0.0498134870    0.0190082090    0.0003673127    
0.0500361480    0.0194161080    0.0003702507    
0.0502588090    0.0197497250    0.0003678229    
0.0504814700    0.0191305010    0.0003667432    
0.0507041310    0.0199962910    0.0003704923    
0.0509267920    0.0194007260    0.0003664430    
0.0511494530    0.0196345780    0.0003661868    
0.0513721140    0.0196830700    0.0003698675    
0.0515947750    0.0201119890    0.0003689187    
0.0518174360    0.0194224680    0.0003603557    
0.0520400970    0.0196815400    0.0003602358    
0.0522627580    0.0199168980    0.0003654631    
0.0524854190    0.0191447920    0.0003612225    
0.0527080800    0.0197469420    0.0003696996    
0.0529307410    0.0194018790    0.0003681763    
0.0531534020    0.0197810540    0.0003704031    
0.0533760630    0.0198143610    0.0003718753    
0.0535987240    0.0199547470    0.0003714480    
0.0538213850    0.0194292480    0.0003707710    
0.0540440460    0.0198204890    0.0003727131    
0.0542667070    0.0190643100    0.0003680533    
0.0544893680    0.0194331770    0.0003717949    
0.0547120290    0.0198273340    0.0003729737    
0.0549346900    0.0202204440    0.0003768512    
0.0551573510    0.0201313210    0.0003804462    
0.0553800120    0.0190836890    0.0003672658    
0.0556026730    0.0190142750    0.0003741982    
0.0558253340    0.0196635130    0.0003837194    
0.0560479950    0.0197384130    0.0003844497    
0.0562706560    0.0199845190    0.0003905790    
0.0564933170    0.0203253400    0.0003973159    
0.0567159780    0.0194011450    0.0003835237    
0.0569386390    0.0191385720    0.0003868945    
0.0571613000    0.0199856180    0.0003868506    
0.0573839610    0.0202663460    0.0003863236    
0.0576066220    0.0200306710    0.0003851340    
0.0578292830    0.0191112240    0.0003749462    
0.0580519440    0.0192819610    0.0003780777    
0.0582746050    0.0197148230    0.0003806121    
0.0584972660    0.0195787680    0.0003778446    
0.0587199270    0.0192856720    0.0003717731    
0.0589425880    0.0187632350    0.0003645581    
0.0591652490    0.0195222150    0.0003740464    
0.0593879100    0.0194733870    0.0003708040    
0.0596105710    0.0190941260    0.0003667880    
0.0598332320    0.0194434430    0.0003732916    
0.0600558930    0.0200878350    0.0003770079    
0.0602785540    0.0198900520    0.0003747507    
0.0605012150    0.0198063250    0.0003731732    
0.0607238760    0.0191653290    0.0003644099    
0.0609465370    0.0191093200    0.0003667417    
0.0611691980    0.0199889880    0.0003756824    
0.0613918590    0.0195272860    0.0003672645    
0.0616145200    0.0189801120    0.0003647325    
0.0618371810    0.0193031850    0.0003642110    
0.0620598420    0.0196322230    0.0003676807    
0.0622825030    0.0189808750    0.0003670587    
0.0625051640    0.0198798380    0.0003703746    
0.0627278250    0.0192620390    0.0003638235    
0.0629504860    0.0197343610    0.0003652633    
0.0631731470    0.0199138910    0.0003714606    
0.0633958080    0.0195760430    0.0003704158    
0.0636184690    0.0184606410    0.0003647180    
0.0638411300    0.0194737070    0.0003731855    
0.0640637910    0.0199734310    0.0003806017    
0.0642864520    0.0197498800    0.0003776468    
0.0645091130    0.0194582350    0.0003781329    
0.0647317740    0.0196263610    0.0003801817    
0.0649544350    0.0196272910    0.0003797724    
0.0651770960    0.0194355460    0.0003758513    
0.0653997570    0.0199954200    0.0003803996    
0.0656224180    0.0202714520    0.0003838492    
0.0658450790    0.0193186740    0.0003693340    
0.0660677400    0.0192128580    0.0003698887    
0.0662904010    0.0198274620    0.0003802441    
0.0665130620    0.0193955720    0.0003744486    
0.0667357230    0.0192751650    0.0003799215    
0.0669583840    0.0197117170    0.0003829142    
0.0671810450    0.0195167210    0.0003789119    
0.0674037060    0.0193923880    0.0003841018    
0.0676263670    0.0189445380    0.0003768612    
0.0678490280    0.0194022350    0.0003790540    
0.0680716890    0.0191688300    0.0003776056    
0.0682943500    0.0189549700    0.0003713806    
0.0685170110    0.0198752110    0.0003764137    
0.0687396720    0.0191953690    0.0003689371    
0.0689623330    0.0194332560    0.0003700398    
0.0691849940    0.0202821490    0.0003806548    
0.0694076550    0.0194540810    0.0003726042    
0.0696303160    0.0194141670    0.0003692749    
0.0698529770    0.0194657710    0.0003689903    
0.0700756380    0.0192418630    0.0003621527    
0.0702982990    0.0190154630    0.0003639365    
0.0705209600    0.0203620600    0.0003738834    
0.0707436210    0.0194476280    0.0003637136    
0.0709662820    0.0189040880    0.0003628698    
0.0711889430    0.0195502080    0.0003644865    
0.0714116040    0.0190160310    0.0003602064    
0.0716342650    0.0190040470    0.0003586308    
0.0718569260    0.0197978670    0.0003645701    
0.0720795870    0.0196132020    0.0003643337    
0.0723022480    0.0192521370    0.0003615146    
0.0725249090    0.0193504330    0.0003580958    
0.0727475700    0.0194801870    0.0003623633    
0.0729702310    0.0197478060    0.0003619341    
0.0731928920    0.0191971950    0.0003582788    
0.0734155530    0.0193404380    0.0003588955    
0.0736382140    0.0196912960    0.0003598122    
0.0738608750    0.0192139500    0.0003577204    
0.0740835360    0.0200066750    0.0003641190    
0.0743061970    0.0196791060    0.0003560408    
0.0745288580    0.0190010510    0.0003534506    
0.0747515190    0.0187725440    0.0003520127    
0.0749741800    0.0188671950    0.0003496324    
0.0751968410    0.0193423290    0.0003567869    
0.0754195020    0.0197147500    0.0003580951    
0.0756421630    0.0196049010    0.0003541769    
0.0758648240    0.0192749400    0.0003520280    
0.0760874850    0.0190830090    0.0003501028    
0.0763101460    0.0199310940    0.0003574545    
0.0765328070    0.0188166310    0.0003508710    
0.0767554680    0.0198400530    0.0003578417    
0.0769781290    0.0194404210    0.0003521839    
0.0772007900    0.0190733350    0.0003460451    
0.0774234510    0.0195766730    0.0003525755    
0.0776461120    0.0197994040    0.0003542392    
0.0778687730    0.0199710130    0.0003545957    
0.0780914340    0.0193505730    0.0003515382    
0.0783140950    0.0190816060    0.0003435479    
0.0785367560    0.0191526510    0.0003497363    
0.0787594170    0.0191747870    0.0003468030    
0.0789820780    0.0195313280    0.0003482190    
0.0792047390    0.0191218390    0.0003456758    
0.0794274000    0.0198198940    0.0003534199    
0.0796500610    0.0193854540    0.0003461136    
0.0798727220    0.0192571590    0.0003446480    
0.0800953830    0.0192792060    0.0003440522    
0.0803180440    0.0195798760    0.0003491400    
0.0805407050    0.0197485430    0.0003503145    
0.0807633660    0.0195072120    0.0003478443    
0.0809860270    0.0197020360    0.0003482861    
0.0812086880    0.0190725440    0.0003397156    
0.0814313490    0.0195949660    0.0003459072    
0.0816540100    0.0197672200    0.0003466333    
0.0818766710    0.0193996230    0.0003441792    
0.0820993320    0.0200103900    0.0003489182    
0.0823219930    0.0200899140    0.0003510528    
0.0825446540    0.0187834020    0.0003369796    
0.0827673150    0.0189732430    0.0003364029    
0.0829899760    0.0189592400    0.0003356801    
0.0832126370    0.0195132480    0.0003420746    
0.0834352980    0.0200290470    0.0003457913    
0.0836579590    0.0187275340    0.0003336233    
0.0838806200    0.0186595240    0.0003340591    
0.0841032810    0.0192436860    0.0003371419    
0.0843259420    0.0190020680    0.0003339870    
0.0845486030    0.0192251670    0.0003359421    
0.0847712640    0.0195366580    0.0003365889    
0.0849939250    0.0193370780    0.0003354484    
0.0852165860    0.0195102950    0.0003373888    
0.0854392470    0.0193772220    0.0003330521    
0.0856619080    0.0199831970    0.0003407107    
0.0858845690    0.0194537140    0.0003331389    
0.0861072300    0.0196249060    0.0003369114    
0.0863298910    0.0196556320    0.0003389406    
0.0865525520    0.0187202510    0.0003279212    
0.0867752130    0.0194819080    0.0003318263    
0.0869978740    0.0188314850    0.0003270716    
0.0872205350    0.0198431850    0.0003353153    
0.0874431960    0.0192595920    0.0003303479    
0.0876658570    0.0196761360    0.0003351831    
0.0878885180    0.0192738510    0.0003323078    
0.0881111790    0.0190986940    0.0003303699    
0.0883338400    0.0193092400    0.0003273223    
0.0885565010    0.0190954680    0.0003299194    
0.0887791620    0.0192920320    0.0003273129    
0.0890018230    0.0195265570    0.0003324904    
0.0892244840    0.0197009390    0.0003345395    
0.0894471450    0.0193996680    0.0003305695    
0.0896698060    0.0188454880    0.0003245847    
0.0898924670    0.0193817180    0.0003306960    
0.0901151280    0.0194621890    0.0003278024    
0.0903377890    0.0199521220    0.0003346805    
0.0905604500    0.0190907770    0.0003258742    
0.0907831110    0.0198095430    0.0003311262    
0.0910057720    0.0193158810    0.0003284748    
0.0912284330    0.0190543530    0.0003215724    
0.0914510940    0.0196425970    0.0003301393    
0.0916737550    0.0201470440    0.0003335219    
0.0918964160    0.0195188490    0.0003296463    
0.0921190770    0.0193096200    0.0003249102    
0.0923417380    0.0193254670    0.0003251769    
0.0925643990    0.0193671170    0.0003247305    
0.0927870600    0.0194055180    0.0003263853    
0.0930097210    0.0195026950    0.0003244147    
0.0932323820    0.0200807030    0.0003316068    
