# Diamond Light Source Ltd.
# Data extracted from: /dls/b21/data/2018/cm19678-3/processed/b21-386631_00077.dat
q(1/A)          Column          Error           
0.0035000000    2.1336421000    0.0248906940    
0.0037226610    1.9039350000    0.0230176290    
0.0039453220    1.6256442000    0.0193487940    
0.0041679830    1.2898866000    0.0141540820    
0.0043906440    0.9764852300    0.0117794250    
0.0046133050    0.7897680700    0.0101696240    
0.0048359660    0.5970834300    0.0083641211    
0.0050586270    0.4627424800    0.0072374225    
0.0052812880    0.4247946400    0.0065562848    
0.0055039490    0.3824141800    0.0059148788    
0.0057266100    0.3282752400    0.0053016624    
0.0059492710    0.2643155400    0.0047572325    
0.0061719320    0.2212659700    0.0041942859    
0.0063945930    0.2008445100    0.0040444869    
0.0066172539    0.1812538300    0.0036078006    
0.0068399149    0.1718330000    0.0034574674    
0.0070625759    0.1476773000    0.0031723734    
0.0072852369    0.1254373700    0.0028800051    
0.0075078979    0.1195588200    0.0027978939    
0.0077305589    0.1020681500    0.0025359035    
0.0079532199    0.1045282500    0.0025307204    
0.0081758809    0.0901914300    0.0023726373    
0.0083985419    0.0812283730    0.0021001096    
0.0086212029    0.0783506420    0.0020625733    
0.0088438639    0.0684950870    0.0019130019    
0.0090665249    0.0639943600    0.0017859084    
0.0092891859    0.0616814770    0.0018300611    
0.0095118469    0.0637725370    0.0017895005    
0.0097345079    0.0558913480    0.0016270600    
0.0099571689    0.0527468650    0.0015480342    
0.0101798300    0.0503389640    0.0015122876    
0.0104024910    0.0497280930    0.0014979972    
0.0106251520    0.0484762580    0.0014840443    
0.0108478130    0.0441215070    0.0013787971    
0.0110704740    0.0421803150    0.0012835061    
0.0112931350    0.0421927290    0.0012874651    
0.0115157960    0.0407702340    0.0012581967    
0.0117384570    0.0399949970    0.0012354496    
0.0119611180    0.0376148520    0.0012015624    
0.0121837790    0.0346171860    0.0011333158    
0.0124064400    0.0365276240    0.0011156399    
0.0126291010    0.0359512520    0.0010929502    
0.0128517620    0.0328251280    0.0010469590    
0.0130744230    0.0325703310    0.0010351531    
0.0132970840    0.0310471790    0.0010057168    
0.0135197450    0.0309872800    0.0009903577    
0.0137424060    0.0321002110    0.0009939528    
0.0139650670    0.0307743760    0.0009515320    
0.0141877280    0.0307923490    0.0009539134    
0.0144103890    0.0285979900    0.0009034449    
0.0146330500    0.0275315070    0.0008808109    
0.0148557110    0.0287542040    0.0008963831    
0.0150783720    0.0279236010    0.0008760413    
0.0153010330    0.0264738890    0.0008409708    
0.0155236940    0.0289845150    0.0008747116    
0.0157463550    0.0264594250    0.0008212620    
0.0159690160    0.0255506480    0.0008039726    
0.0161916770    0.0252885820    0.0007953328    
0.0164143380    0.0268921130    0.0008263746    
0.0166369990    0.0252593850    0.0007762021    
0.0168596600    0.0246756430    0.0007604213    
0.0170823210    0.0257701650    0.0007703749    
0.0173049820    0.0237332840    0.0007405811    
0.0175276430    0.0239768790    0.0007522216    
0.0177503040    0.0242491490    0.0007371958    
0.0179729650    0.0241220600    0.0007279696    
0.0181956260    0.0241571070    0.0007145322    
0.0184182870    0.0237833800    0.0007056420    
0.0186409480    0.0233009280    0.0007028690    
0.0188636090    0.0243905420    0.0007145926    
0.0190862700    0.0224985820    0.0006852448    
0.0193089310    0.0228862250    0.0006900456    
0.0195315920    0.0226762410    0.0006635133    
0.0197542530    0.0224308210    0.0006608744    
0.0199769140    0.0228202530    0.0006665867    
0.0201995750    0.0221488890    0.0006464246    
0.0204222360    0.0219358400    0.0006488303    
0.0206448970    0.0227792390    0.0006564868    
0.0208675580    0.0230485440    0.0006467577    
0.0210902190    0.0217564420    0.0006344307    
0.0213128800    0.0224301430    0.0006354378    
0.0215355410    0.0220922400    0.0006231206    
0.0217582020    0.0212837820    0.0006116130    
0.0219808630    0.0219992140    0.0006209910    
0.0222035240    0.0214129870    0.0006071095    
0.0224261850    0.0209828000    0.0005956314    
0.0226488460    0.0214682910    0.0005979585    
0.0228715070    0.0224721050    0.0006102586    
0.0230941680    0.0213783390    0.0005952222    
0.0233168290    0.0223676880    0.0006103558    
0.0235394900    0.0208830440    0.0005832434    
0.0237621510    0.0207763630    0.0005660903    
0.0239848120    0.0200360110    0.0005565559    
0.0242074730    0.0216029980    0.0005732840    
0.0244301340    0.0220792770    0.0005802305    
0.0246527950    0.0211387960    0.0005729955    
0.0248754560    0.0214756730    0.0005645631    
0.0250981170    0.0208708900    0.0005577980    
0.0253207780    0.0205692370    0.0005372188    
0.0255434390    0.0215695920    0.0005559986    
0.0257661000    0.0212044930    0.0005530561    
0.0259887610    0.0207844440    0.0005417320    
0.0262114220    0.0206212010    0.0005424754    
0.0264340830    0.0207997870    0.0005374066    
0.0266567440    0.0213800890    0.0005414850    
0.0268794050    0.0203489810    0.0005261104    
0.0271020660    0.0205893250    0.0005270658    
0.0273247270    0.0202494410    0.0005195581    
0.0275473880    0.0215232690    0.0005345849    
0.0277700490    0.0200755320    0.0005132410    
0.0279927100    0.0206421630    0.0005158929    
0.0282153710    0.0207001550    0.0005191287    
0.0284380320    0.0203321730    0.0005115113    
0.0286606930    0.0200741550    0.0005039052    
0.0288833540    0.0204044380    0.0005089987    
0.0291060150    0.0196940540    0.0004995853    
0.0293286760    0.0199376600    0.0004956612    
0.0295513370    0.0206510800    0.0004989581    
0.0297739980    0.0205291570    0.0005029602    
0.0299966590    0.0206434300    0.0004957438    
0.0302193200    0.0205877390    0.0005022894    
0.0304419810    0.0203314860    0.0005000722    
0.0306646420    0.0197110760    0.0004784862    
0.0308873030    0.0198405570    0.0004779816    
0.0311099640    0.0199437250    0.0004804671    
0.0313326250    0.0212136120    0.0004900381    
0.0315552860    0.0210004150    0.0004938882    
0.0317779470    0.0219096760    0.0005049063    
0.0320006080    0.0202252870    0.0004740880    
0.0322232690    0.0203501500    0.0004775399    
0.0324459300    0.0200584720    0.0004705658    
0.0326685910    0.0210816860    0.0004816234    
0.0328912520    0.0209446450    0.0004816452    
0.0331139130    0.0200580070    0.0004652090    
0.0333365740    0.0198083830    0.0004638063    
0.0335592350    0.0197168910    0.0004582846    
0.0337818960    0.0200577340    0.0004618607    
0.0340045570    0.0200682800    0.0004612484    
0.0342272170    0.0199313100    0.0004578584    
0.0344498780    0.0200683040    0.0004612489    
0.0346725390    0.0200773610    0.0004528088    
0.0348952000    0.0208157230    0.0004589595    
0.0351178610    0.0198016540    0.0004496893    
0.0353405220    0.0196418900    0.0004458313    
0.0355631830    0.0197151740    0.0004449800    
0.0357858440    0.0202474860    0.0004509474    
0.0360085050    0.0203801300    0.0004537890    
0.0362311660    0.0203029660    0.0004475451    
0.0364538270    0.0201239820    0.0004419919    
0.0366764880    0.0198427550    0.0004385742    
0.0368991490    0.0204204830    0.0004426701    
0.0371218100    0.0196740850    0.0004332616    
0.0373444710    0.0194029030    0.0004349508    
0.0375671320    0.0191908800    0.0004319379    
0.0377897930    0.0199536680    0.0004290367    
0.0380124540    0.0196724030    0.0004286751    
0.0382351150    0.0201674960    0.0004340359    
0.0384577760    0.0198076900    0.0004259964    
0.0386804370    0.0196460580    0.0004274925    
0.0389030980    0.0202291580    0.0004305051    
0.0391257590    0.0202717570    0.0004280325    
0.0393484200    0.0197674770    0.0004212526    
0.0395710810    0.0202888380    0.0004273466    
0.0397937420    0.0197397750    0.0004215246    
0.0400164030    0.0202636970    0.0004288193    
0.0402390640    0.0199043260    0.0004193406    
0.0404617250    0.0198185930    0.0004159680    
0.0406843860    0.0198741820    0.0004125263    
0.0409070470    0.0196434940    0.0004143976    
0.0411297080    0.0193767230    0.0004075924    
0.0413523690    0.0201403350    0.0004166173    
0.0415750300    0.0201947040    0.0004207230    
0.0417976910    0.0200535820    0.0004084072    
0.0420203520    0.0202464660    0.0004119085    
0.0422430130    0.0200116460    0.0004110632    
0.0424656740    0.0193296110    0.0003987394    
0.0426883350    0.0196631830    0.0004041613    
0.0429109960    0.0192178210    0.0004008064    
0.0431336570    0.0199964120    0.0004030847    
0.0433563180    0.0198965300    0.0004055452    
0.0435789790    0.0187717390    0.0003877267    
0.0438016400    0.0201018510    0.0004034110    
0.0440243010    0.0200608970    0.0003989109    
0.0442469620    0.0197240360    0.0003979177    
0.0444696230    0.0202842090    0.0004020816    
0.0446922840    0.0203382200    0.0004014209    
0.0449149450    0.0198443500    0.0003912164    
0.0451376060    0.0200767010    0.0003983598    
0.0453602670    0.0195263980    0.0003887438    
0.0455829280    0.0197437960    0.0003904499    
0.0458055890    0.0205528060    0.0004006920    
0.0460282500    0.0197932600    0.0003884767    
0.0462509110    0.0200071410    0.0003881408    
0.0464735720    0.0194266610    0.0003826846    
0.0466962330    0.0194895780    0.0003850462    
0.0469188940    0.0194926950    0.0003839854    
0.0471415550    0.0196323010    0.0003873372    
0.0473642160    0.0197996000    0.0003835375    
0.0475868770    0.0193459100    0.0003772344    
0.0478095380    0.0198405050    0.0003803544    
0.0480321990    0.0202863980    0.0003854473    
0.0482548600    0.0194420980    0.0003756971    
0.0484775210    0.0190155650    0.0003752423    
0.0487001820    0.0203897380    0.0003828763    
0.0489228430    0.0188811800    0.0003682425    
0.0491455040    0.0197116690    0.0003736515    
0.0493681650    0.0201239610    0.0003807834    
0.0495908260    0.0195360570    0.0003688676    
0.0498134870    0.0192709550    0.0003698438    
0.0500361480    0.0199528270    0.0003753344    
0.0502588090    0.0198252060    0.0003685263    
0.0504814700    0.0194188840    0.0003694983    
0.0507041310    0.0196051400    0.0003668520    
0.0509267920    0.0197330800    0.0003695696    
0.0511494530    0.0192932310    0.0003629909    
0.0513721140    0.0197318480    0.0003703267    
0.0515947750    0.0201459540    0.0003692312    
0.0518174360    0.0193757910    0.0003599235    
0.0520400970    0.0199585940    0.0003627636    
0.0522627580    0.0197225490    0.0003636767    
0.0524854190    0.0199695970    0.0003689228    
0.0527080800    0.0195532660    0.0003678833    
0.0529307410    0.0196046160    0.0003700961    
0.0531534020    0.0193164750    0.0003660288    
0.0533760630    0.0204077360    0.0003774037    
0.0535987240    0.0191873800    0.0003642371    
0.0538213850    0.0198256010    0.0003745349    
0.0540440460    0.0198626680    0.0003731107    
0.0542667070    0.0195191930    0.0003724196    
0.0544893680    0.0199596790    0.0003767990    
0.0547120290    0.0197502840    0.0003722495    
0.0549346900    0.0189212310    0.0003645445    
0.0551573510    0.0192974330    0.0003724846    
0.0553800120    0.0201016150    0.0003769347    
0.0556026730    0.0192868720    0.0003768722    
0.0558253340    0.0198658170    0.0003856895    
0.0560479950    0.0199032770    0.0003860532    
0.0562706560    0.0196869380    0.0003876613    
0.0564933170    0.0193623980    0.0003877912    
0.0567159780    0.0191359140    0.0003808944    
0.0569386390    0.0193185840    0.0003887110    
0.0571613000    0.0200606270    0.0003875771    
0.0573839610    0.0195153200    0.0003790991    
0.0576066220    0.0190903510    0.0003759867    
0.0578292830    0.0193614560    0.0003773941    
0.0580519440    0.0197936050    0.0003830622    
0.0582746050    0.0189801390    0.0003734541    
0.0584972660    0.0196080610    0.0003781283    
0.0587199270    0.0196441340    0.0003752134    
0.0589425880    0.0199249970    0.0003756760    
0.0591652490    0.0197588440    0.0003763077    
0.0593879100    0.0192969930    0.0003691219    
0.0596105710    0.0197988330    0.0003734964    
0.0598332320    0.0191927290    0.0003708783    
0.0600558930    0.0197978590    0.0003742781    
0.0602785540    0.0193676820    0.0003697982    
0.0605012150    0.0196306760    0.0003715160    
0.0607238760    0.0195742590    0.0003682783    
0.0609465370    0.0195035960    0.0003705070    
0.0611691980    0.0195089820    0.0003711455    
0.0613918590    0.0195481330    0.0003674617    
0.0616145200    0.0197021560    0.0003716065    
0.0618371810    0.0197568570    0.0003684673    
0.0620598420    0.0195015120    0.0003664558    
0.0622825030    0.0198186030    0.0003750726    
0.0625051640    0.0191347250    0.0003633685    
0.0627278250    0.0191315940    0.0003625906    
0.0629504860    0.0199508290    0.0003672623    
0.0631731470    0.0192765480    0.0003654691    
0.0633958080    0.0192187090    0.0003670206    
0.0636184690    0.0197649730    0.0003773839    
0.0638411300    0.0196168640    0.0003745559    
0.0640637910    0.0197052130    0.0003780388    
0.0642864520    0.0195766970    0.0003759886    
0.0645091130    0.0192599550    0.0003762026    
0.0647317740    0.0194276440    0.0003782533    
0.0649544350    0.0193996180    0.0003775646    
0.0651770960    0.0196537220    0.0003779562    
0.0653997570    0.0190619890    0.0003714157    
0.0656224180    0.0196464990    0.0003778872    
0.0658450790    0.0194458950    0.0003705493    
0.0660677400    0.0201814630    0.0003790991    
0.0662904010    0.0203307530    0.0003850411    
0.0665130620    0.0191788240    0.0003723517    
0.0667357230    0.0193351960    0.0003805138    
0.0669583840    0.0194663750    0.0003805250    
0.0671810450    0.0194874200    0.0003786286    
0.0674037060    0.0189208220    0.0003794042    
0.0676263670    0.0191920570    0.0003793163    
0.0678490280    0.0196467400    0.0003814362    
0.0680716890    0.0201433930    0.0003870868    
0.0682943500    0.0191806600    0.0003735862    
0.0685170110    0.0194262190    0.0003721389    
0.0687396720    0.0188551210    0.0003656539    
0.0689623330    0.0197081820    0.0003726493    
0.0691849940    0.0202108370    0.0003799862    
0.0694076550    0.0188975550    0.0003672372    
0.0696303160    0.0199691860    0.0003745173    
0.0698529770    0.0197806510    0.0003719640    
0.0700756380    0.0194873680    0.0003644568    
0.0702982990    0.0194753020    0.0003683118    
0.0705209600    0.0196756700    0.0003675289    
0.0707436210    0.0189511840    0.0003590424    
0.0709662820    0.0195937880    0.0003694312    
0.0711889430    0.0198017630    0.0003668251    
0.0714116040    0.0194596580    0.0003643850    
0.0716342650    0.0199042950    0.0003670281    
0.0718569260    0.0196100170    0.0003628375    
0.0720795870    0.0197080770    0.0003652150    
0.0723022480    0.0201415570    0.0003697722    
0.0725249090    0.0198542020    0.0003627284    
0.0727475700    0.0193050560    0.0003607319    
0.0729702310    0.0192835880    0.0003576558    
0.0731928920    0.0200866390    0.0003664859    
0.0734155530    0.0196669010    0.0003619130    
0.0736382140    0.0194350070    0.0003574641    
0.0738608750    0.0193472720    0.0003589605    
0.0740835360    0.0192049400    0.0003567498    
0.0743061970    0.0193507080    0.0003530587    
0.0745288580    0.0192510150    0.0003557690    
0.0747515190    0.0198089890    0.0003616007    
0.0749741800    0.0189645030    0.0003505340    
0.0751968410    0.0197570740    0.0003605930    
0.0754195020    0.0189603640    0.0003511781    
0.0756421630    0.0198481690    0.0003563687    
0.0758648240    0.0195579530    0.0003546041    
0.0760874850    0.0194364040    0.0003533308    
0.0763101460    0.0189439560    0.0003484913    
0.0765328070    0.0193859650    0.0003561407    
0.0767554680    0.0195884660    0.0003555667    
0.0769781290    0.0197914580    0.0003553505    
0.0772007900    0.0198959140    0.0003534295    
0.0774234510    0.0189100570    0.0003465217    
0.0776461120    0.0194636230    0.0003512237    
0.0778687730    0.0198011460    0.0003530856    
0.0780914340    0.0189547420    0.0003479252    
0.0783140950    0.0197126310    0.0003491834    
0.0785367560    0.0191847050    0.0003500299    
0.0787594170    0.0191623650    0.0003466917    
0.0789820780    0.0190472020    0.0003438773    
0.0792047390    0.0195781390    0.0003497770    
0.0794274000    0.0197885100    0.0003531411    
0.0796500610    0.0192249070    0.0003446785    
0.0798727220    0.0193683110    0.0003456423    
0.0800953830    0.0195433460    0.0003464022    
0.0803180440    0.0196298070    0.0003495860    
0.0805407050    0.0198791670    0.0003514723    
0.0807633660    0.0198236710    0.0003506555    
0.0809860270    0.0193696880    0.0003453371    
0.0812086880    0.0197987830    0.0003461241    
0.0814313490    0.0200958080    0.0003503011    
0.0816540100    0.0197795040    0.0003467421    
0.0818766710    0.0192348770    0.0003427158    
0.0820993320    0.0197793230    0.0003468989    
0.0823219930    0.0199489520    0.0003498201    
0.0825446540    0.0199321770    0.0003471325    
0.0827673150    0.0189435420    0.0003361406    
0.0829899760    0.0197320010    0.0003424539    
0.0832126370    0.0196333070    0.0003431264    
0.0834352980    0.0197605270    0.0003434666    
0.0836579590    0.0202669940    0.0003470661    
0.0838806200    0.0198198900    0.0003442905    
0.0841032810    0.0192142750    0.0003368852    
0.0843259420    0.0193896300    0.0003373768    
0.0845486030    0.0194601030    0.0003379896    
0.0847712640    0.0195425820    0.0003366410    
0.0849939250    0.0194303090    0.0003362571    
0.0852165860    0.0203214090    0.0003443318    
0.0854392470    0.0196063260    0.0003350163    
0.0856619080    0.0192223320    0.0003341625    
0.0858845690    0.0198988230    0.0003369296    
0.0861072300    0.0195614070    0.0003363669    
0.0863298910    0.0192290930    0.0003352439    
0.0865525520    0.0197485840    0.0003368085    
0.0867752130    0.0193746470    0.0003309127    
0.0869978740    0.0195189740    0.0003329894    
0.0872205350    0.0194920020    0.0003323359    
0.0874431960    0.0185627620    0.0003243177    
0.0876658570    0.0194535760    0.0003332832    
0.0878885180    0.0192911630    0.0003324580    
0.0881111790    0.0196588650    0.0003351809    
0.0883338400    0.0196478320    0.0003301807    
0.0885565010    0.0193463970    0.0003320811    
0.0887791620    0.0195476080    0.0003294749    
0.0890018230    0.0195153590    0.0003323961    
0.0892244840    0.0191329840    0.0003296831    
0.0894471450    0.0195969450    0.0003322471    
0.0896698060    0.0202208740    0.0003362216    
0.0898924670    0.0191843560    0.0003290090    
0.0901151280    0.0194457490    0.0003276650    
0.0903377890    0.0197445300    0.0003329359    
0.0905604500    0.0192800280    0.0003274865    
0.0907831110    0.0191344030    0.0003254357    
0.0910057720    0.0195170970    0.0003301823    
0.0912284330    0.0190707560    0.0003217118    
0.0914510940    0.0194818080    0.0003287864    
0.0916737550    0.0194238840    0.0003274826    
0.0918964160    0.0198140410    0.0003321307    
0.0921190770    0.0193370800    0.0003251422    
0.0923417380    0.0197633160    0.0003288410    
0.0925643990    0.0193726860    0.0003247782    
0.0927870600    0.0193232990    0.0003256941    
0.0930097210    0.0194488550    0.0003239676    
0.0932323820    0.0187282370    0.0003202461    
