# Diamond Light Source Ltd.
# Data extracted from: /dls/b21/data/2018/cm19678-3/processed/b21-386631_00088.dat
q(1/A)          Column          Error           
0.0035000000    2.1339045000    0.0249005340    
0.0037226610    1.8703991000    0.0228216270    
0.0039453220    1.6172813000    0.0193054040    
0.0041679830    1.2899708000    0.0141592690    
0.0043906440    0.9816873600    0.0118147030    
0.0046133050    0.7914747700    0.0101840050    
0.0048359660    0.5980683500    0.0083738110    
0.0050586270    0.4564817500    0.0071906954    
0.0052812880    0.4235594200    0.0065489310    
0.0055039490    0.3880708500    0.0059604536    
0.0057266100    0.3183842800    0.0052229246    
0.0059492710    0.2668053700    0.0047811818    
0.0061719320    0.2283353800    0.0042621847    
0.0063945930    0.1991041300    0.0040282696    
0.0066172539    0.1819497400    0.0036159265    
0.0068399149    0.1732008000    0.0034723597    
0.0070625759    0.1485942300    0.0031832690    
0.0072852369    0.1310792500    0.0029450436    
0.0075078979    0.1176730700    0.0027766677    
0.0077305589    0.1001187900    0.0025124091    
0.0079532199    0.0998157190    0.0024738407    
0.0081758809    0.0949984530    0.0024358578    
0.0083985419    0.0825322760    0.0021176049    
0.0086212029    0.0791636240    0.0020739386    
0.0088438639    0.0668299750    0.0018902371    
0.0090665249    0.0682763060    0.0018453056    
0.0092891859    0.0631896630    0.0018529179    
0.0095118469    0.0612524650    0.0017543721    
0.0097345079    0.0558338730    0.0016267661    
0.0099571689    0.0561008560    0.0015970257    
0.0101798300    0.0490996230    0.0014940540    
0.0104024910    0.0480453910    0.0014729260    
0.0106251520    0.0465082710    0.0014540936    
0.0108478130    0.0447977110    0.0013897864    
0.0110704740    0.0430292000    0.0012967899    
0.0112931350    0.0429285150    0.0012990760    
0.0115157960    0.0404089100    0.0012530271    
0.0117384570    0.0397543820    0.0012321388    
0.0119611180    0.0390994770    0.0012254541    
0.0121837790    0.0377590410    0.0011840239    
0.0124064400    0.0355291040    0.0011006529    
0.0126291010    0.0336145890    0.0010571880    
0.0128517620    0.0354534250    0.0010884300    
0.0130744230    0.0337772450    0.0010545096    
0.0132970840    0.0331869180    0.0010401430    
0.0135197450    0.0305962200    0.0009844172    
0.0137424060    0.0304893850    0.0009690163    
0.0139650670    0.0297939420    0.0009365646    
0.0141877280    0.0306354840    0.0009517982    
0.0144103890    0.0287313250    0.0009058508    
0.0146330500    0.0278318740    0.0008858983    
0.0148557110    0.0270676920    0.0008699886    
0.0150783720    0.0278597390    0.0008753310    
0.0153010330    0.0262509770    0.0008377023    
0.0155236940    0.0261510290    0.0008311343    
0.0157463550    0.0270127570    0.0008300819    
0.0159690160    0.0273903570    0.0008326914    
0.0161916770    0.0250801970    0.0007923135    
0.0164143380    0.0256649390    0.0008075688    
0.0166369990    0.0259922920    0.0007876452    
0.0168596600    0.0254659470    0.0007727605    
0.0170823210    0.0254416970    0.0007657051    
0.0173049820    0.0240728780    0.0007461096    
0.0175276430    0.0255514820    0.0007767879    
0.0177503040    0.0245568830    0.0007421064    
0.0179729650    0.0249075990    0.0007399748    
0.0181956260    0.0234118760    0.0007036593    
0.0184182870    0.0238621110    0.0007070449    
0.0186409480    0.0241014810    0.0007150799    
0.0188636090    0.0230869740    0.0006954665    
0.0190862700    0.0220750280    0.0006789906    
0.0193089310    0.0236301910    0.0007014057    
0.0195315920    0.0231382160    0.0006704617    
0.0197542530    0.0234394930    0.0006757956    
0.0199769140    0.0230303330    0.0006698714    
0.0201995750    0.0219182550    0.0006432649    
0.0204222360    0.0224882060    0.0006571679    
0.0206448970    0.0229080430    0.0006585599    
0.0208675580    0.0219561390    0.0006314556    
0.0210902190    0.0216043550    0.0006324204    
0.0213128800    0.0218506670    0.0006273852    
0.0215355410    0.0223356240    0.0006267527    
0.0217582020    0.0218783680    0.0006203042    
0.0219808630    0.0227506240    0.0006317181    
0.0222035240    0.0218923460    0.0006140723    
0.0224261850    0.0213351960    0.0006008127    
0.0226488460    0.0225159260    0.0006125790    
0.0228715070    0.0215916060    0.0005983833    
0.0230941680    0.0207624430    0.0005867813    
0.0233168290    0.0209160040    0.0005904143    
0.0235394900    0.0209458890    0.0005843153    
0.0237621510    0.0220558630    0.0005834558    
0.0239848120    0.0205289660    0.0005635489    
0.0242074730    0.0229114240    0.0005905869    
0.0244301340    0.0215752370    0.0005737608    
0.0246527950    0.0209197780    0.0005702096    
0.0248754560    0.0205098190    0.0005519058    
0.0250981170    0.0204074590    0.0005517545    
0.0253207780    0.0215236660    0.0005497246    
0.0255434390    0.0220285820    0.0005620707    
0.0257661000    0.0209588310    0.0005500267    
0.0259887610    0.0200918580    0.0005328075    
0.0262114220    0.0199209570    0.0005333632    
0.0264340830    0.0206747320    0.0005359675    
0.0266567440    0.0201043900    0.0005252573    
0.0268794050    0.0211520260    0.0005365701    
0.0271020660    0.0200765200    0.0005206345    
0.0273247270    0.0201695840    0.0005187057    
0.0275473880    0.0191327590    0.0005041925    
0.0277700490    0.0209029980    0.0005238863    
0.0279927100    0.0201914770    0.0005104003    
0.0282153710    0.0200625940    0.0005112422    
0.0284380320    0.0212471430    0.0005230685    
0.0286606930    0.0212140830    0.0005181879    
0.0288833540    0.0203037110    0.0005079103    
0.0291060150    0.0195423430    0.0004978234    
0.0293286760    0.0207278030    0.0005055562    
0.0295513370    0.0209423310    0.0005026320    
0.0297739980    0.0208388010    0.0005069083    
0.0299966590    0.0200615620    0.0004888704    
0.0302193200    0.0207609020    0.0005045657    
0.0304419810    0.0196312000    0.0004915486    
0.0306646420    0.0200380580    0.0004825997    
0.0308873030    0.0200957840    0.0004812068    
0.0311099640    0.0195400640    0.0004757387    
0.0313326250    0.0202536100    0.0004789815    
0.0315552860    0.0203635480    0.0004865040    
0.0317779470    0.0206901180    0.0004908166    
0.0320006080    0.0201275900    0.0004730995    
0.0322232690    0.0205880090    0.0004804830    
0.0324459300    0.0198951180    0.0004688022    
0.0326685910    0.0200718040    0.0004701030    
0.0328912520    0.0210583810    0.0004831124    
0.0331139130    0.0201685720    0.0004666451    
0.0333365740    0.0204845030    0.0004718128    
0.0335592350    0.0204442180    0.0004668165    
0.0337818960    0.0208905740    0.0004715092    
0.0340045570    0.0196467360    0.0004565306    
0.0342272170    0.0203550880    0.0004628548    
0.0344498780    0.0194027660    0.0004536875    
0.0346725390    0.0204688740    0.0004573551    
0.0348952000    0.0200296510    0.0004503604    
0.0351178610    0.0191608520    0.0004425009    
0.0353405220    0.0198777830    0.0004486501    
0.0355631830    0.0206730470    0.0004558137    
0.0357858440    0.0200600040    0.0004490046    
0.0360085050    0.0206262890    0.0004566737    
0.0362311660    0.0200104910    0.0004444582    
0.0364538270    0.0198751380    0.0004393972    
0.0366764880    0.0199627050    0.0004400446    
0.0368991490    0.0197331360    0.0004353015    
0.0371218100    0.0190379830    0.0004263422    
0.0373444710    0.0203134760    0.0004451884    
0.0375671320    0.0202835380    0.0004442124    
0.0377897930    0.0202531570    0.0004323888    
0.0380124540    0.0198631380    0.0004308920    
0.0382351150    0.0205081200    0.0004378320    
0.0384577760    0.0196833980    0.0004247995    
0.0386804370    0.0193892350    0.0004248308    
0.0389030980    0.0199859650    0.0004280523    
0.0391257590    0.0198511890    0.0004237106    
0.0393484200    0.0204544050    0.0004286525    
0.0395710810    0.0194106660    0.0004181353    
0.0397937420    0.0199240940    0.0004236293    
0.0400164030    0.0196779010    0.0004227166    
0.0402390640    0.0200679050    0.0004212007    
0.0404617250    0.0198230900    0.0004161540    
0.0406843860    0.0202387600    0.0004164319    
0.0409070470    0.0196741070    0.0004148588    
0.0411297080    0.0198529540    0.0004127085    
0.0413523690    0.0191189290    0.0004060511    
0.0415750300    0.0204537740    0.0004235544    
0.0417976910    0.0188684480    0.0003962875    
0.0420203520    0.0191530660    0.0004007654    
0.0422430130    0.0196447870    0.0004074139    
0.0424656740    0.0195071350    0.0004007000    
0.0426883350    0.0200337610    0.0004080881    
0.0429109960    0.0196070680    0.0004049803    
0.0431336570    0.0192373430    0.0003954920    
0.0433563180    0.0198601850    0.0004053099    
0.0435789790    0.0202507920    0.0004028463    
0.0438016400    0.0198317310    0.0004008251    
0.0440243010    0.0202330450    0.0004007526    
0.0442469620    0.0196970410    0.0003977780    
0.0444696230    0.0194762720    0.0003941241    
0.0446922840    0.0196778990    0.0003949825    
0.0449149450    0.0194871520    0.0003878088    
0.0451376060    0.0200821970    0.0003985473    
0.0453602670    0.0201589980    0.0003951226    
0.0455829280    0.0201046780    0.0003941336    
0.0458055890    0.0204023730    0.0003993562    
0.0460282500    0.0195165510    0.0003858805    
0.0462509110    0.0199225450    0.0003874486    
0.0464735720    0.0195829590    0.0003843492    
0.0466962330    0.0201496330    0.0003916428    
0.0469188940    0.0192559290    0.0003817736    
0.0471415550    0.0197907050    0.0003890265    
0.0473642160    0.0191362850    0.0003771841    
0.0475868770    0.0193514670    0.0003774145    
0.0478095380    0.0189927670    0.0003722641    
0.0480321990    0.0195817510    0.0003788203    
0.0482548600    0.0195713160    0.0003770694    
0.0484775210    0.0196284530    0.0003813687    
0.0487001820    0.0197702440    0.0003771409    
0.0489228430    0.0197202560    0.0003764614    
0.0491455040    0.0196043410    0.0003727573    
0.0493681650    0.0198345800    0.0003781618    
0.0495908260    0.0196745500    0.0003702963    
0.0498134870    0.0197739090    0.0003747640    
0.0500361480    0.0199025630    0.0003749865    
0.0502588090    0.0191735060    0.0003625395    
0.0504814700    0.0200228260    0.0003753254    
0.0507041310    0.0192129520    0.0003632853    
0.0509267920    0.0192822090    0.0003654451    
0.0511494530    0.0193676200    0.0003638114    
0.0513721140    0.0195502860    0.0003687421    
0.0515947750    0.0195567230    0.0003639129    
0.0518174360    0.0193887290    0.0003601639    
0.0520400970    0.0196024360    0.0003596323    
0.0522627580    0.0194471650    0.0003612494    
0.0524854190    0.0197851480    0.0003673376    
0.0527080800    0.0194139470    0.0003666927    
0.0529307410    0.0196946120    0.0003710684    
0.0531534020    0.0199817830    0.0003724032    
0.0533760630    0.0193458190    0.0003675761    
0.0535987240    0.0191033260    0.0003635597    
0.0538213850    0.0198671600    0.0003750524    
0.0540440460    0.0197847570    0.0003725025    
0.0542667070    0.0195037850    0.0003723969    
0.0544893680    0.0188341320    0.0003661430    
0.0547120290    0.0195739110    0.0003707074    
0.0549346900    0.0194820620    0.0003700312    
0.0551573510    0.0194901830    0.0003744652    
0.0553800120    0.0201221100    0.0003772527    
0.0556026730    0.0191965830    0.0003761145    
0.0558253340    0.0194294980    0.0003815578    
0.0560479950    0.0193695730    0.0003809691    
0.0562706560    0.0196313360    0.0003872427    
0.0564933170    0.0195385360    0.0003896812    
0.0567159780    0.0194293970    0.0003839322    
0.0569386390    0.0206306840    0.0004018287    
0.0571613000    0.0199466390    0.0003866034    
0.0573839610    0.0191672610    0.0003758286    
0.0576066220    0.0189623070    0.0003748487    
0.0578292830    0.0198381330    0.0003821390    
0.0580519440    0.0197623110    0.0003828870    
0.0582746050    0.0193531100    0.0003772314    
0.0584972660    0.0193657650    0.0003759103    
0.0587199270    0.0198078540    0.0003768995    
0.0589425880    0.0198107190    0.0003747221    
0.0591652490    0.0194278020    0.0003732666    
0.0593879100    0.0193593360    0.0003698411    
0.0596105710    0.0199671650    0.0003752060    
0.0598332320    0.0191625140    0.0003707100    
0.0600558930    0.0198464810    0.0003748625    
0.0602785540    0.0196844300    0.0003729343    
0.0605012150    0.0189613170    0.0003652491    
0.0607238760    0.0193793220    0.0003665622    
0.0609465370    0.0193546270    0.0003692125    
0.0611691980    0.0200236600    0.0003761348    
0.0613918590    0.0195680980    0.0003677720    
0.0616145200    0.0197924610    0.0003725815    
0.0618371810    0.0187798280    0.0003593608    
0.0620598420    0.0186531930    0.0003585164    
0.0622825030    0.0194553720    0.0003717436    
0.0625051640    0.0192994110    0.0003650507    
0.0627278250    0.0191031100    0.0003624415    
0.0629504860    0.0199506210    0.0003673830    
0.0631731470    0.0203502680    0.0003756350    
0.0633958080    0.0191824460    0.0003667966    
0.0636184690    0.0194248600    0.0003742477    
0.0638411300    0.0190216690    0.0003689531    
0.0640637910    0.0191014910    0.0003723268    
0.0642864520    0.0196331250    0.0003766558    
0.0645091130    0.0196331240    0.0003799564    
0.0647317740    0.0191532070    0.0003756976    
0.0649544350    0.0196993480    0.0003805971    
0.0651770960    0.0195286540    0.0003768775    
0.0653997570    0.0196612970    0.0003773351    
0.0656224180    0.0195286990    0.0003768783    
0.0658450790    0.0193882230    0.0003701229    
0.0660677400    0.0195393520    0.0003731440    
0.0662904010    0.0188557190    0.0003709342    
0.0665130620    0.0192784360    0.0003734420    
0.0667357230    0.0196328570    0.0003835596    
0.0669583840    0.0199185340    0.0003850475    
0.0671810450    0.0199936470    0.0003836429    
0.0674037060    0.0198774650    0.0003890071    
0.0676263670    0.0200675910    0.0003880014    
0.0678490280    0.0198969920    0.0003839859    
0.0680716890    0.0195911420    0.0003818711    
0.0682943500    0.0192153110    0.0003740483    
0.0685170110    0.0201311540    0.0003789572    
0.0687396720    0.0196482480    0.0003733897    
0.0689623330    0.0190938120    0.0003669174    
0.0691849940    0.0199741190    0.0003778805    
0.0694076550    0.0192101080    0.0003703852    
0.0696303160    0.0194694270    0.0003699247    
0.0698529770    0.0186109870    0.0003609194    
0.0700756380    0.0196981800    0.0003665452    
0.0702982990    0.0195440670    0.0003690846    
0.0705209600    0.0203276980    0.0003736936    
0.0707436210    0.0192020780    0.0003615320    
0.0709662820    0.0196765720    0.0003703344    
0.0711889430    0.0192369910    0.0003616768    
0.0714116040    0.0192405090    0.0003624483    
0.0716342650    0.0189626790    0.0003583610    
0.0718569260    0.0198313670    0.0003650014    
0.0720795870    0.0198025060    0.0003662111    
0.0723022480    0.0199376280    0.0003680183    
0.0725249090    0.0197083070    0.0003615138    
0.0727475700    0.0191897900    0.0003597734    
0.0729702310    0.0191836190    0.0003568467    
0.0731928920    0.0192703560    0.0003590819    
0.0734155530    0.0195400800    0.0003608647    
0.0736382140    0.0195729880    0.0003588506    
0.0738608750    0.0200666210    0.0003656949    
0.0740835360    0.0189193510    0.0003542055    
0.0743061970    0.0194087500    0.0003537058    
0.0745288580    0.0198954710    0.0003617956    
0.0747515190    0.0195183770    0.0003590583    
0.0749741800    0.0190484840    0.0003514265    
0.0751968410    0.0199414950    0.0003623930    
0.0754195020    0.0192529010    0.0003539950    
0.0756421630    0.0199894780    0.0003577544    
0.0758648240    0.0192750670    0.0003521478    
0.0760874850    0.0199121560    0.0003577483    
0.0763101460    0.0192645300    0.0003515449    
0.0765328070    0.0199619550    0.0003615134    
0.0767554680    0.0189492370    0.0003498337    
0.0769781290    0.0201430510    0.0003586126    
0.0772007900    0.0194317300    0.0003493989    
0.0774234510    0.0196470570    0.0003533278    
0.0776461120    0.0192546450    0.0003494497    
0.0778687730    0.0195308560    0.0003507845    
0.0780914340    0.0195106030    0.0003531078    
0.0783140950    0.0196948460    0.0003491423    
0.0785367560    0.0194659220    0.0003527037    
0.0787594170    0.0197149510    0.0003517724    
0.0789820780    0.0197370820    0.0003501663    
0.0792047390    0.0195536920    0.0003496752    
0.0794274000    0.0191143390    0.0003471893    
0.0796500610    0.0194789120    0.0003470639    
0.0798727220    0.0201651340    0.0003527984    
0.0800953830    0.0192491950    0.0003439002    
0.0803180440    0.0200167090    0.0003531322    
0.0805407050    0.0200416810    0.0003530238    
0.0807633660    0.0193341580    0.0003464146    
0.0809860270    0.0194442320    0.0003461165    
0.0812086880    0.0192852170    0.0003417195    
0.0814313490    0.0193026570    0.0003434332    
0.0816540100    0.0198474540    0.0003474532    
0.0818766710    0.0190338560    0.0003410341    
0.0820993320    0.0196464150    0.0003458469    
0.0823219930    0.0189310110    0.0003408918    
0.0825446540    0.0194675690    0.0003431774    
0.0827673150    0.0192844620    0.0003392650    
0.0829899760    0.0195667560    0.0003411308    
0.0832126370    0.0191303540    0.0003388160    
0.0834352980    0.0196303480    0.0003424477    
0.0836579590    0.0199534210    0.0003444856    
0.0838806200    0.0191389050    0.0003384370    
0.0841032810    0.0195521870    0.0003399481    
0.0843259420    0.0191617340    0.0003355002    
0.0845486030    0.0188797990    0.0003330231    
0.0847712640    0.0196194620    0.0003374151    
0.0849939250    0.0192627670    0.0003349160    
0.0852165860    0.0193366200    0.0003359970    
0.0854392470    0.0199803000    0.0003383092    
0.0856619080    0.0191189080    0.0003333736    
0.0858845690    0.0194953720    0.0003336078    
0.0861072300    0.0192850770    0.0003340942    
0.0863298910    0.0193179650    0.0003361299    
0.0865525520    0.0194743680    0.0003345736    
0.0867752130    0.0195233200    0.0003322908    
0.0869978740    0.0193159950    0.0003313641    
0.0872205350    0.0194483170    0.0003320741    
0.0874431960    0.0195390680    0.0003328482    
0.0876658570    0.0195008480    0.0003337992    
0.0878885180    0.0195219100    0.0003345521    
0.0881111790    0.0192545340    0.0003318268    
0.0883338400    0.0192722850    0.0003271191    
0.0885565010    0.0194220590    0.0003328409    
0.0887791620    0.0194439630    0.0003287099    
0.0890018230    0.0195680470    0.0003329556    
0.0892244840    0.0199870820    0.0003370738    
0.0894471450    0.0198298610    0.0003343272    
0.0896698060    0.0195854440    0.0003310071    
0.0898924670    0.0199650520    0.0003357487    
0.0901151280    0.0193979600    0.0003273713    
0.0903377890    0.0193195280    0.0003294431    
0.0905604500    0.0194932890    0.0003294026    
0.0907831110    0.0197287390    0.0003305616    
0.0910057720    0.0194239260    0.0003295032    
0.0912284330    0.0194799310    0.0003252533    
0.0914510940    0.0190839310    0.0003255203    
0.0916737550    0.0196689030    0.0003296516    
0.0918964160    0.0193760190    0.0003285487    
0.0921190770    0.0199736550    0.0003305610    
0.0923417380    0.0189771300    0.0003223415    
0.0925643990    0.0191186470    0.0003227494    
0.0927870600    0.0192702820    0.0003253556    
0.0930097210    0.0196238430    0.0003255304    
0.0932323820    0.0192448790    0.0003247416    
