# Diamond Light Source Ltd.
# Data extracted from: /dls/b21/data/2018/cm19678-3/processed/b21-386631_00092.dat
q(1/A)          Column          Error           
0.0035000000    2.1309328000    0.0248861960    
0.0037226610    1.8956399000    0.0229778760    
0.0039453220    1.6008455000    0.0192093780    
0.0041679830    1.3395621000    0.0144306140    
0.0043906440    0.9742444900    0.0117712520    
0.0046133050    0.7629616400    0.0100000900    
0.0048359660    0.5958674400    0.0083593991    
0.0050586270    0.4761927000    0.0073451900    
0.0052812880    0.4258900100    0.0065677173    
0.0055039490    0.3827620300    0.0059202591    
0.0057266100    0.3167472400    0.0052101095    
0.0059492710    0.2664413600    0.0047784966    
0.0061719320    0.2285497300    0.0042647001    
0.0063945930    0.2040434300    0.0040784222    
0.0066172539    0.1851563300    0.0036480908    
0.0068399149    0.1699700000    0.0034402371    
0.0070625759    0.1438554400    0.0031324777    
0.0072852369    0.1255514700    0.0028826248    
0.0075078979    0.1167840200    0.0027664929    
0.0077305589    0.1040528600    0.0025616043    
0.0079532199    0.0986746390    0.0024599571    
0.0081758809    0.0930222810    0.0024106804    
0.0083985419    0.0825522260    0.0021181168    
0.0086212029    0.0714655660    0.0019707610    
0.0088438639    0.0702151740    0.0019377539    
0.0090665249    0.0656488960    0.0018096704    
0.0092891859    0.0624984340    0.0018429783    
0.0095118469    0.0631269010    0.0017812286    
0.0097345079    0.0546621540    0.0016098006    
0.0099571689    0.0533405270    0.0015574291    
0.0101798300    0.0517944340    0.0015346920    
0.0104024910    0.0448953600    0.0014239943    
0.0106251520    0.0488386680    0.0014902587    
0.0108478130    0.0485605540    0.0014471530    
0.0110704740    0.0440168850    0.0013117471    
0.0112931350    0.0408941830    0.0012680748    
0.0115157960    0.0391750260    0.0012338973    
0.0117384570    0.0385798580    0.0012139476    
0.0119611180    0.0372648920    0.0011965036    
0.0121837790    0.0367654740    0.0011684835    
0.0124064400    0.0372429550    0.0011270231    
0.0126291010    0.0332901450    0.0010522009    
0.0128517620    0.0334231810    0.0010569338    
0.0130744230    0.0323035940    0.0010313744    
0.0132970840    0.0330319000    0.0010378362    
0.0135197450    0.0320292500    0.0010073287    
0.0137424060    0.0312668760    0.0009814122    
0.0139650670    0.0311851900    0.0009582976    
0.0141877280    0.0303471090    0.0009474224    
0.0144103890    0.0295095760    0.0009181483    
0.0146330500    0.0300950240    0.0009213242    
0.0148557110    0.0283608200    0.0008906351    
0.0150783720    0.0297370760    0.0009044518    
0.0153010330    0.0281290260    0.0008672550    
0.0155236940    0.0283767620    0.0008658860    
0.0157463550    0.0264069510    0.0008208203    
0.0159690160    0.0263588300    0.0008169599    
0.0161916770    0.0258373450    0.0008042814    
0.0164143380    0.0271453270    0.0008306335    
0.0166369990    0.0261179440    0.0007896422    
0.0168596600    0.0245808140    0.0007593039    
0.0170823210    0.0246641270    0.0007540044    
0.0173049820    0.0245875650    0.0007541346    
0.0175276430    0.0260300730    0.0007841237    
0.0177503040    0.0248320010    0.0007463421    
0.0179729650    0.0229565920    0.0007104887    
0.0181956260    0.0240944650    0.0007139296    
0.0184182870    0.0239726550    0.0007087664    
0.0186409480    0.0224732730    0.0006905869    
0.0188636090    0.0235116570    0.0007019187    
0.0190862700    0.0230621780    0.0006940900    
0.0193089310    0.0240940430    0.0007083420    
0.0195315920    0.0233769960    0.0006739938    
0.0197542530    0.0231528250    0.0006717316    
0.0199769140    0.0220419650    0.0006554190    
0.0201995750    0.0235286360    0.0006665577    
0.0204222360    0.0233772530    0.0006701132    
0.0206448970    0.0223076010    0.0006499504    
0.0208675580    0.0221249310    0.0006339548    
0.0210902190    0.0221465760    0.0006403848    
0.0213128800    0.0218559490    0.0006275369    
0.0215355410    0.0222002930    0.0006249266    
0.0217582020    0.0214790550    0.0006146917    
0.0219808630    0.0216683210    0.0006165833    
0.0222035240    0.0221388390    0.0006175943    
0.0224261850    0.0214249700    0.0006021482    
0.0226488460    0.0217545410    0.0006022054    
0.0228715070    0.0217461120    0.0006005930    
0.0230941680    0.0220281070    0.0006044747    
0.0233168290    0.0212878030    0.0005957107    
0.0235394900    0.0211792120    0.0005876317    
0.0237621510    0.0210731490    0.0005703785    
0.0239848120    0.0218027930    0.0005808402    
0.0242074730    0.0223535550    0.0005834230    
0.0244301340    0.0210157590    0.0005663411    
0.0246527950    0.0212823910    0.0005751998    
0.0248754560    0.0223865080    0.0005766732    
0.0250981170    0.0206362120    0.0005549053    
0.0253207780    0.0203211180    0.0005342116    
0.0255434390    0.0200829880    0.0005367404    
0.0257661000    0.0199965560    0.0005373167    
0.0259887610    0.0211425350    0.0005466272    
0.0262114220    0.0215826820    0.0005552303    
0.0264340830    0.0208187070    0.0005378954    
0.0266567440    0.0221133120    0.0005509422    
0.0268794050    0.0210209930    0.0005349702    
0.0271020660    0.0216344040    0.0005405224    
0.0273247270    0.0211351480    0.0005310406    
0.0275473880    0.0201872820    0.0005179633    
0.0277700490    0.0201725920    0.0005147141    
0.0279927100    0.0210222800    0.0005208579    
0.0282153710    0.0209926310    0.0005230210    
0.0284380320    0.0209173940    0.0005190564    
0.0286606930    0.0204722340    0.0005091083    
0.0288833540    0.0212744860    0.0005199736    
0.0291060150    0.0207267410    0.0005127492    
0.0293286760    0.0208684830    0.0005073302    
0.0295513370    0.0206698650    0.0004994120    
0.0297739980    0.0206835000    0.0005050769    
0.0299966590    0.0202332350    0.0004910169    
0.0302193200    0.0196129400    0.0004904768    
0.0304419810    0.0199437190    0.0004955057    
0.0306646420    0.0207637020    0.0004913196    
0.0308873030    0.0206769210    0.0004881740    
0.0311099640    0.0205063860    0.0004874190    
0.0313326250    0.0201225430    0.0004774868    
0.0315552860    0.0207637490    0.0004913207    
0.0317779470    0.0206834730    0.0004907971    
0.0320006080    0.0197209080    0.0004683522    
0.0322232690    0.0199648770    0.0004732130    
0.0324459300    0.0200435690    0.0004706049    
0.0326685910    0.0196691760    0.0004654204    
0.0328912520    0.0205091690    0.0004768285    
0.0331139130    0.0205082320    0.0004706150    
0.0333365740    0.0201851020    0.0004684087    
0.0335592350    0.0203851900    0.0004661984    
0.0337818960    0.0200440440    0.0004619130    
0.0340045570    0.0195347640    0.0004552828    
0.0342272170    0.0197915280    0.0004564575    
0.0344498780    0.0206913830    0.0004685676    
0.0346725390    0.0203000550    0.0004555202    
0.0348952000    0.0203586100    0.0004540985    
0.0351178610    0.0199218820    0.0004512575    
0.0353405220    0.0203383780    0.0004538731    
0.0355631830    0.0193209530    0.0004407089    
0.0357858440    0.0189590750    0.0004365624    
0.0360085050    0.0196401650    0.0004456773    
0.0362311660    0.0200647000    0.0004451136    
0.0364538270    0.0206378290    0.0004478027    
0.0366764880    0.0205399720    0.0004464157    
0.0368991490    0.0196418580    0.0004343461    
0.0371218100    0.0199020800    0.0004359630    
0.0373444710    0.0200939280    0.0004428296    
0.0375671320    0.0198310990    0.0004392833    
0.0377897930    0.0199995180    0.0004297247    
0.0380124540    0.0194378570    0.0004263057    
0.0382351150    0.0201484420    0.0004340281    
0.0384577760    0.0201099790    0.0004294299    
0.0386804370    0.0200829050    0.0004324157    
0.0389030980    0.0194681010    0.0004225213    
0.0391257590    0.0203716110    0.0004292805    
0.0393484200    0.0197854580    0.0004216358    
0.0395710810    0.0203163030    0.0004278302    
0.0397937420    0.0195144760    0.0004193027    
0.0400164030    0.0195918290    0.0004218421    
0.0402390640    0.0198959040    0.0004194425    
0.0404617250    0.0195744620    0.0004135860    
0.0406843860    0.0203807810    0.0004179409    
0.0409070470    0.0191276090    0.0004091058    
0.0411297080    0.0197719370    0.0004119154    
0.0413523690    0.0201845320    0.0004172638    
0.0415750300    0.0205815410    0.0004249266    
0.0417976910    0.0199552720    0.0004075901    
0.0420203520    0.0195099820    0.0004045312    
0.0422430130    0.0210609220    0.0004218940    
0.0424656740    0.0203433680    0.0004092479    
0.0426883350    0.0202631030    0.0004104670    
0.0429109960    0.0198042440    0.0004070607    
0.0431336570    0.0196242300    0.0003994974    
0.0433563180    0.0191203590    0.0003977371    
0.0435789790    0.0195102270    0.0003954595    
0.0438016400    0.0201201360    0.0004037779    
0.0440243010    0.0199362330    0.0003978504    
0.0442469620    0.0206579660    0.0004074145    
0.0444696230    0.0196883940    0.0003963125    
0.0446922840    0.0200474430    0.0003987222    
0.0449149450    0.0192062390    0.0003850500    
0.0451376060    0.0196756590    0.0003945403    
0.0453602670    0.0205279520    0.0003987702    
0.0455829280    0.0191898470    0.0003851085    
0.0458055890    0.0191875570    0.0003873311    
0.0460282500    0.0199486300    0.0003901758    
0.0462509110    0.0198519930    0.0003868087    
0.0464735720    0.0193764230    0.0003823632    
0.0466962330    0.0189438630    0.0003797899    
0.0469188940    0.0196769880    0.0003859717    
0.0471415550    0.0197725420    0.0003888949    
0.0473642160    0.0196317040    0.0003820815    
0.0475868770    0.0200482250    0.0003841953    
0.0478095380    0.0198512530    0.0003806304    
0.0480321990    0.0192419620    0.0003755646    
0.0482548600    0.0195542480    0.0003769505    
0.0484775210    0.0189735690    0.0003749981    
0.0487001820    0.0201492230    0.0003807845    
0.0489228430    0.0200269370    0.0003794233    
0.0491455040    0.0201478690    0.0003779350    
0.0493681650    0.0192408040    0.0003725034    
0.0495908260    0.0196583930    0.0003701890    
0.0498134870    0.0196650180    0.0003737759    
0.0500361480    0.0197448360    0.0003735428    
0.0502588090    0.0200146560    0.0003704513    
0.0504814700    0.0198587750    0.0003738298    
0.0507041310    0.0199321580    0.0003700671    
0.0509267920    0.0197510290    0.0003699058    
0.0511494530    0.0191535600    0.0003618390    
0.0513721140    0.0192697910    0.0003661315    
0.0515947750    0.0195140360    0.0003635595    
0.0518174360    0.0198886240    0.0003648214    
0.0520400970    0.0195741770    0.0003594164    
0.0522627580    0.0194854270    0.0003616483    
0.0524854190    0.0196262090    0.0003659034    
0.0527080800    0.0191969500    0.0003646817    
0.0529307410    0.0193637070    0.0003679824    
0.0531534020    0.0196464460    0.0003693097    
0.0533760630    0.0193225520    0.0003673994    
0.0535987240    0.0194816590    0.0003671865    
0.0538213850    0.0192062590    0.0003688060    
0.0540440460    0.0202104440    0.0003765340    
0.0542667070    0.0195511730    0.0003728940    
0.0544893680    0.0192801050    0.0003704973    
0.0547120290    0.0194592600    0.0003696648    
0.0549346900    0.0189384420    0.0003648761    
0.0551573510    0.0196100360    0.0003756602    
0.0553800120    0.0199359630    0.0003755491    
0.0556026730    0.0199235720    0.0003832165    
0.0558253340    0.0196965150    0.0003842171    
0.0560479950    0.0194192240    0.0003815032    
0.0562706560    0.0202396800    0.0003932445    
0.0564933170    0.0197997940    0.0003923252    
0.0567159780    0.0198362830    0.0003879784    
0.0569386390    0.0201268250    0.0003969394    
0.0571613000    0.0193968370    0.0003812842    
0.0573839610    0.0200269260    0.0003842107    
0.0576066220    0.0198859580    0.0003839160    
0.0578292830    0.0193569790    0.0003775220    
0.0580519440    0.0197745090    0.0003830514    
0.0582746050    0.0197623010    0.0003812446    
0.0584972660    0.0197499720    0.0003796668    
0.0587199270    0.0194181100    0.0003732182    
0.0589425880    0.0195390120    0.0003721885    
0.0591652490    0.0203435080    0.0003820083    
0.0593879100    0.0198304480    0.0003743594    
0.0596105710    0.0200989320    0.0003764875    
0.0598332320    0.0196764530    0.0003756937    
0.0600558930    0.0195042530    0.0003716613    
0.0602785540    0.0200072120    0.0003760249    
0.0605012150    0.0191136870    0.0003667580    
0.0607238760    0.0195920640    0.0003686133    
0.0609465370    0.0195072470    0.0003707102    
0.0611691980    0.0200426340    0.0003763585    
0.0613918590    0.0196972750    0.0003690285    
0.0616145200    0.0202251800    0.0003766778    
0.0618371810    0.0191833030    0.0003632446    
0.0620598420    0.0194434340    0.0003660761    
0.0622825030    0.0193108740    0.0003704053    
0.0625051640    0.0195527160    0.0003674829    
0.0627278250    0.0194310040    0.0003655830    
0.0629504860    0.0192178560    0.0003606167    
0.0631731470    0.0198142320    0.0003706996    
0.0633958080    0.0189555750    0.0003646652    
0.0636184690    0.0191915540    0.0003720384    
0.0638411300    0.0198852410    0.0003772808    
0.0640637910    0.0200062450    0.0003810886    
0.0642864520    0.0193848980    0.0003743123    
0.0645091130    0.0202777550    0.0003861904    
0.0647317740    0.0194084590    0.0003782384    
0.0649544350    0.0199909560    0.0003834501    
0.0651770960    0.0190895990    0.0003726618    
0.0653997570    0.0192386840    0.0003733029    
0.0656224180    0.0196061690    0.0003776708    
0.0658450790    0.0197674810    0.0003737706    
0.0660677400    0.0196153520    0.0003739141    
0.0662904010    0.0194076920    0.0003763698    
0.0665130620    0.0194278100    0.0003749313    
0.0667357230    0.0194951930    0.0003822587    
0.0669583840    0.0190820410    0.0003769212    
0.0671810450    0.0196376830    0.0003802583    
0.0674037060    0.0200041070    0.0003902915    
0.0676263670    0.0196672410    0.0003841580    
0.0678490280    0.0193310610    0.0003785314    
0.0680716890    0.0195437600    0.0003814551    
0.0682943500    0.0202031670    0.0003835891    
0.0685170110    0.0198934170    0.0003767585    
0.0687396720    0.0192768300    0.0003698884    
0.0689623330    0.0193029530    0.0003689660    
0.0691849940    0.0204866450    0.0003827441    
0.0694076550    0.0200290570    0.0003782435    
0.0696303160    0.0194319510    0.0003696131    
0.0698529770    0.0191405560    0.0003660625    
0.0700756380    0.0193208900    0.0003630618    
0.0702982990    0.0195069610    0.0003687786    
0.0705209600    0.0191782090    0.0003630180    
0.0707436210    0.0199760770    0.0003687909    
0.0709662820    0.0198277360    0.0003717991    
0.0711889430    0.0196361320    0.0003654539    
0.0714116040    0.0191495490    0.0003616342    
0.0716342650    0.0203423890    0.0003712140    
0.0718569260    0.0191709230    0.0003589154    
0.0720795870    0.0190011820    0.0003587684    
0.0723022480    0.0196774540    0.0003656534    
0.0725249090    0.0194676520    0.0003593433    
0.0727475700    0.0196397130    0.0003640106    
0.0729702310    0.0202107450    0.0003663195    
0.0731928920    0.0194891810    0.0003611586    
0.0734155530    0.0191848370    0.0003576125    
0.0736382140    0.0190841630    0.0003543840    
0.0738608750    0.0203981080    0.0003687476    
0.0740835360    0.0194213990    0.0003589178    
0.0743061970    0.0200646400    0.0003596761    
0.0745288580    0.0196831150    0.0003599031    
0.0747515190    0.0195693420    0.0003595702    
0.0749741800    0.0191957600    0.0003528251    
0.0751968410    0.0195708390    0.0003590526    
0.0754195020    0.0188343840    0.0003501686    
0.0756421630    0.0193282590    0.0003518302    
0.0758648240    0.0195821790    0.0003549850    
0.0760874850    0.0194797990    0.0003538858    
0.0763101460    0.0198466850    0.0003568601    
0.0765328070    0.0197965160    0.0003600557    
0.0767554680    0.0193543420    0.0003535961    
0.0769781290    0.0196498100    0.0003542376    
0.0772007900    0.0192604750    0.0003478979    
0.0774234510    0.0195818940    0.0003527840    
0.0776461120    0.0201854720    0.0003578399    
0.0778687730    0.0201090410    0.0003559819    
0.0780914340    0.0195408880    0.0003534244    
0.0783140950    0.0200215360    0.0003520687    
0.0785367560    0.0195920800    0.0003538876    
0.0787594170    0.0195125370    0.0003500042    
0.0789820780    0.0193938690    0.0003471503    
0.0792047390    0.0198336250    0.0003522119    
0.0794274000    0.0195100430    0.0003508070    
0.0796500610    0.0196506220    0.0003486324    
0.0798727220    0.0197563600    0.0003492464    
0.0800953830    0.0193644660    0.0003449700    
0.0803180440    0.0192301580    0.0003461664    
0.0805407050    0.0194556410    0.0003478662    
0.0807633660    0.0196554540    0.0003493234    
0.0809860270    0.0192332440    0.0003442751    
0.0812086880    0.0194897430    0.0003435683    
0.0814313490    0.0193073230    0.0003435162    
0.0816540100    0.0194142000    0.0003436815    
0.0818766710    0.0190323450    0.0003410617    
0.0820993320    0.0190665620    0.0003407461    
0.0823219930    0.0195373020    0.0003463495    
0.0825446540    0.0191939260    0.0003407982    
0.0827673150    0.0191398730    0.0003380316    
0.0829899760    0.0196131270    0.0003415760    
0.0832126370    0.0192850330    0.0003402240    
0.0834352980    0.0194199790    0.0003406490    
0.0836579590    0.0192146440    0.0003380890    
0.0838806200    0.0199516540    0.0003455901    
0.0841032810    0.0192849610    0.0003376578    
0.0843259420    0.0192662510    0.0003364546    
0.0845486030    0.0196188200    0.0003395194    
0.0847712640    0.0195545540    0.0003368972    
0.0849939250    0.0192383010    0.0003347437    
0.0852165860    0.0200771040    0.0003424113    
0.0854392470    0.0199221030    0.0003378569    
0.0856619080    0.0196410100    0.0003379356    
0.0858845690    0.0188434200    0.0003280218    
0.0861072300    0.0197586670    0.0003382124    
0.0863298910    0.0188429320    0.0003320115    
0.0865525520    0.0193698370    0.0003337148    
0.0867752130    0.0192338740    0.0003298582    
0.0869978740    0.0198323950    0.0003358048    
0.0872205350    0.0195551040    0.0003330247    
0.0874431960    0.0193793200    0.0003315248    
0.0876658570    0.0191740870    0.0003310308    
0.0878885180    0.0195208940    0.0003345838    
0.0881111790    0.0193735880    0.0003328913    
0.0883338400    0.0190492420    0.0003252600    
0.0885565010    0.0194210490    0.0003328725    
0.0887791620    0.0197543720    0.0003313634    
0.0890018230    0.0195161100    0.0003325536    
0.0892244840    0.0194233150    0.0003323261    
0.0894471450    0.0192031920    0.0003290418    
0.0896698060    0.0193327810    0.0003289049    
0.0898924670    0.0193655860    0.0003307097    
0.0901151280    0.0189826540    0.0003238870    
0.0903377890    0.0195152480    0.0003311477    
0.0905604500    0.0191361020    0.0003264102    
0.0907831110    0.0202431890    0.0003348842    
0.0910057720    0.0195068950    0.0003302461    
0.0912284330    0.0196964890    0.0003270958    
0.0914510940    0.0194439900    0.0003286165    
0.0916737550    0.0194194470    0.0003275940    
0.0918964160    0.0194475710    0.0003291946    
0.0921190770    0.0188676560    0.0003213174    
0.0923417380    0.0194307940    0.0003262111    
0.0925643990    0.0194829540    0.0003258493    
0.0927870600    0.0192804340    0.0003254806    
0.0930097210    0.0192828990    0.0003227292    
0.0932323820    0.0195674330    0.0003274913    
