# Diamond Light Source Ltd.
# Data extracted from: /dls/b21/data/2018/cm19678-3/processed/b21-386631_00085.dat
q(1/A)          Column          Error           
0.0035000000    2.0950463000    0.0246715180    
0.0037226610    1.8565657000    0.0227359200    
0.0039453220    1.6164255000    0.0192993130    
0.0041679830    1.3019609000    0.0142241970    
0.0043906440    0.9568487400    0.0116636840    
0.0046133050    0.7824845000    0.0101254850    
0.0048359660    0.6036346900    0.0084122612    
0.0050586270    0.4541701100    0.0071721005    
0.0052812880    0.4433607400    0.0066999223    
0.0055039490    0.3831798200    0.0059224721    
0.0057266100    0.3156960900    0.0052005642    
0.0059492710    0.2655788300    0.0047699366    
0.0061719320    0.2238572800    0.0042199681    
0.0063945930    0.1981874600    0.0040187814    
0.0066172539    0.1885416800    0.0036806580    
0.0068399149    0.1676145800    0.0034157302    
0.0070625759    0.1461925800    0.0031572788    
0.0072852369    0.1263684500    0.0028914919    
0.0075078979    0.1168094300    0.0027663188    
0.0077305589    0.1043953700    0.0025653763    
0.0079532199    0.0972307260    0.0024414731    
0.0081758809    0.0884313750    0.0023500373    
0.0083985419    0.0848599730    0.0021471499    
0.0086212029    0.0749723310    0.0020181873    
0.0088438639    0.0733451170    0.0019801320    
0.0090665249    0.0637313660    0.0017827391    
0.0092891859    0.0627486110    0.0018463461    
0.0095118469    0.0606935590    0.0017462609    
0.0097345079    0.0545012060    0.0016071529    
0.0099571689    0.0531403780    0.0015542375    
0.0101798300    0.0514129850    0.0015287678    
0.0104024910    0.0516525700    0.0015271402    
0.0106251520    0.0482764010    0.0014814010    
0.0108478130    0.0445775940    0.0013862972    
0.0110704740    0.0438063810    0.0013083820    
0.0112931350    0.0415876810    0.0012785622    
0.0115157960    0.0411429630    0.0012642926    
0.0117384570    0.0378792840    0.0012026685    
0.0119611180    0.0367912450    0.0011886712    
0.0121837790    0.0378665710    0.0011856483    
0.0124064400    0.0345026820    0.0010845825    
0.0126291010    0.0341098500    0.0010648934    
0.0128517620    0.0326098220    0.0010438150    
0.0130744230    0.0345967570    0.0010671710    
0.0132970840    0.0314233140    0.0010120768    
0.0135197450    0.0317965620    0.0010034906    
0.0137424060    0.0324263190    0.0009992714    
0.0139650670    0.0297025980    0.0009350802    
0.0141877280    0.0331456400    0.0009899736    
0.0144103890    0.0307273960    0.0009367412    
0.0146330500    0.0283365630    0.0008938490    
0.0148557110    0.0283231210    0.0008898901    
0.0150783720    0.0280494000    0.0008782608    
0.0153010330    0.0283599310    0.0008706578    
0.0155236940    0.0269671560    0.0008439608    
0.0157463550    0.0272650600    0.0008339070    
0.0159690160    0.0275394420    0.0008349120    
0.0161916770    0.0268295760    0.0008194386    
0.0164143380    0.0258655930    0.0008106783    
0.0166369990    0.0253452760    0.0007777406    
0.0168596600    0.0250178640    0.0007658929    
0.0170823210    0.0256234490    0.0007683962    
0.0173049820    0.0236079810    0.0007388325    
0.0175276430    0.0252419170    0.0007720288    
0.0177503040    0.0245768090    0.0007423697    
0.0179729650    0.0238719330    0.0007243904    
0.0181956260    0.0237266950    0.0007083385    
0.0184182870    0.0232102970    0.0006972858    
0.0186409480    0.0241202430    0.0007153218    
0.0188636090    0.0244252930    0.0007153038    
0.0190862700    0.0233048480    0.0006976124    
0.0193089310    0.0231073500    0.0006935674    
0.0195315920    0.0233883940    0.0006740423    
0.0197542530    0.0240020920    0.0006838231    
0.0199769140    0.0240021000    0.0006838233    
0.0201995750    0.0224256990    0.0006506355    
0.0204222360    0.0229851780    0.0006643559    
0.0206448970    0.0230382240    0.0006603949    
0.0208675580    0.0229526350    0.0006455933    
0.0210902190    0.0221019490    0.0006396294    
0.0213128800    0.0225869320    0.0006378352    
0.0215355410    0.0216651100    0.0006172421    
0.0217582020    0.0217354590    0.0006182435    
0.0219808630    0.0218362720    0.0006188620    
0.0222035240    0.0225962510    0.0006238346    
0.0224261850    0.0225510890    0.0006176642    
0.0226488460    0.0218970510    0.0006040709    
0.0228715070    0.0218049710    0.0006013020    
0.0230941680    0.0214899270    0.0005969424    
0.0233168290    0.0212638290    0.0005952729    
0.0235394900    0.0213186270    0.0005894614    
0.0237621510    0.0215134670    0.0005762076    
0.0239848120    0.0213003090    0.0005740093    
0.0242074730    0.0205801280    0.0005597057    
0.0244301340    0.0214357310    0.0005718737    
0.0246527950    0.0210108930    0.0005714210    
0.0248754560    0.0215917760    0.0005662473    
0.0250981170    0.0202413040    0.0005494758    
0.0253207780    0.0209880020    0.0005428133    
0.0255434390    0.0215387780    0.0005557585    
0.0257661000    0.0203360810    0.0005417660    
0.0259887610    0.0209657410    0.0005442435    
0.0262114220    0.0210041190    0.0005476437    
0.0264340830    0.0217007030    0.0005490771    
0.0266567440    0.0193888140    0.0005157986    
0.0268794050    0.0207279650    0.0005311372    
0.0271020660    0.0199529770    0.0005190037    
0.0273247270    0.0208744620    0.0005276648    
0.0275473880    0.0203530580    0.0005199963    
0.0277700490    0.0206251690    0.0005203666    
0.0279927100    0.0207570490    0.0005174729    
0.0282153710    0.0195916050    0.0005051799    
0.0284380320    0.0215282470    0.0005264905    
0.0286606930    0.0203259850    0.0005071995    
0.0288833540    0.0200729660    0.0005049903    
0.0291060150    0.0201997310    0.0005061016    
0.0293286760    0.0200229190    0.0004968604    
0.0295513370    0.0198787150    0.0004896770    
0.0297739980    0.0202941870    0.0005002150    
0.0299966590    0.0207980550    0.0004977378    
0.0302193200    0.0199863120    0.0004950384    
0.0304419810    0.0201706980    0.0004982318    
0.0306646420    0.0195130380    0.0004762111    
0.0308873030    0.0208426460    0.0004900423    
0.0311099640    0.0196191460    0.0004766761    
0.0313326250    0.0201156330    0.0004773228    
0.0315552860    0.0199430900    0.0004814307    
0.0317779470    0.0207695070    0.0004917323    
0.0320006080    0.0206259010    0.0004788957    
0.0322232690    0.0211801690    0.0004873191    
0.0324459300    0.0193297690    0.0004620698    
0.0326685910    0.0204881110    0.0004749290    
0.0328912520    0.0203802220    0.0004752455    
0.0331139130    0.0199074210    0.0004635905    
0.0333365740    0.0197326640    0.0004630499    
0.0335592350    0.0201650290    0.0004635945    
0.0337818960    0.0201648540    0.0004632234    
0.0340045570    0.0202069240    0.0004629699    
0.0342272170    0.0193743040    0.0004515431    
0.0344498780    0.0206948850    0.0004685267    
0.0346725390    0.0194552030    0.0004458639    
0.0348952000    0.0195213540    0.0004445867    
0.0351178610    0.0191895570    0.0004428097    
0.0353405220    0.0208072780    0.0004589965    
0.0355631830    0.0195655460    0.0004434136    
0.0357858440    0.0194550180    0.0004421595    
0.0360085050    0.0195929810    0.0004450652    
0.0362311660    0.0206204550    0.0004511584    
0.0364538270    0.0206404550    0.0004477543    
0.0366764880    0.0205426180    0.0004463678    
0.0368991490    0.0196927220    0.0004348334    
0.0371218100    0.0195515650    0.0004320326    
0.0373444710    0.0207016380    0.0004493989    
0.0375671320    0.0202522920    0.0004438475    
0.0377897930    0.0196880530    0.0004262921    
0.0380124540    0.0197302670    0.0004294265    
0.0382351150    0.0192255740    0.0004238988    
0.0384577760    0.0201030740    0.0004292825    
0.0386804370    0.0201783890    0.0004333680    
0.0389030980    0.0194522490    0.0004222767    
0.0391257590    0.0204369580    0.0004298947    
0.0393484200    0.0203535200    0.0004275723    
0.0395710810    0.0202102560    0.0004266388    
0.0397937420    0.0192736090    0.0004166354    
0.0400164030    0.0200390900    0.0004265568    
0.0402390640    0.0197034400    0.0004173371    
0.0404617250    0.0196813030    0.0004146420    
0.0406843860    0.0194741830    0.0004084694    
0.0409070470    0.0201794340    0.0004201314    
0.0411297080    0.0196965190    0.0004110584    
0.0413523690    0.0199275360    0.0004145278    
0.0415750300    0.0198641010    0.0004173831    
0.0417976910    0.0191161950    0.0003988604    
0.0420203520    0.0188828000    0.0003979076    
0.0422430130    0.0196765820    0.0004077227    
0.0424656740    0.0197026710    0.0004026828    
0.0426883350    0.0206468050    0.0004142639    
0.0429109960    0.0198643550    0.0004076080    
0.0431336570    0.0192435150    0.0003955353    
0.0433563180    0.0201889960    0.0004086306    
0.0435789790    0.0197919940    0.0003982365    
0.0438016400    0.0201213270    0.0004037205    
0.0440243010    0.0195246080    0.0003936541    
0.0442469620    0.0193978440    0.0003947252    
0.0444696230    0.0201042940    0.0004004077    
0.0446922840    0.0193588000    0.0003917469    
0.0449149450    0.0201179550    0.0003940155    
0.0451376060    0.0199140710    0.0003968553    
0.0453602670    0.0195761670    0.0003893491    
0.0455829280    0.0192527900    0.0003856734    
0.0458055890    0.0197906320    0.0003933035    
0.0460282500    0.0198426050    0.0003890707    
0.0462509110    0.0199506550    0.0003877021    
0.0464735720    0.0194527400    0.0003830497    
0.0466962330    0.0192950970    0.0003832287    
0.0469188940    0.0196475260    0.0003856164    
0.0471415550    0.0202321780    0.0003933215    
0.0473642160    0.0199000090    0.0003846175    
0.0475868770    0.0200266200    0.0003839223    
0.0478095380    0.0196401550    0.0003785362    
0.0480321990    0.0198362300    0.0003812545    
0.0482548600    0.0191552750    0.0003730210    
0.0484775210    0.0203451290    0.0003882489    
0.0487001820    0.0193078370    0.0003726854    
0.0489228430    0.0192224190    0.0003716603    
0.0491455040    0.0190495690    0.0003674265    
0.0493681650    0.0197460510    0.0003772978    
0.0495908260    0.0191986790    0.0003657721    
0.0498134870    0.0194949200    0.0003720920    
0.0500361480    0.0191163850    0.0003674869    
0.0502588090    0.0198912600    0.0003692441    
0.0504814700    0.0199926500    0.0003750234    
0.0507041310    0.0195612870    0.0003665451    
0.0509267920    0.0195434110    0.0003678933    
0.0511494530    0.0199533150    0.0003692527    
0.0513721140    0.0193953030    0.0003672589    
0.0515947750    0.0193854570    0.0003622975    
0.0518174360    0.0192663410    0.0003590071    
0.0520400970    0.0194816920    0.0003585048    
0.0522627580    0.0194518960    0.0003612749    
0.0524854190    0.0196740240    0.0003662860    
0.0527080800    0.0193080900    0.0003656730    
0.0529307410    0.0197625140    0.0003716886    
0.0531534020    0.0198131950    0.0003708100    
0.0533760630    0.0190296000    0.0003645410    
0.0535987240    0.0196410080    0.0003686218    
0.0538213850    0.0196669120    0.0003731385    
0.0540440460    0.0192708190    0.0003676138    
0.0542667070    0.0195231300    0.0003725625    
0.0544893680    0.0196862840    0.0003743154    
0.0547120290    0.0194525780    0.0003695378    
0.0549346900    0.0197330680    0.0003723883    
0.0551573510    0.0198191190    0.0003775927    
0.0553800120    0.0193067740    0.0003695119    
0.0556026730    0.0196809430    0.0003808105    
0.0558253340    0.0192851670    0.0003801186    
0.0560479950    0.0202217240    0.0003892394    
0.0562706560    0.0197744580    0.0003886320    
0.0564933170    0.0199095610    0.0003933436    
0.0567159780    0.0198825720    0.0003883641    
0.0569386390    0.0195955910    0.0003915987    
0.0571613000    0.0199071480    0.0003862009    
0.0573839610    0.0199832070    0.0003837252    
0.0576066220    0.0196049860    0.0003811287    
0.0578292830    0.0194165750    0.0003780378    
0.0580519440    0.0189369550    0.0003747872    
0.0582746050    0.0194173110    0.0003778373    
0.0584972660    0.0198234470    0.0003803070    
0.0587199270    0.0195835420    0.0003747403    
0.0589425880    0.0194047330    0.0003708437    
0.0591652490    0.0204727690    0.0003831541    
0.0593879100    0.0198165740    0.0003741641    
0.0596105710    0.0198875850    0.0003744385    
0.0598332320    0.0190745140    0.0003698390    
0.0600558930    0.0195046350    0.0003716011    
0.0602785540    0.0194069020    0.0003702771    
0.0605012150    0.0199020810    0.0003741812    
0.0607238760    0.0190653720    0.0003635624    
0.0609465370    0.0200709870    0.0003759640    
0.0611691980    0.0196754470    0.0003728310    
0.0613918590    0.0190892220    0.0003632255    
0.0616145200    0.0194888920    0.0003696944    
0.0618371810    0.0191767160    0.0003631198    
0.0620598420    0.0195125480    0.0003666632    
0.0622825030    0.0195386210    0.0003725192    
0.0625051640    0.0193043520    0.0003650788    
0.0627278250    0.0187023650    0.0003586015    
0.0629504860    0.0191300830    0.0003597304    
0.0631731470    0.0194469150    0.0003671844    
0.0633958080    0.0193488060    0.0003683650    
0.0636184690    0.0192138030    0.0003721900    
0.0638411300    0.0194991630    0.0003735362    
0.0640637910    0.0192591940    0.0003738416    
0.0642864520    0.0189591750    0.0003701157    
0.0645091130    0.0187267700    0.0003710636    
0.0647317740    0.0191659960    0.0003758038    
0.0649544350    0.0194179480    0.0003778498    
0.0651770960    0.0198684740    0.0003801230    
0.0653997570    0.0196230910    0.0003769492    
0.0656224180    0.0205448640    0.0003865396    
0.0658450790    0.0194992890    0.0003711626    
0.0660677400    0.0189459700    0.0003674157    
0.0662904010    0.0198606980    0.0003806716    
0.0665130620    0.0192909410    0.0003735441    
0.0667357230    0.0190913860    0.0003782141    
0.0669583840    0.0193359810    0.0003793557    
0.0671810450    0.0192334630    0.0003762598    
0.0674037060    0.0193730370    0.0003840200    
0.0676263670    0.0199455300    0.0003868000    
0.0678490280    0.0197467740    0.0003825142    
0.0680716890    0.0190830460    0.0003768675    
0.0682943500    0.0194900170    0.0003766934    
0.0685170110    0.0189664390    0.0003678126    
0.0687396720    0.0191212140    0.0003683291    
0.0689623330    0.0191764710    0.0003676920    
0.0691849940    0.0194502680    0.0003728733    
0.0694076550    0.0195937450    0.0003740463    
0.0696303160    0.0200296820    0.0003751903    
0.0698529770    0.0199318160    0.0003734882    
0.0700756380    0.0189527950    0.0003595249    
0.0702982990    0.0197441900    0.0003709506    
0.0705209600    0.0196661970    0.0003675443    
0.0707436210    0.0195812680    0.0003650656    
0.0709662820    0.0191448970    0.0003652782    
0.0711889430    0.0194798060    0.0003639337    
0.0714116040    0.0196140380    0.0003659310    
0.0716342650    0.0197191800    0.0003654207    
0.0718569260    0.0198293490    0.0003649642    
0.0720795870    0.0192384390    0.0003609393    
0.0723022480    0.0200442780    0.0003689825    
0.0725249090    0.0193416160    0.0003581167    
0.0727475700    0.0189922500    0.0003578987    
0.0729702310    0.0195799020    0.0003604952    
0.0731928920    0.0189472550    0.0003560407    
0.0734155530    0.0188117430    0.0003540573    
0.0736382140    0.0193999560    0.0003572427    
0.0738608750    0.0197380550    0.0003626702    
0.0740835360    0.0199518170    0.0003637235    
0.0743061970    0.0197934930    0.0003571762    
0.0745288580    0.0197355630    0.0003603204    
0.0747515190    0.0197739680    0.0003613832    
0.0749741800    0.0195457240    0.0003559657    
0.0751968410    0.0195970440    0.0003592312    
0.0754195020    0.0200384220    0.0003611259    
0.0756421630    0.0193600350    0.0003520588    
0.0758648240    0.0197234120    0.0003562017    
0.0760874850    0.0195502310    0.0003544641    
0.0763101460    0.0196538510    0.0003550613    
0.0765328070    0.0197504400    0.0003595747    
0.0767554680    0.0193541530    0.0003535337    
0.0769781290    0.0195409210    0.0003531940    
0.0772007900    0.0202778020    0.0003569062    
0.0774234510    0.0200326220    0.0003567597    
0.0776461120    0.0192082960    0.0003490111    
0.0778687730    0.0195477680    0.0003509185    
0.0780914340    0.0194319380    0.0003523773    
0.0783140950    0.0191358480    0.0003441343    
0.0785367560    0.0198729020    0.0003563535    
0.0787594170    0.0191041720    0.0003462628    
0.0789820780    0.0198344630    0.0003510112    
0.0792047390    0.0198393200    0.0003522019    
0.0794274000    0.0198879880    0.0003541278    
0.0796500610    0.0196376910    0.0003484578    
0.0798727220    0.0198544950    0.0003500526    
0.0800953830    0.0196158390    0.0003471422    
0.0803180440    0.0189681540    0.0003437411    
0.0805407050    0.0197598450    0.0003505150    
0.0807633660    0.0197045600    0.0003496994    
0.0809860270    0.0194668950    0.0003463005    
0.0812086880    0.0194164510    0.0003428628    
0.0814313490    0.0193129130    0.0003435069    
0.0816540100    0.0191764190    0.0003415117    
0.0818766710    0.0193740660    0.0003440509    
0.0820993320    0.0194800530    0.0003443619    
0.0823219930    0.0193955600    0.0003450315    
0.0825446540    0.0197196440    0.0003453745    
0.0827673150    0.0200881750    0.0003462449    
0.0829899760    0.0199037290    0.0003440381    
0.0832126370    0.0200404270    0.0003467638    
0.0834352980    0.0195268040    0.0003415259    
0.0836579590    0.0194280760    0.0003399032    
0.0838806200    0.0201362920    0.0003471259    
0.0841032810    0.0199225260    0.0003431350    
0.0843259420    0.0192478890    0.0003362365    
0.0845486030    0.0195474730    0.0003388433    
0.0847712640    0.0195072230    0.0003364315    
0.0849939250    0.0194238370    0.0003362962    
0.0852165860    0.0193113020    0.0003357599    
0.0854392470    0.0192393920    0.0003319604    
0.0856619080    0.0197388880    0.0003387184    
0.0858845690    0.0193678080    0.0003324976    
0.0861072300    0.0192599660    0.0003338596    
0.0863298910    0.0197546000    0.0003398900    
0.0865525520    0.0192137510    0.0003323104    
0.0867752130    0.0202621490    0.0003385027    
0.0869978740    0.0193367660    0.0003315253    
0.0872205350    0.0197298130    0.0003344516    
0.0874431960    0.0192252580    0.0003301477    
0.0876658570    0.0199330600    0.0003374609    
0.0878885180    0.0197033700    0.0003360863    
0.0881111790    0.0196128100    0.0003348827    
0.0883338400    0.0195479150    0.0003294332    
0.0885565010    0.0200075340    0.0003378032    
0.0887791620    0.0201143140    0.0003343112    
0.0890018230    0.0193507950    0.0003310853    
0.0892244840    0.0197747380    0.0003352614    
0.0894471450    0.0192642320    0.0003295078    
0.0896698060    0.0192869860    0.0003284587    
0.0898924670    0.0196694470    0.0003332369    
0.0901151280    0.0195506680    0.0003286407    
0.0903377890    0.0195815710    0.0003316529    
0.0905604500    0.0194245170    0.0003288043    
0.0907831110    0.0190455450    0.0003247710    
0.0910057720    0.0199361420    0.0003338025    
0.0912284330    0.0192770340    0.0003235385    
0.0914510940    0.0192263400    0.0003267160    
0.0916737550    0.0197552920    0.0003303579    
0.0918964160    0.0197639790    0.0003318047    
0.0921190770    0.0193699030    0.0003255101    
0.0923417380    0.0198182980    0.0003293913    
0.0925643990    0.0189096810    0.0003209644    
0.0927870600    0.0189881950    0.0003229490    
0.0930097210    0.0194922580    0.0003244207    
0.0932323820    0.0196757770    0.0003283403    
