# Diamond Light Source Ltd.
# Data extracted from: /dls/b21/data/2018/cm19678-3/processed/b21-386631_00086.dat
q(1/A)          Column          Error           
0.0035000000    2.1108647000    0.0247635380    
0.0037226610    1.8672820000    0.0228005730    
0.0039453220    1.6135373000    0.0192813280    
0.0041679830    1.3158468000    0.0142993040    
0.0043906440    0.9680068500    0.0117310470    
0.0046133050    0.7875344200    0.0101577190    
0.0048359660    0.5977274300    0.0083706788    
0.0050586270    0.4633087800    0.0072436222    
0.0052812880    0.4254075700    0.0065626189    
0.0055039490    0.3834251900    0.0059241420    
0.0057266100    0.3167856400    0.0052093320    
0.0059492710    0.2695847800    0.0048055932    
0.0061719320    0.2263856500    0.0042435707    
0.0063945930    0.1996390800    0.0040333185    
0.0066172539    0.1833543000    0.0036295331    
0.0068399149    0.1698986700    0.0034387934    
0.0070625759    0.1442723400    0.0031363552    
0.0072852369    0.1250356800    0.0028760940    
0.0075078979    0.1170625500    0.0027692088    
0.0077305589    0.1034418700    0.0025535366    
0.0079532199    0.0940356600    0.0024009322    
0.0081758809    0.0919840960    0.0023966873    
0.0083985419    0.0813224640    0.0021018399    
0.0086212029    0.0764876740    0.0020384034    
0.0088438639    0.0708806170    0.0019465059    
0.0090665249    0.0635769130    0.0017805097    
0.0092891859    0.0644278580    0.0018708172    
0.0095118469    0.0620956270    0.0017662484    
0.0097345079    0.0564399880    0.0016354265    
0.0099571689    0.0545908700    0.0015752464    
0.0101798300    0.0514999720    0.0015300021    
0.0104024910    0.0489397860    0.0014864401    
0.0106251520    0.0473181730    0.0014665693    
0.0108478130    0.0458674490    0.0014061569    
0.0110704740    0.0450534380    0.0013268239    
0.0112931350    0.0409949370    0.0012693695    
0.0115157960    0.0415671500    0.0012707449    
0.0117384570    0.0393273050    0.0012253935    
0.0119611180    0.0369036430    0.0011904401    
0.0121837790    0.0377894400    0.0011843950    
0.0124064400    0.0361705070    0.0011104446    
0.0126291010    0.0353704800    0.0010843516    
0.0128517620    0.0330082450    0.0010501322    
0.0130744230    0.0336395710    0.0010522647    
0.0132970840    0.0326920950    0.0010322676    
0.0135197450    0.0321741470    0.0010093928    
0.0137424060    0.0320235520    0.0009930082    
0.0139650670    0.0314075860    0.0009615068    
0.0141877280    0.0298908880    0.0009400766    
0.0144103890    0.0299255160    0.0009244023    
0.0146330500    0.0301105880    0.0009213690    
0.0148557110    0.0298586240    0.0009136591    
0.0150783720    0.0278547800    0.0008751752    
0.0153010330    0.0285983150    0.0008742760    
0.0155236940    0.0273348460    0.0008496625    
0.0157463550    0.0272629800    0.0008338434    
0.0159690160    0.0260187380    0.0008115022    
0.0161916770    0.0269526580    0.0008212847    
0.0164143380    0.0270577170    0.0008291180    
0.0166369990    0.0238876520    0.0007550165    
0.0168596600    0.0260240970    0.0007811136    
0.0170823210    0.0244233680    0.0007501578    
0.0173049820    0.0254558310    0.0007671736    
0.0175276430    0.0248149970    0.0007654430    
0.0177503040    0.0244628220    0.0007406179    
0.0179729650    0.0239140710    0.0007250018    
0.0181956260    0.0236614500    0.0007073369    
0.0184182870    0.0247376090    0.0007198347    
0.0186409480    0.0235668830    0.0007070419    
0.0188636090    0.0218679770    0.0006767969    
0.0190862700    0.0230733810    0.0006941129    
0.0193089310    0.0232096670    0.0006950747    
0.0195315920    0.0224931010    0.0006609903    
0.0197542530    0.0230846670    0.0006706014    
0.0199769140    0.0220327150    0.0006551439    
0.0201995750    0.0228392480    0.0006565822    
0.0204222360    0.0217545700    0.0006463021    
0.0206448970    0.0218628750    0.0006433041    
0.0208675580    0.0227693110    0.0006429854    
0.0210902190    0.0225629990    0.0006462417    
0.0213128800    0.0216666720    0.0006246826    
0.0215355410    0.0210128500    0.0006078564    
0.0217582020    0.0219975610    0.0006219363    
0.0219808630    0.0212909330    0.0006110621    
0.0222035240    0.0230767280    0.0006304082    
0.0224261850    0.0217543050    0.0006066312    
0.0226488460    0.0216787600    0.0006010295    
0.0228715070    0.0223007220    0.0006080759    
0.0230941680    0.0208913910    0.0005885483    
0.0233168290    0.0209456070    0.0005907793    
0.0235394900    0.0206976990    0.0005807915    
0.0237621510    0.0223142760    0.0005868115    
0.0239848120    0.0215461640    0.0005772905    
0.0242074730    0.0212482750    0.0005686970    
0.0244301340    0.0217392080    0.0005758857    
0.0246527950    0.0210092910    0.0005713774    
0.0248754560    0.0209813290    0.0005581641    
0.0250981170    0.0208214480    0.0005572733    
0.0253207780    0.0203687410    0.0005347250    
0.0255434390    0.0203470010    0.0005401436    
0.0257661000    0.0215323760    0.0005574521    
0.0259887610    0.0210206490    0.0005449349    
0.0262114220    0.0206312960    0.0005427409    
0.0264340830    0.0207960780    0.0005374902    
0.0266567440    0.0203477840    0.0005283802    
0.0268794050    0.0210393890    0.0005350919    
0.0271020660    0.0198434640    0.0005175577    
0.0273247270    0.0216731080    0.0005376436    
0.0275473880    0.0203382210    0.0005197870    
0.0277700490    0.0207942550    0.0005224753    
0.0279927100    0.0206522690    0.0005161455    
0.0282153710    0.0205018840    0.0005167630    
0.0284380320    0.0212047360    0.0005224997    
0.0286606930    0.0202991240    0.0005068449    
0.0288833540    0.0201095450    0.0005054309    
0.0291060150    0.0198812070    0.0005020763    
0.0293286760    0.0211556080    0.0005107012    
0.0295513370    0.0208662340    0.0005016734    
0.0297739980    0.0204898940    0.0005026020    
0.0299966590    0.0211895290    0.0005023811    
0.0302193200    0.0207572060    0.0005044759    
0.0304419810    0.0202060760    0.0004986495    
0.0306646420    0.0203366360    0.0004861386    
0.0308873030    0.0201498100    0.0004818103    
0.0311099640    0.0205672640    0.0004880396    
0.0313326250    0.0205557930    0.0004824985    
0.0315552860    0.0200693990    0.0004829345    
0.0317779470    0.0205816640    0.0004894850    
0.0320006080    0.0202018350    0.0004739291    
0.0322232690    0.0210328040    0.0004856023    
0.0324459300    0.0199026210    0.0004688489    
0.0326685910    0.0202443640    0.0004720775    
0.0328912520    0.0205005630    0.0004766284    
0.0331139130    0.0197115940    0.0004612872    
0.0333365740    0.0199484630    0.0004655572    
0.0335592350    0.0201634910    0.0004635591    
0.0337818960    0.0203016390    0.0004647741    
0.0340045570    0.0198871880    0.0004592749    
0.0342272170    0.0209091820    0.0004690705    
0.0344498780    0.0208311910    0.0004700492    
0.0346725390    0.0200156700    0.0004522233    
0.0348952000    0.0207955410    0.0004588492    
0.0351178610    0.0197398280    0.0004490966    
0.0353405220    0.0207145710    0.0004579553    
0.0355631830    0.0198152610    0.0004462172    
0.0357858440    0.0198755630    0.0004468958    
0.0360085050    0.0197835600    0.0004472075    
0.0362311660    0.0199575780    0.0004438306    
0.0364538270    0.0191043190    0.0004307541    
0.0366764880    0.0201434190    0.0004419926    
0.0368991490    0.0195280070    0.0004329946    
0.0371218100    0.0203519330    0.0004407700    
0.0373444710    0.0199781910    0.0004414598    
0.0375671320    0.0206009040    0.0004476342    
0.0377897930    0.0200280430    0.0004299408    
0.0380124540    0.0198315650    0.0004305110    
0.0382351150    0.0207848400    0.0004407368    
0.0384577760    0.0199182160    0.0004272879    
0.0386804370    0.0198511170    0.0004298229    
0.0389030980    0.0202665600    0.0004310083    
0.0391257590    0.0200465850    0.0004257528    
0.0393484200    0.0199657660    0.0004234637    
0.0395710810    0.0195513010    0.0004196099    
0.0397937420    0.0196323660    0.0004204791    
0.0400164030    0.0195654490    0.0004214695    
0.0402390640    0.0195163200    0.0004153349    
0.0404617250    0.0195313080    0.0004130432    
0.0406843860    0.0196440370    0.0004102312    
0.0409070470    0.0199417420    0.0004176338    
0.0411297080    0.0196864390    0.0004109375    
0.0413523690    0.0198311720    0.0004135085    
0.0415750300    0.0198275090    0.0004169825    
0.0417976910    0.0198303950    0.0004062275    
0.0420203520    0.0202312260    0.0004118542    
0.0422430130    0.0203255670    0.0004143763    
0.0424656740    0.0202772250    0.0004084964    
0.0426883350    0.0196063200    0.0004036752    
0.0429109960    0.0196955740    0.0004058571    
0.0431336570    0.0194208920    0.0003973389    
0.0433563180    0.0206175040    0.0004129286    
0.0435789790    0.0199507310    0.0003998150    
0.0438016400    0.0203060870    0.0004055544    
0.0440243010    0.0197929510    0.0003963349    
0.0442469620    0.0197417240    0.0003981935    
0.0444696230    0.0191059950    0.0003903249    
0.0446922840    0.0200231770    0.0003983972    
0.0449149450    0.0193833710    0.0003867404    
0.0451376060    0.0193115380    0.0003907905    
0.0453602670    0.0204806220    0.0003982266    
0.0455829280    0.0199388680    0.0003924700    
0.0458055890    0.0198047540    0.0003934288    
0.0460282500    0.0198716050    0.0003893400    
0.0462509110    0.0195197150    0.0003834774    
0.0464735720    0.0197454010    0.0003859056    
0.0466962330    0.0198644430    0.0003888267    
0.0469188940    0.0199714430    0.0003887673    
0.0471415550    0.0198865770    0.0003899329    
0.0473642160    0.0195417010    0.0003811247    
0.0475868770    0.0204666600    0.0003881025    
0.0478095380    0.0198137420    0.0003801908    
0.0480321990    0.0193071590    0.0003761214    
0.0482548600    0.0192918200    0.0003743339    
0.0484775210    0.0202176340    0.0003870157    
0.0487001820    0.0193351370    0.0003729345    
0.0489228430    0.0194796270    0.0003741243    
0.0491455040    0.0197850970    0.0003744385    
0.0493681650    0.0202924040    0.0003824673    
0.0495908260    0.0195177480    0.0003687849    
0.0498134870    0.0189963320    0.0003672890    
0.0500361480    0.0201038730    0.0003768446    
0.0502588090    0.0195470520    0.0003660214    
0.0504814700    0.0199418860    0.0003745327    
0.0507041310    0.0191065130    0.0003622454    
0.0509267920    0.0196180940    0.0003685815    
0.0511494530    0.0193368410    0.0003634899    
0.0513721140    0.0192547510    0.0003659118    
0.0515947750    0.0194313720    0.0003627125    
0.0518174360    0.0194187230    0.0003604103    
0.0520400970    0.0189788520    0.0003538344    
0.0522627580    0.0192558410    0.0003594360    
0.0524854190    0.0192497520    0.0003623011    
0.0527080800    0.0195074400    0.0003675419    
0.0529307410    0.0197400360    0.0003714630    
0.0531534020    0.0197422900    0.0003701318    
0.0533760630    0.0192027190    0.0003661815    
0.0535987240    0.0205388180    0.0003769384    
0.0538213850    0.0201892560    0.0003780468    
0.0540440460    0.0208260430    0.0003821453    
0.0542667070    0.0201970070    0.0003789234    
0.0544893680    0.0191225640    0.0003689031    
0.0547120290    0.0195002310    0.0003699761    
0.0549346900    0.0197034550    0.0003720946    
0.0551573510    0.0196377730    0.0003758469    
0.0553800120    0.0195669480    0.0003719791    
0.0556026730    0.0197973260    0.0003819203    
0.0558253340    0.0201901950    0.0003889208    
0.0560479950    0.0200703470    0.0003877649    
0.0562706560    0.0205672280    0.0003963306    
0.0564933170    0.0191232220    0.0003854830    
0.0567159780    0.0198507150    0.0003880380    
0.0569386390    0.0190228620    0.0003858188    
0.0571613000    0.0200929230    0.0003879839    
0.0573839610    0.0201364080    0.0003851786    
0.0576066220    0.0196108990    0.0003811716    
0.0578292830    0.0200774740    0.0003844031    
0.0580519440    0.0196030370    0.0003813070    
0.0582746050    0.0195261050    0.0003788799    
0.0584972660    0.0202377800    0.0003842463    
0.0587199270    0.0194458130    0.0003734060    
0.0589425880    0.0196300260    0.0003729761    
0.0591652490    0.0191733830    0.0003707815    
0.0593879100    0.0193276330    0.0003695053    
0.0596105710    0.0192657300    0.0003685239    
0.0598332320    0.0201486080    0.0003800948    
0.0600558930    0.0194606720    0.0003711679    
0.0602785540    0.0198434030    0.0003744038    
0.0605012150    0.0205336670    0.0003800576    
0.0607238760    0.0193412110    0.0003661690    
0.0609465370    0.0196821510    0.0003722902    
0.0611691980    0.0196668830    0.0003727356    
0.0613918590    0.0192328940    0.0003645760    
0.0616145200    0.0195014300    0.0003697992    
0.0618371810    0.0196358990    0.0003674275    
0.0620598420    0.0197728600    0.0003690868    
0.0622825030    0.0192246500    0.0003694999    
0.0625051640    0.0195997400    0.0003678473    
0.0627278250    0.0185771820    0.0003573857    
0.0629504860    0.0192300840    0.0003606557    
0.0631731470    0.0199653620    0.0003720326    
0.0633958080    0.0192351310    0.0003672673    
0.0636184690    0.0194286110    0.0003742505    
0.0638411300    0.0183886340    0.0003627295    
0.0640637910    0.0200994350    0.0003818950    
0.0642864520    0.0199330690    0.0003794882    
0.0645091130    0.0194458300    0.0003781061    
0.0647317740    0.0196950400    0.0003809407    
0.0649544350    0.0193503000    0.0003771766    
0.0651770960    0.0192270270    0.0003739224    
0.0653997570    0.0198750100    0.0003793466    
0.0656224180    0.0191398080    0.0003730737    
0.0658450790    0.0191799030    0.0003680963    
0.0660677400    0.0193791310    0.0003715779    
0.0662904010    0.0201291280    0.0003832208    
0.0665130620    0.0199982690    0.0003803162    
0.0667357230    0.0196443470    0.0003836377    
0.0669583840    0.0197959150    0.0003838263    
0.0671810450    0.0200489690    0.0003841391    
0.0674037060    0.0190670950    0.0003809611    
0.0676263670    0.0202965360    0.0003901737    
0.0678490280    0.0193525850    0.0003786626    
0.0680716890    0.0197216120    0.0003831065    
0.0682943500    0.0193720510    0.0003755374    
0.0685170110    0.0192859490    0.0003708836    
0.0687396720    0.0196518450    0.0003733906    
0.0689623330    0.0191115620    0.0003670552    
0.0691849940    0.0194058990    0.0003724336    
0.0694076550    0.0201848730    0.0003796323    
0.0696303160    0.0199297710    0.0003742391    
0.0698529770    0.0199862800    0.0003739839    
0.0700756380    0.0196332980    0.0003659084    
0.0702982990    0.0199169040    0.0003725553    
0.0705209600    0.0196921720    0.0003677729    
0.0707436210    0.0201922800    0.0003707034    
0.0709662820    0.0191294990    0.0003651173    
0.0711889430    0.0192199690    0.0003614846    
0.0714116040    0.0198787750    0.0003683782    
0.0716342650    0.0200359210    0.0003683298    
0.0718569260    0.0198547040    0.0003651835    
0.0720795870    0.0194807340    0.0003631913    
0.0723022480    0.0191326410    0.0003604803    
0.0725249090    0.0197246890    0.0003616319    
0.0727475700    0.0204609700    0.0003714655    
0.0729702310    0.0202487210    0.0003665865    
0.0731928920    0.0193873440    0.0003601381    
0.0734155530    0.0192700720    0.0003583308    
0.0736382140    0.0201417880    0.0003639950    
0.0738608750    0.0194433670    0.0003599389    
0.0740835360    0.0202287640    0.0003662252    
0.0743061970    0.0203462360    0.0003621152    
0.0745288580    0.0199971780    0.0003626869    
0.0747515190    0.0193564060    0.0003575336    
0.0749741800    0.0201081960    0.0003610374    
0.0751968410    0.0193058300    0.0003565386    
0.0754195020    0.0193210570    0.0003545894    
0.0756421630    0.0188272220    0.0003471672    
0.0758648240    0.0195868260    0.0003549526    
0.0760874850    0.0191888680    0.0003511595    
0.0763101460    0.0190366120    0.0003494280    
0.0765328070    0.0197162040    0.0003592492    
0.0767554680    0.0194043360    0.0003539782    
0.0769781290    0.0193415460    0.0003513742    
0.0772007900    0.0196669620    0.0003514761    
0.0774234510    0.0194783810    0.0003517765    
0.0776461120    0.0195872900    0.0003524239    
0.0778687730    0.0195588750    0.0003510048    
0.0780914340    0.0194687920    0.0003526978    
0.0783140950    0.0196170800    0.0003484213    
0.0785367560    0.0192835510    0.0003510164    
0.0787594170    0.0190838890    0.0003460658    
0.0789820780    0.0193608850    0.0003467822    
0.0792047390    0.0196690010    0.0003506735    
0.0794274000    0.0195775180    0.0003513394    
0.0796500610    0.0194136170    0.0003464509    
0.0798727220    0.0195012180    0.0003469111    
0.0800953830    0.0195713430    0.0003467350    
0.0803180440    0.0197017060    0.0003503114    
0.0805407050    0.0193666530    0.0003469969    
0.0807633660    0.0197464970    0.0003500580    
0.0809860270    0.0196563690    0.0003479685    
0.0812086880    0.0196208040    0.0003446492    
0.0814313490    0.0191587080    0.0003421198    
0.0816540100    0.0190776520    0.0003406181    
0.0818766710    0.0193909170    0.0003441873    
0.0820993320    0.0198133550    0.0003472822    
0.0823219930    0.0196395760    0.0003471819    
0.0825446540    0.0196032190    0.0003443403    
0.0827673150    0.0195495670    0.0003415586    
0.0829899760    0.0192956900    0.0003387295    
0.0832126370    0.0197029170    0.0003438183    
0.0834352980    0.0200927370    0.0003464265    
0.0836579590    0.0195395740    0.0003408641    
0.0838806200    0.0198056600    0.0003442511    
0.0841032810    0.0198500920    0.0003424976    
0.0843259420    0.0201802560    0.0003442707    
0.0845486030    0.0195342360    0.0003387157    
0.0847712640    0.0187573000    0.0003298887    
0.0849939250    0.0191952960    0.0003342992    
0.0852165860    0.0199344210    0.0003411209    
0.0854392470    0.0196101970    0.0003351314    
0.0856619080    0.0191155040    0.0003333142    
0.0858845690    0.0195261480    0.0003338413    
0.0861072300    0.0195536240    0.0003363823    
0.0863298910    0.0195542760    0.0003381494    
0.0865525520    0.0196088300    0.0003356968    
0.0867752130    0.0196781750    0.0003335763    
0.0869978740    0.0195171630    0.0003330554    
0.0872205350    0.0192010860    0.0003299273    
0.0874431960    0.0193881940    0.0003315311    
0.0876658570    0.0195145140    0.0003338865    
0.0878885180    0.0192891430    0.0003325220    
0.0881111790    0.0196799250    0.0003354424    
0.0883338400    0.0189524250    0.0003243643    
0.0885565010    0.0192475130    0.0003313124    
0.0887791620    0.0198127540    0.0003317830    
0.0890018230    0.0192020470    0.0003297977    
0.0892244840    0.0203586400    0.0003401621    
0.0894471450    0.0191105990    0.0003281787    
0.0896698060    0.0189834800    0.0003258516    
0.0898924670    0.0196905280    0.0003334027    
0.0901151280    0.0192840280    0.0003263795    
0.0903377890    0.0195632260    0.0003314849    
0.0905604500    0.0194619920    0.0003291088    
0.0907831110    0.0192656000    0.0003266294    
0.0910057720    0.0195098860    0.0003302021    
0.0912284330    0.0195633390    0.0003259199    
0.0914510940    0.0190860860    0.0003255097    
0.0916737550    0.0190909070    0.0003247429    
0.0918964160    0.0198905820    0.0003328531    
0.0921190770    0.0193027890    0.0003249333    
0.0923417380    0.0190777620    0.0003231663    
0.0925643990    0.0196327550    0.0003270310    
0.0927870600    0.0191075760    0.0003239503    
0.0930097210    0.0195123680    0.0003245756    
0.0932323820    0.0192743260    0.0003249610    
