# Diamond Light Source Ltd.
# Data extracted from: /dls/b21/data/2018/cm19678-3/processed/b21-386631_00096.dat
q(1/A)          Column          Error           
0.0035000000    2.0727646000    0.0245491050    
0.0037226610    1.9108890000    0.0230747350    
0.0039453220    1.6489900000    0.0195000010    
0.0041679830    1.2979537000    0.0142075770    
0.0043906440    0.9956928700    0.0119025070    
0.0046133050    0.7890987600    0.0101719750    
0.0048359660    0.5951677600    0.0083561643    
0.0050586270    0.4657292900    0.0072654996    
0.0052812880    0.4221091800    0.0065398104    
0.0055039490    0.3778771200    0.0058835388    
0.0057266100    0.3214181400    0.0052494363    
0.0059492710    0.2798370100    0.0048981273    
0.0061719320    0.2259346000    0.0042410809    
0.0063945930    0.1935234400    0.0039726903    
0.0066172539    0.1881068100    0.0036777793    
0.0068399149    0.1693415400    0.0034345594    
0.0070625759    0.1475979400    0.0031735989    
0.0072852369    0.1203711500    0.0028230949    
0.0075078979    0.1160441000    0.0027582678    
0.0077305589    0.0983536020    0.0024909626    
0.0079532199    0.0968736600    0.0024378930    
0.0081758809    0.0963719690    0.0024541921    
0.0083985419    0.0850862600    0.0021508111    
0.0086212029    0.0763329890    0.0020371768    
0.0088438639    0.0731857330    0.0019787156    
0.0090665249    0.0611837480    0.0017473940    
0.0092891859    0.0613273880    0.0018259964    
0.0095118469    0.0617443570    0.0017619683    
0.0097345079    0.0581937140    0.0016613219    
0.0099571689    0.0552270770    0.0015850491    
0.0101798300    0.0494041320    0.0014991613    
0.0104024910    0.0489799600    0.0014876603    
0.0106251520    0.0484488210    0.0014845964    
0.0108478130    0.0479760080    0.0014387049    
0.0110704740    0.0425093570    0.0012893469    
0.0112931350    0.0438608600    0.0013135291    
0.0115157960    0.0413291150    0.0012676211    
0.0117384570    0.0373342890    0.0011944297    
0.0119611180    0.0392399060    0.0012280473    
0.0121837790    0.0384520410    0.0011952238    
0.0124064400    0.0358248910    0.0011055801    
0.0126291010    0.0349337320    0.0010780784    
0.0128517620    0.0341053120    0.0010678787    
0.0130744230    0.0332718760    0.0010469275    
0.0132970840    0.0326536900    0.0010320844    
0.0135197450    0.0312814480    0.0009956994    
0.0137424060    0.0322347420    0.0009966860    
0.0139650670    0.0298425510    0.0009376294    
0.0141877280    0.0316612320    0.0009679121    
0.0144103890    0.0298071900    0.0009229515    
0.0146330500    0.0283012280    0.0008936240    
0.0148557110    0.0288198770    0.0008979942    
0.0150783720    0.0269970090    0.0008619482    
0.0153010330    0.0272308260    0.0008534674    
0.0155236940    0.0282559780    0.0008642144    
0.0157463550    0.0273874570    0.0008360877    
0.0159690160    0.0273319690    0.0008320706    
0.0161916770    0.0259979810    0.0008069394    
0.0164143380    0.0263425400    0.0008184229    
0.0166369990    0.0259373480    0.0007870651    
0.0168596600    0.0266086050    0.0007901610    
0.0170823210    0.0252274510    0.0007627192    
0.0173049820    0.0258932410    0.0007740542    
0.0175276430    0.0247881070    0.0007653421    
0.0177503040    0.0248419560    0.0007466413    
0.0179729650    0.0244836500    0.0007338859    
0.0181956260    0.0237020360    0.0007082338    
0.0184182870    0.0236887760    0.0007046986    
0.0186409480    0.0241594320    0.0007161691    
0.0188636090    0.0240661350    0.0007102895    
0.0190862700    0.0238028540    0.0007052891    
0.0193089310    0.0234995480    0.0006996889    
0.0195315920    0.0233280480    0.0006734227    
0.0197542530    0.0230061330    0.0006697344    
0.0199769140    0.0238055070    0.0006812705    
0.0201995750    0.0226690870    0.0006544002    
0.0204222360    0.0236364410    0.0006739529    
0.0206448970    0.0230932660    0.0006614294    
0.0208675580    0.0215159440    0.0006252944    
0.0210902190    0.0233410310    0.0006575590    
0.0213128800    0.0224234960    0.0006357599    
0.0215355410    0.0223851770    0.0006276492    
0.0217582020    0.0215580600    0.0006159446    
0.0219808630    0.0223966490    0.0006269858    
0.0222035240    0.0231301430    0.0006313963    
0.0224261850    0.0209933760    0.0005961718    
0.0226488460    0.0215464640    0.0005994387    
0.0228715070    0.0215557010    0.0005980777    
0.0230941680    0.0220203440    0.0006044893    
0.0233168290    0.0220467960    0.0006063589    
0.0235394900    0.0206168250    0.0005798935    
0.0237621510    0.0212978190    0.0005735259    
0.0239848120    0.0210220450    0.0005704599    
0.0242074730    0.0213418840    0.0005701822    
0.0244301340    0.0212837420    0.0005700548    
0.0246527950    0.0216797280    0.0005806607    
0.0248754560    0.0210877180    0.0005598071    
0.0250981170    0.0204802850    0.0005529157    
0.0253207780    0.0211300720    0.0005448501    
0.0255434390    0.0212103970    0.0005517109    
0.0257661000    0.0209867460    0.0005505697    
0.0259887610    0.0216458540    0.0005532063    
0.0262114220    0.0218771240    0.0005591169    
0.0264340830    0.0209938920    0.0005402621    
0.0266567440    0.0206116620    0.0005320135    
0.0268794050    0.0201441140    0.0005237983    
0.0271020660    0.0209945960    0.0005325765    
0.0273247270    0.0200624130    0.0005174920    
0.0275473880    0.0197832240    0.0005128562    
0.0277700490    0.0198128020    0.0005102056    
0.0279927100    0.0200753530    0.0005090940    
0.0282153710    0.0197365520    0.0005072340    
0.0284380320    0.0205134500    0.0005141232    
0.0286606930    0.0201131360    0.0005047247    
0.0288833540    0.0198336340    0.0005021575    
0.0291060150    0.0205066350    0.0005101216    
0.0293286760    0.0197417010    0.0004935425    
0.0295513370    0.0209557910    0.0005029551    
0.0297739980    0.0201735720    0.0004989120    
0.0299966590    0.0209565880    0.0004998171    
0.0302193200    0.0197680500    0.0004925111    
0.0304419810    0.0205428760    0.0005029945    
0.0306646420    0.0196089790    0.0004775581    
0.0308873030    0.0205929690    0.0004872796    
0.0311099640    0.0201669020    0.0004834645    
0.0313326250    0.0201079410    0.0004774092    
0.0315552860    0.0197951110    0.0004798198    
0.0317779470    0.0206917650    0.0004909939    
0.0320006080    0.0205299840    0.0004779588    
0.0322232690    0.0201524120    0.0004755256    
0.0324459300    0.0202616270    0.0004732527    
0.0326685910    0.0196329920    0.0004650853    
0.0328912520    0.0202844910    0.0004743045    
0.0331139130    0.0199546550    0.0004643129    
0.0333365740    0.0205520390    0.0004727418    
0.0335592350    0.0199560570    0.0004613578    
0.0337818960    0.0210850340    0.0004738509    
0.0340045570    0.0202325840    0.0004634362    
0.0342272170    0.0207789040    0.0004677988    
0.0344498780    0.0199566130    0.0004602650    
0.0346725390    0.0201139060    0.0004535177    
0.0348952000    0.0201742500    0.0004521284    
0.0351178610    0.0206967950    0.0004600424    
0.0353405220    0.0209646290    0.0004609002    
0.0355631830    0.0194192080    0.0004419167    
0.0357858440    0.0207466870    0.0004567717    
0.0360085050    0.0202955540    0.0004531432    
0.0362311660    0.0207247130    0.0004524658    
0.0364538270    0.0201892440    0.0004429980    
0.0366764880    0.0202861370    0.0004437376    
0.0368991490    0.0193518640    0.0004312142    
0.0371218100    0.0195470150    0.0004321432    
0.0373444710    0.0194185750    0.0004354116    
0.0375671320    0.0193620560    0.0004341443    
0.0377897930    0.0204786270    0.0004349286    
0.0380124540    0.0200162050    0.0004326880    
0.0382351150    0.0194456630    0.0004264769    
0.0384577760    0.0200171300    0.0004285233    
0.0386804370    0.0197556410    0.0004289639    
0.0389030980    0.0195859910    0.0004238836    
0.0391257590    0.0196377080    0.0004215615    
0.0393484200    0.0201709210    0.0004258085    
0.0395710810    0.0194682070    0.0004188891    
0.0397937420    0.0193600640    0.0004177242    
0.0400164030    0.0208172800    0.0004349221    
0.0402390640    0.0199569570    0.0004201697    
0.0404617250    0.0197309260    0.0004153189    
0.0406843860    0.0190857050    0.0004045252    
0.0409070470    0.0196254770    0.0004144789    
0.0411297080    0.0192991040    0.0004070418    
0.0413523690    0.0193642090    0.0004087788    
0.0415750300    0.0200456460    0.0004194421    
0.0417976910    0.0205129490    0.0004133290    
0.0420203520    0.0199121880    0.0004087616    
0.0422430130    0.0196912320    0.0004080263    
0.0424656740    0.0204833020    0.0004107353    
0.0426883350    0.0204708610    0.0004126485    
0.0429109960    0.0204064660    0.0004132862    
0.0431336570    0.0191032600    0.0003942380    
0.0433563180    0.0196908570    0.0004037080    
0.0435789790    0.0196383320    0.0003968352    
0.0438016400    0.0198769030    0.0004014103    
0.0440243010    0.0203334200    0.0004018745    
0.0442469620    0.0198945800    0.0003998961    
0.0444696230    0.0200234950    0.0003997510    
0.0446922840    0.0197540140    0.0003958728    
0.0449149450    0.0193375010    0.0003864410    
0.0451376060    0.0194065370    0.0003919113    
0.0453602670    0.0198077280    0.0003917908    
0.0455829280    0.0202645000    0.0003958242    
0.0458055890    0.0199148760    0.0003946830    
0.0460282500    0.0200558760    0.0003913016    
0.0462509110    0.0196186770    0.0003846060    
0.0464735720    0.0198748350    0.0003873273    
0.0466962330    0.0202844580    0.0003930772    
0.0469188940    0.0202832240    0.0003919509    
0.0471415550    0.0198416850    0.0003896523    
0.0473642160    0.0196098170    0.0003819450    
0.0475868770    0.0199531450    0.0003833600    
0.0478095380    0.0202607770    0.0003846136    
0.0480321990    0.0196823350    0.0003799141    
0.0482548600    0.0196565900    0.0003780113    
0.0484775210    0.0193296590    0.0003785765    
0.0487001820    0.0199701260    0.0003791644    
0.0489228430    0.0201859830    0.0003810033    
0.0491455040    0.0197587850    0.0003743430    
0.0493681650    0.0201647700    0.0003814190    
0.0495908260    0.0197290380    0.0003709279    
0.0498134870    0.0191682860    0.0003690989    
0.0500361480    0.0194699640    0.0003710079    
0.0502588090    0.0202078850    0.0003723098    
0.0504814700    0.0200849750    0.0003760282    
0.0507041310    0.0197064490    0.0003680396    
0.0509267920    0.0194955870    0.0003675796    
0.0511494530    0.0193663910    0.0003639168    
0.0513721140    0.0197646730    0.0003708775    
0.0515947750    0.0193660100    0.0003622505    
0.0518174360    0.0195819470    0.0003620703    
0.0520400970    0.0193113360    0.0003570667    
0.0522627580    0.0198961300    0.0003655130    
0.0524854190    0.0198251630    0.0003678271    
0.0527080800    0.0195511760    0.0003681047    
0.0529307410    0.0194624150    0.0003689930    
0.0531534020    0.0200849110    0.0003734829    
0.0533760630    0.0202318200    0.0003760198    
0.0535987240    0.0199256460    0.0003714215    
0.0538213850    0.0198090810    0.0003746241    
0.0540440460    0.0199027410    0.0003737316    
0.0542667070    0.0193597920    0.0003711388    
0.0544893680    0.0195371230    0.0003730334    
0.0547120290    0.0195302890    0.0003704131    
0.0549346900    0.0196774330    0.0003720014    
0.0551573510    0.0197330860    0.0003769125    
0.0553800120    0.0195688560    0.0003721499    
0.0556026730    0.0195776140    0.0003799509    
0.0558253340    0.0200118240    0.0003873579    
0.0560479950    0.0194195120    0.0003815825    
0.0562706560    0.0198579730    0.0003895968    
0.0564933170    0.0194266640    0.0003886888    
0.0567159780    0.0192596880    0.0003823746    
0.0569386390    0.0199626000    0.0003953959    
0.0571613000    0.0197045300    0.0003843735    
0.0573839610    0.0195482760    0.0003796676    
0.0576066220    0.0204426260    0.0003893304    
0.0578292830    0.0204254170    0.0003878788    
0.0580519440    0.0201461660    0.0003867119    
0.0582746050    0.0196819310    0.0003805448    
0.0584972660    0.0200207450    0.0003823372    
0.0587199270    0.0192249620    0.0003714318    
0.0589425880    0.0200433180    0.0003770366    
0.0591652490    0.0198852120    0.0003777565    
0.0593879100    0.0196757880    0.0003729714    
0.0596105710    0.0198459520    0.0003741856    
0.0598332320    0.0197489270    0.0003764604    
0.0600558930    0.0192003320    0.0003688282    
0.0602785540    0.0191880410    0.0003683203    
0.0605012150    0.0191072690    0.0003667699    
0.0607238760    0.0192044510    0.0003650219    
0.0609465370    0.0198885960    0.0003743912    
0.0611691980    0.0201143000    0.0003771063    
0.0613918590    0.0184256160    0.0003569891    
0.0616145200    0.0202613610    0.0003770902    
0.0618371810    0.0191978750    0.0003634553    
0.0620598420    0.0193271160    0.0003650526    
0.0622825030    0.0198516900    0.0003756315    
0.0625051640    0.0195329170    0.0003673704    
0.0627278250    0.0199411060    0.0003704248    
0.0629504860    0.0192864870    0.0003613324    
0.0631731470    0.0202176470    0.0003745293    
0.0633958080    0.0192017930    0.0003670995    
0.0636184690    0.0196970870    0.0003769821    
0.0638411300    0.0191198270    0.0003700227    
0.0640637910    0.0197600930    0.0003788129    
0.0642864520    0.0191179040    0.0003718001    
0.0645091130    0.0200577880    0.0003841670    
0.0647317740    0.0194678590    0.0003788927    
0.0649544350    0.0195722080    0.0003794888    
0.0651770960    0.0199851580    0.0003813795    
0.0653997570    0.0202101660    0.0003826887    
0.0656224180    0.0193956910    0.0003757134    
0.0658450790    0.0200228640    0.0003762526    
0.0660677400    0.0191240790    0.0003692760    
0.0662904010    0.0200361250    0.0003824914    
0.0665130620    0.0196672340    0.0003773101    
0.0667357230    0.0196379780    0.0003837329    
0.0669583840    0.0197525800    0.0003835633    
0.0671810450    0.0195350630    0.0003793395    
0.0674037060    0.0193950790    0.0003843814    
0.0676263670    0.0193298160    0.0003809247    
0.0678490280    0.0196724940    0.0003819362    
0.0680716890    0.0192983560    0.0003791287    
0.0682943500    0.0196939640    0.0003788001    
0.0685170110    0.0194088550    0.0003722162    
0.0687396720    0.0188088340    0.0003654440    
0.0689623330    0.0195929080    0.0003718014    
0.0691849940    0.0197079700    0.0003754751    
0.0694076550    0.0192581850    0.0003709676    
0.0696303160    0.0197773340    0.0003729581    
0.0698529770    0.0201707760    0.0003758602    
0.0700756380    0.0199087680    0.0003686177    
0.0702982990    0.0198356100    0.0003719467    
0.0705209600    0.0190140420    0.0003615333    
0.0707436210    0.0195277350    0.0003647019    
0.0709662820    0.0192777190    0.0003666795    
0.0711889430    0.0200454580    0.0003693173    
0.0714116040    0.0197721160    0.0003675394    
0.0716342650    0.0194221320    0.0003627929    
0.0718569260    0.0199920030    0.0003665944    
0.0720795870    0.0192527630    0.0003612081    
0.0723022480    0.0190463850    0.0003598144    
0.0725249090    0.0198072370    0.0003625365    
0.0727475700    0.0191751260    0.0003597515    
0.0729702310    0.0195546270    0.0003603966    
0.0731928920    0.0191287470    0.0003578750    
0.0734155530    0.0195859820    0.0003614044    
0.0736382140    0.0200727380    0.0003635197    
0.0738608750    0.0196393830    0.0003618972    
0.0740835360    0.0198737730    0.0003631465    
0.0743061970    0.0196727790    0.0003562179    
0.0745288580    0.0196515050    0.0003596861    
0.0747515190    0.0191013080    0.0003553155    
0.0749741800    0.0199041220    0.0003593481    
0.0751968410    0.0197961530    0.0003611859    
0.0754195020    0.0193499440    0.0003550000    
0.0756421630    0.0188747120    0.0003477475    
0.0758648240    0.0195835910    0.0003550690    
0.0760874850    0.0193139570    0.0003524468    
0.0763101460    0.0195015850    0.0003538148    
0.0765328070    0.0195489530    0.0003578690    
0.0767554680    0.0194202650    0.0003542688    
0.0769781290    0.0196512990    0.0003543220    
0.0772007900    0.0193184880    0.0003484912    
0.0774234510    0.0195961030    0.0003529827    
0.0776461120    0.0189433650    0.0003467248    
0.0778687730    0.0190579760    0.0003466233    
0.0780914340    0.0190691160    0.0003492020    
0.0783140950    0.0192182230    0.0003450026    
0.0785367560    0.0190627750    0.0003491444    
0.0787594170    0.0197213420    0.0003519424    
0.0789820780    0.0198119320    0.0003509424    
0.0792047390    0.0196601180    0.0003507382    
0.0794274000    0.0192275900    0.0003483282    
0.0796500610    0.0199926390    0.0003517237    
0.0798727220    0.0193257600    0.0003454887    
0.0800953830    0.0199378420    0.0003501101    
0.0803180440    0.0190321480    0.0003444486    
0.0805407050    0.0196936670    0.0003500578    
0.0807633660    0.0197068100    0.0003498495    
0.0809860270    0.0197526490    0.0003489628    
0.0812086880    0.0192188460    0.0003412406    
0.0814313490    0.0195963210    0.0003461470    
0.0816540100    0.0199575950    0.0003485279    
0.0818766710    0.0192845480    0.0003433829    
0.0820993320    0.0200733020    0.0003496964    
0.0823219930    0.0195328490    0.0003463794    
0.0825446540    0.0193953320    0.0003426502    
0.0827673150    0.0195297800    0.0003415258    
0.0829899760    0.0197935740    0.0003432125    
0.0832126370    0.0198031550    0.0003448332    
0.0834352980    0.0196369870    0.0003426156    
0.0836579590    0.0197758080    0.0003430592    
0.0838806200    0.0194147000    0.0003409763    
0.0841032810    0.0194760380    0.0003393945    
0.0843259420    0.0191270250    0.0003353039    
0.0845486030    0.0198970740    0.0003419872    
0.0847712640    0.0195333610    0.0003367821    
0.0849939250    0.0191877460    0.0003343706    
0.0852165860    0.0197696800    0.0003398478    
0.0854392470    0.0195116550    0.0003344255    
0.0856619080    0.0194801990    0.0003366168    
0.0858845690    0.0191423070    0.0003306794    
0.0861072300    0.0193669710    0.0003349104    
0.0863298910    0.0197107850    0.0003396393    
0.0865525520    0.0196191750    0.0003359231    
0.0867752130    0.0193943860    0.0003312981    
0.0869978740    0.0199541090    0.0003369012    
0.0872205350    0.0191998270    0.0003300518    
0.0874431960    0.0191885090    0.0003299548    
0.0876658570    0.0189587960    0.0003292331    
0.0878885180    0.0195918270    0.0003352583    
0.0881111790    0.0194271330    0.0003334178    
0.0883338400    0.0193624550    0.0003279888    
0.0885565010    0.0192005290    0.0003310436    
0.0887791620    0.0189615690    0.0003247111    
0.0890018230    0.0189910510    0.0003281154    
0.0892244840    0.0196700080    0.0003344969    
0.0894471450    0.0199779740    0.0003356813    
0.0896698060    0.0191893900    0.0003277485    
0.0898924670    0.0192660030    0.0003299244    
0.0901151280    0.0195707530    0.0003289318    
0.0903377890    0.0189047200    0.0003259919    
0.0905604500    0.0195002480    0.0003295673    
0.0907831110    0.0197968410    0.0003312380    
0.0910057720    0.0195538680    0.0003307097    
0.0912284330    0.0192261760    0.0003232317    
0.0914510940    0.0199796120    0.0003331787    
0.0916737550    0.0193830040    0.0003273521    
0.0918964160    0.0196672020    0.0003311146    
0.0921190770    0.0197292030    0.0003286375    
0.0923417380    0.0191482110    0.0003238953    
0.0925643990    0.0193708220    0.0003249754    
0.0927870600    0.0190627970    0.0003237033    
0.0930097210    0.0192203840    0.0003222702    
0.0932323820    0.0194601290    0.0003266576    
