# Diamond Light Source Ltd.
# Data extracted from: /dls/b21/data/2018/cm19678-3/processed/b21-386631_00099.dat
q(1/A)          Column          Error           
0.0035000000    2.1138517000    0.0247951680    
0.0037226610    1.8604906000    0.0227720350    
0.0039453220    1.6174519000    0.0193156990    
0.0041679830    1.3101900000    0.0142766620    
0.0043906440    0.9550194300    0.0116587220    
0.0046133050    0.7722985300    0.0100647110    
0.0048359660    0.5801006800    0.0082510281    
0.0050586270    0.4573740700    0.0072011787    
0.0052812880    0.4363318400    0.0066501330    
0.0055039490    0.3812963000    0.0059110377    
0.0057266100    0.3286386800    0.0053089169    
0.0059492710    0.2717787300    0.0048278564    
0.0061719320    0.2239359900    0.0042229530    
0.0063945930    0.1994586700    0.0040337919    
0.0066172539    0.1800387000    0.0035986154    
0.0068399149    0.1697438600    0.0034391841    
0.0070625759    0.1473718900    0.0031716724    
0.0072852369    0.1231249700    0.0028556597    
0.0075078979    0.1221802100    0.0028307039    
0.0077305589    0.0968703260    0.0024725015    
0.0079532199    0.1005867500    0.0024845703    
0.0081758809    0.0894631570    0.0023649633    
0.0083985419    0.0817414430    0.0021084476    
0.0086212029    0.0752695770    0.0020232588    
0.0088438639    0.0721387220    0.0019648233    
0.0090665249    0.0642983310    0.0017916030    
0.0092891859    0.0659152970    0.0018933674    
0.0095118469    0.0621160870    0.0017675455    
0.0097345079    0.0578326970    0.0016564243    
0.0099571689    0.0523777590    0.0015438648    
0.0101798300    0.0522867560    0.0015425231    
0.0104024910    0.0484079670    0.0014791837    
0.0106251520    0.0449147490    0.0014296522    
0.0108478130    0.0460923440    0.0014104028    
0.0110704740    0.0421316940    0.0012838109    
0.0112931350    0.0406088040    0.0012640968    
0.0115157960    0.0401755090    0.0012500035    
0.0117384570    0.0387987370    0.0012178241    
0.0119611180    0.0367919140    0.0011893137    
0.0121837790    0.0359743230    0.0011562585    
0.0124064400    0.0370649680    0.0011247311    
0.0126291010    0.0343790790    0.0010696559    
0.0128517620    0.0333468820    0.0010561064    
0.0130744230    0.0338426670    0.0010560375    
0.0132970840    0.0322072440    0.0010251679    
0.0135197450    0.0296428210    0.0009694239    
0.0137424060    0.0301179430    0.0009635584    
0.0139650670    0.0311781540    0.0009585341    
0.0141877280    0.0300729450    0.0009434722    
0.0144103890    0.0319607350    0.0009558634    
0.0146330500    0.0291287780    0.0009067393    
0.0148557110    0.0277374660    0.0008811097    
0.0150783720    0.0282994500    0.0008826356    
0.0153010330    0.0269986730    0.0008499568    
0.0155236940    0.0264405730    0.0008361243    
0.0157463550    0.0269621260    0.0008297021    
0.0159690160    0.0270112640    0.0008273062    
0.0161916770    0.0262317450    0.0008106882    
0.0164143380    0.0259439620    0.0008123370    
0.0166369990    0.0264234240    0.0007945323    
0.0168596600    0.0252791800    0.0007702915    
0.0170823210    0.0245203990    0.0007520746    
0.0173049820    0.0255311320    0.0007687450    
0.0175276430    0.0242286920    0.0007567772    
0.0177503040    0.0253886150    0.0007549318    
0.0179729650    0.0232591690    0.0007154128    
0.0181956260    0.0241541360    0.0007150702    
0.0184182870    0.0240528100    0.0007102056    
0.0186409480    0.0232327170    0.0007024111    
0.0188636090    0.0225220010    0.0006872343    
0.0190862700    0.0231832910    0.0006961604    
0.0193089310    0.0236945850    0.0007026982    
0.0195315920    0.0233743660    0.0006741982    
0.0197542530    0.0227599190    0.0006662470    
0.0199769140    0.0237545770    0.0006806497    
0.0201995750    0.0237345310    0.0006697085    
0.0204222360    0.0232018420    0.0006678345    
0.0206448970    0.0239723390    0.0006740081    
0.0208675580    0.0225407630    0.0006401147    
0.0210902190    0.0219401410    0.0006376224    
0.0213128800    0.0227371620    0.0006402929    
0.0215355410    0.0235013560    0.0006432093    
0.0217582020    0.0221282510    0.0006241363    
0.0219808630    0.0214732140    0.0006140219    
0.0222035240    0.0213789170    0.0006071205    
0.0224261850    0.0221008680    0.0006117924    
0.0226488460    0.0221538800    0.0006079261    
0.0228715070    0.0222099380    0.0006071826    
0.0230941680    0.0220107540    0.0006044539    
0.0233168290    0.0216200780    0.0006005577    
0.0235394900    0.0210312880    0.0005857866    
0.0237621510    0.0220307160    0.0005834033    
0.0239848120    0.0216945960    0.0005796055    
0.0242074730    0.0199010510    0.0005506865    
0.0244301340    0.0208017820    0.0005636532    
0.0246527950    0.0202864880    0.0005617823    
0.0248754560    0.0198159800    0.0005427508    
0.0250981170    0.0209496980    0.0005593053    
0.0253207780    0.0199141240    0.0005290251    
0.0255434390    0.0202122780    0.0005386590    
0.0257661000    0.0213690830    0.0005556506    
0.0259887610    0.0197010280    0.0005278534    
0.0262114220    0.0210550370    0.0005485985    
0.0264340830    0.0207363290    0.0005370232    
0.0266567440    0.0204945970    0.0005305850    
0.0268794050    0.0211996080    0.0005374314    
0.0271020660    0.0208796500    0.0005312011    
0.0273247270    0.0206830140    0.0005255186    
0.0275473880    0.0211327620    0.0005301446    
0.0277700490    0.0206208100    0.0005205881    
0.0279927100    0.0201850580    0.0005105644    
0.0282153710    0.0209034110    0.0005220960    
0.0284380320    0.0207648790    0.0005173466    
0.0286606930    0.0208543830    0.0005140229    
0.0288833540    0.0199925620    0.0005042457    
0.0291060150    0.0208178130    0.0005140593    
0.0293286760    0.0203404250    0.0005010504    
0.0295513370    0.0201292770    0.0004930153    
0.0297739980    0.0211056820    0.0005103890    
0.0299966590    0.0189718690    0.0004756363    
0.0302193200    0.0198111670    0.0004931264    
0.0304419810    0.0201675020    0.0004984571    
0.0306646420    0.0196966610    0.0004787008    
0.0308873030    0.0206687280    0.0004882528    
0.0311099640    0.0199530380    0.0004809707    
0.0313326250    0.0209647220    0.0004875517    
0.0315552860    0.0206856120    0.0004905717    
0.0317779470    0.0191133430    0.0004719704    
0.0320006080    0.0201246760    0.0004732926    
0.0322232690    0.0201251550    0.0004752795    
0.0324459300    0.0209536310    0.0004813430    
0.0326685910    0.0202453910    0.0004723583    
0.0328912520    0.0202576660    0.0004740662    
0.0331139130    0.0197556690    0.0004620656    
0.0333365740    0.0205803370    0.0004731425    
0.0335592350    0.0204745400    0.0004673870    
0.0337818960    0.0204526020    0.0004667646    
0.0340045570    0.0204620150    0.0004661305    
0.0342272170    0.0198900450    0.0004577568    
0.0344498780    0.0197293570    0.0004577096    
0.0346725390    0.0204067190    0.0004568796    
0.0348952000    0.0200691770    0.0004510212    
0.0351178610    0.0201817080    0.0004543540    
0.0353405220    0.0200590660    0.0004509079    
0.0355631830    0.0196064660    0.0004441129    
0.0357858440    0.0193952230    0.0004417141    
0.0360085050    0.0200388780    0.0004503403    
0.0362311660    0.0205336810    0.0004504474    
0.0364538270    0.0201178830    0.0004422848    
0.0366764880    0.0195449720    0.0004356254    
0.0368991490    0.0199058930    0.0004374129    
0.0371218100    0.0192474190    0.0004288869    
0.0373444710    0.0201865110    0.0004440082    
0.0375671320    0.0198648410    0.0004398150    
0.0377897930    0.0202171850    0.0004322122    
0.0380124540    0.0205278190    0.0004382526    
0.0382351150    0.0192273010    0.0004241431    
0.0384577760    0.0204364530    0.0004330573    
0.0386804370    0.0197898810    0.0004294038    
0.0389030980    0.0194912820    0.0004229248    
0.0391257590    0.0193633310    0.0004186727    
0.0393484200    0.0195928820    0.0004197297    
0.0395710810    0.0201866620    0.0004266163    
0.0397937420    0.0196186730    0.0004205718    
0.0400164030    0.0199058740    0.0004253625    
0.0402390640    0.0197686320    0.0004182491    
0.0404617250    0.0198683800    0.0004168293    
0.0406843860    0.0189974370    0.0004036530    
0.0409070470    0.0201220790    0.0004197569    
0.0411297080    0.0201210830    0.0004156858    
0.0413523690    0.0193099480    0.0004082706    
0.0415750300    0.0193145620    0.0004117878    
0.0417976910    0.0189782270    0.0003976297    
0.0420203520    0.0199940710    0.0004096664    
0.0422430130    0.0201203750    0.0004125141    
0.0424656740    0.0207864190    0.0004138291    
0.0426883350    0.0195121700    0.0004029342    
0.0429109960    0.0195840520    0.0004049370    
0.0431336570    0.0193534980    0.0003968748    
0.0433563180    0.0188360490    0.0003949109    
0.0435789790    0.0194440470    0.0003949302    
0.0438016400    0.0198589040    0.0004012923    
0.0440243010    0.0199585200    0.0003982158    
0.0442469620    0.0195069150    0.0003960438    
0.0444696230    0.0202454150    0.0004020241    
0.0446922840    0.0199031470    0.0003974276    
0.0449149450    0.0198457890    0.0003915492    
0.0451376060    0.0204261020    0.0004021385    
0.0453602670    0.0197365140    0.0003911481    
0.0455829280    0.0198378440    0.0003916975    
0.0458055890    0.0198507950    0.0003941102    
0.0460282500    0.0199171590    0.0003900081    
0.0462509110    0.0192855210    0.0003813871    
0.0464735720    0.0197905530    0.0003865667    
0.0466962330    0.0200166100    0.0003905355    
0.0469188940    0.0196153780    0.0003855056    
0.0471415550    0.0195418230    0.0003867583    
0.0473642160    0.0195862930    0.0003817766    
0.0475868770    0.0202689460    0.0003864434    
0.0478095380    0.0197048560    0.0003793607    
0.0480321990    0.0192998170    0.0003762641    
0.0482548600    0.0192047260    0.0003737007    
0.0484775210    0.0194025640    0.0003793501    
0.0487001820    0.0197676440    0.0003772973    
0.0489228430    0.0192500480    0.0003721249    
0.0491455040    0.0202191180    0.0003787388    
0.0493681650    0.0196732240    0.0003768015    
0.0495908260    0.0199725050    0.0003732690    
0.0498134870    0.0198071360    0.0003752590    
0.0500361480    0.0197943990    0.0003741458    
0.0502588090    0.0198780980    0.0003693181    
0.0504814700    0.0196054570    0.0003715715    
0.0507041310    0.0196370890    0.0003674498    
0.0509267920    0.0204169150    0.0003762248    
0.0511494530    0.0200566150    0.0003704040    
0.0513721140    0.0196665410    0.0003700145    
0.0515947750    0.0191756060    0.0003605227    
0.0518174360    0.0199163240    0.0003652067    
0.0520400970    0.0195156110    0.0003590074    
0.0522627580    0.0202987670    0.0003692516    
0.0524854190    0.0192375540    0.0003623926    
0.0527080800    0.0194048780    0.0003667832    
0.0529307410    0.0202104050    0.0003760767    
0.0531534020    0.0196883670    0.0003698365    
0.0533760630    0.0197628890    0.0003716957    
0.0535987240    0.0189623990    0.0003623903    
0.0538213850    0.0192059010    0.0003689351    
0.0540440460    0.0198178160    0.0003729927    
0.0542667070    0.0197289330    0.0003747201    
0.0544893680    0.0197855860    0.0003754577    
0.0547120290    0.0198949100    0.0003739143    
0.0549346900    0.0189098560    0.0003647318    
0.0551573510    0.0198545920    0.0003781313    
0.0553800120    0.0196458810    0.0003729409    
0.0556026730    0.0192887980    0.0003771980    
0.0558253340    0.0199956940    0.0003872634    
0.0560479950    0.0201082180    0.0003883517    
0.0562706560    0.0204300980    0.0003952321    
0.0564933170    0.0188182790    0.0003826150    
0.0567159780    0.0190911590    0.0003807585    
0.0569386390    0.0188956920    0.0003847460    
0.0571613000    0.0189532720    0.0003770349    
0.0573839610    0.0196725190    0.0003809329    
0.0576066220    0.0200041040    0.0003851932    
0.0578292830    0.0193045900    0.0003771464    
0.0580519440    0.0193135070    0.0003786962    
0.0582746050    0.0199531590    0.0003832189    
0.0584972660    0.0200563330    0.0003827377    
0.0587199270    0.0194536150    0.0003736936    
0.0589425880    0.0195459730    0.0003723887    
0.0591652490    0.0196905450    0.0003759628    
0.0593879100    0.0205307210    0.0003810489    
0.0596105710    0.0193441420    0.0003694834    
0.0598332320    0.0198413560    0.0003774004    
0.0600558930    0.0199576930    0.0003760919    
0.0602785540    0.0197528580    0.0003737614    
0.0605012150    0.0192401160    0.0003681013    
0.0607238760    0.0193354890    0.0003663234    
0.0609465370    0.0199019770    0.0003745767    
0.0611691980    0.0198448830    0.0003746319    
0.0613918590    0.0199120880    0.0003711688    
0.0616145200    0.0193972850    0.0003690205    
0.0618371810    0.0192934670    0.0003644171    
0.0620598420    0.0190573750    0.0003625539    
0.0622825030    0.0198295700    0.0003754819    
0.0625051640    0.0195045760    0.0003671622    
0.0627278250    0.0194793980    0.0003661696    
0.0629504860    0.0194957780    0.0003633455    
0.0631731470    0.0198631870    0.0003712907    
0.0633958080    0.0195870090    0.0003708225    
0.0636184690    0.0196023140    0.0003761339    
0.0638411300    0.0193193220    0.0003720073    
0.0640637910    0.0196065670    0.0003773985    
0.0642864520    0.0198255890    0.0003786793    
0.0645091130    0.0192030180    0.0003759520    
0.0647317740    0.0196437170    0.0003806607    
0.0649544350    0.0199096520    0.0003828071    
0.0651770960    0.0203409710    0.0003848208    
0.0653997570    0.0201586100    0.0003822611    
0.0656224180    0.0195984330    0.0003777320    
0.0658450790    0.0195412370    0.0003717591    
0.0660677400    0.0202072190    0.0003796499    
0.0662904010    0.0200205910    0.0003824040    
0.0665130620    0.0202020790    0.0003824670    
0.0667357230    0.0192691960    0.0003801732    
0.0669583840    0.0195279000    0.0003814363    
0.0671810450    0.0204844510    0.0003885098    
0.0674037060    0.0194393550    0.0003848811    
0.0676263670    0.0203346820    0.0003907627    
0.0678490280    0.0193746370    0.0003790941    
0.0680716890    0.0203401320    0.0003892893    
0.0682943500    0.0194670070    0.0003766710    
0.0685170110    0.0198006200    0.0003760139    
0.0687396720    0.0203489860    0.0003801723    
0.0689623330    0.0199167400    0.0003749210    
0.0691849940    0.0196283730    0.0003747757    
0.0694076550    0.0198433170    0.0003766210    
0.0696303160    0.0194600000    0.0003700128    
0.0698529770    0.0196377370    0.0003709197    
0.0700756380    0.0199492420    0.0003690509    
0.0702982990    0.0192488990    0.0003664629    
0.0705209600    0.0191576230    0.0003629536    
0.0707436210    0.0192137230    0.0003618153    
0.0709662820    0.0196675790    0.0003704276    
0.0711889430    0.0194664830    0.0003640026    
0.0714116040    0.0192521700    0.0003627323    
0.0716342650    0.0199367310    0.0003676262    
0.0718569260    0.0191309190    0.0003586697    
0.0720795870    0.0196113950    0.0003646148    
0.0723022480    0.0193584300    0.0003628076    
0.0725249090    0.0194351930    0.0003591727    
0.0727475700    0.0199036490    0.0003665802    
0.0729702310    0.0198199800    0.0003628913    
0.0731928920    0.0197911940    0.0003640770    
0.0734155530    0.0197456460    0.0003629322    
0.0736382140    0.0205532830    0.0003679038    
0.0738608750    0.0197923930    0.0003633620    
0.0740835360    0.0200526820    0.0003648355    
0.0743061970    0.0194854770    0.0003545745    
0.0745288580    0.0189531110    0.0003532931    
0.0747515190    0.0197685440    0.0003615256    
0.0749741800    0.0189824290    0.0003509852    
0.0751968410    0.0203430010    0.0003661989    
0.0754195020    0.0194082230    0.0003555908    
0.0756421630    0.0197523350    0.0003557969    
0.0758648240    0.0197250610    0.0003564059    
0.0760874850    0.0191721320    0.0003512063    
0.0763101460    0.0196426390    0.0003551486    
0.0765328070    0.0205578380    0.0003670457    
0.0767554680    0.0189997760    0.0003504683    
0.0769781290    0.0198301010    0.0003559869    
0.0772007900    0.0198528740    0.0003533345    
0.0774234510    0.0195387380    0.0003525217    
0.0776461120    0.0195207340    0.0003520251    
0.0778687730    0.0193226020    0.0003490770    
0.0780914340    0.0192862800    0.0003512407    
0.0783140950    0.0195650880    0.0003481575    
0.0785367560    0.0192991270    0.0003513581    
0.0787594170    0.0196836410    0.0003516618    
0.0789820780    0.0189352170    0.0003431442    
0.0792047390    0.0195224150    0.0003495633    
0.0794274000    0.0195745770    0.0003515131    
0.0796500610    0.0197080860    0.0003492673    
0.0798727220    0.0194987260    0.0003470865    
0.0800953830    0.0197473920    0.0003484894    
0.0803180440    0.0192252830    0.0003462470    
0.0805407050    0.0197435060    0.0003505562    
0.0807633660    0.0195826160    0.0003488009    
0.0809860270    0.0188462270    0.0003409163    
0.0812086880    0.0192067820    0.0003411878    
0.0814313490    0.0191071440    0.0003418537    
0.0816540100    0.0193185740    0.0003429573    
0.0818766710    0.0200062890    0.0003498052    
0.0820993320    0.0193606010    0.0003434869    
0.0823219930    0.0194407580    0.0003456169    
0.0825446540    0.0191592900    0.0003406130    
0.0827673150    0.0190042840    0.0003369533    
0.0829899760    0.0202046830    0.0003468136    
0.0832126370    0.0191907890    0.0003395138    
0.0834352980    0.0200259370    0.0003460471    
0.0836579590    0.0196511350    0.0003420305    
0.0838806200    0.0199420450    0.0003456311    
0.0841032810    0.0194999870    0.0003396571    
0.0843259420    0.0194329880    0.0003380289    
0.0845486030    0.0193918580    0.0003376713    
0.0847712640    0.0195570040    0.0003370395    
0.0849939250    0.0195319170    0.0003374098    
0.0852165860    0.0190805410    0.0003339251    
0.0854392470    0.0192025070    0.0003318183    
0.0856619080    0.0194573080    0.0003364725    
0.0858845690    0.0194512550    0.0003333902    
0.0861072300    0.0190660860    0.0003323515    
0.0863298910    0.0196877890    0.0003394951    
0.0865525520    0.0185207350    0.0003264358    
0.0867752130    0.0194854760    0.0003321281    
0.0869978740    0.0193118030    0.0003314873    
0.0872205350    0.0192059380    0.0003301569    
0.0874431960    0.0191548890    0.0003297181    
0.0876658570    0.0195825040    0.0003346581    
0.0878885180    0.0192422570    0.0003323068    
0.0881111790    0.0193875250    0.0003331308    
0.0883338400    0.0200522170    0.0003338329    
0.0885565010    0.0194236010    0.0003330141    
0.0887791620    0.0197185210    0.0003311816    
0.0890018230    0.0200064940    0.0003368268    
0.0892244840    0.0198355920    0.0003359553    
0.0894471450    0.0194539750    0.0003313025    
0.0896698060    0.0200690390    0.0003352298    
0.0898924670    0.0192551810    0.0003298842    
0.0901151280    0.0195659220    0.0003289436    
0.0903377890    0.0192987370    0.0003294240    
0.0905604500    0.0196624630    0.0003309879    
0.0907831110    0.0196479120    0.0003300422    
0.0910057720    0.0190677330    0.0003266249    
0.0912284330    0.0198193760    0.0003282325    
0.0914510940    0.0191578550    0.0003263069    
0.0916737550    0.0191347820    0.0003253011    
0.0918964160    0.0189373810    0.0003249646    
0.0921190770    0.0195931070    0.0003275542    
0.0923417380    0.0200366650    0.0003313770    
0.0925643990    0.0193497190    0.0003248500    
0.0927870600    0.0190193780    0.0003233859    
0.0930097210    0.0192967710    0.0003229613    
0.0932323820    0.0193237140    0.0003255624    
