# Diamond Light Source Ltd.
# Data extracted from: /dls/b21/data/2018/cm19678-3/processed/b21-386631_00110.dat
q(1/A)          Column          Error           
0.0035000000    2.1100046000    0.0247824570    
0.0037226610    1.8622511000    0.0227918770    
0.0039453220    1.6519828000    0.0195285660    
0.0041679830    1.2841431000    0.0141396640    
0.0043906440    0.9631869000    0.0117131310    
0.0046133050    0.7831525600    0.0101392250    
0.0048359660    0.5817371600    0.0082659475    
0.0050586270    0.4576248300    0.0072060201    
0.0052812880    0.4280573100    0.0065893973    
0.0055039490    0.3838926600    0.0059334898    
0.0057266100    0.3157684100    0.0052059955    
0.0059492710    0.2643562900    0.0047633698    
0.0061719320    0.2163835000    0.0041527828    
0.0063945930    0.2025566700    0.0040666160    
0.0066172539    0.1792462500    0.0035921164    
0.0068399149    0.1708553500    0.0034517993    
0.0070625759    0.1433904300    0.0031297809    
0.0072852369    0.1314423100    0.0029517110    
0.0075078979    0.1148607900    0.0027456979    
0.0077305589    0.1029474800    0.0025498927    
0.0079532199    0.1001140700    0.0024797125    
0.0081758809    0.0921622460    0.0024013291    
0.0083985419    0.0823508260    0.0021171347    
0.0086212029    0.0785952490    0.0020682960    
0.0088438639    0.0703751990    0.0019414310    
0.0090665249    0.0676469500    0.0018383952    
0.0092891859    0.0661310750    0.0018972189    
0.0095118469    0.0592963740    0.0017276489    
0.0097345079    0.0569766220    0.0016447734    
0.0099571689    0.0545144280    0.0015756668    
0.0101798300    0.0482295650    0.0014820586    
0.0104024910    0.0467275930    0.0014538622    
0.0106251520    0.0470910180    0.0014644610    
0.0108478130    0.0458267060    0.0014068926    
0.0110704740    0.0467067210    0.0013522567    
0.0112931350    0.0443035710    0.0013208773    
0.0115157960    0.0395847340    0.0012412728    
0.0117384570    0.0378349840    0.0012030825    
0.0119611180    0.0387834720    0.0012215645    
0.0121837790    0.0374163110    0.0011796739    
0.0124064400    0.0366162870    0.0011183479    
0.0126291010    0.0358386720    0.0010925612    
0.0128517620    0.0353149220    0.0010872565    
0.0130744230    0.0326493880    0.0010376657    
0.0132970840    0.0306653350    0.0010007254    
0.0135197450    0.0317287990    0.0010033527    
0.0137424060    0.0335355940    0.0010171646    
0.0139650670    0.0300232860    0.0009409885    
0.0141877280    0.0312818110    0.0009626312    
0.0144103890    0.0286674050    0.0009056378    
0.0146330500    0.0287847510    0.0009017276    
0.0148557110    0.0283197880    0.0008906651    
0.0150783720    0.0285423910    0.0008867689    
0.0153010330    0.0275557570    0.0008590227    
0.0155236940    0.0272290160    0.0008488369    
0.0157463550    0.0278779400    0.0008440114    
0.0159690160    0.0260184120    0.0008122825    
0.0161916770    0.0269547110    0.0008221110    
0.0164143380    0.0260155340    0.0008137805    
0.0166369990    0.0252250560    0.0007766153    
0.0168596600    0.0249704430    0.0007658781    
0.0170823210    0.0268023090    0.0007866039    
0.0173049820    0.0271962090    0.0007937328    
0.0175276430    0.0252888750    0.0007734650    
0.0177503040    0.0245551320    0.0007427321    
0.0179729650    0.0244008350    0.0007330521    
0.0181956260    0.0232835540    0.0007023449    
0.0184182870    0.0238620960    0.0007076660    
0.0186409480    0.0248452230    0.0007266674    
0.0188636090    0.0247015880    0.0007200069    
0.0190862700    0.0231808320    0.0006964006    
0.0193089310    0.0222118100    0.0006806270    
0.0195315920    0.0237238290    0.0006794898    
0.0197542530    0.0229927470    0.0006699127    
0.0199769140    0.0242029000    0.0006873162    
0.0201995750    0.0229591300    0.0006589403    
0.0204222360    0.0225469870    0.0006586045    
0.0206448970    0.0222655640    0.0006498298    
0.0208675580    0.0231954520    0.0006496026    
0.0210902190    0.0226066980    0.0006474933    
0.0213128800    0.0222860880    0.0006341622    
0.0215355410    0.0220930100    0.0006238873    
0.0217582020    0.0211944990    0.0006110691    
0.0219808630    0.0221053280    0.0006232419    
0.0222035240    0.0223794660    0.0006214121    
0.0224261850    0.0217116920    0.0006066233    
0.0226488460    0.0215370960    0.0005996423    
0.0228715070    0.0227260020    0.0006144407    
0.0230941680    0.0213305550    0.0005952777    
0.0233168290    0.0207524370    0.0005886180    
0.0235394900    0.0208847460    0.0005839746    
0.0237621510    0.0214143340    0.0005754130    
0.0239848120    0.0214949090    0.0005771615    
0.0242074730    0.0211826750    0.0005683681    
0.0244301340    0.0214603230    0.0005727337    
0.0246527950    0.0223111100    0.0005893837    
0.0248754560    0.0219443710    0.0005713828    
0.0250981170    0.0210411020    0.0005607472    
0.0253207780    0.0203097360    0.0005344667    
0.0255434390    0.0210041780    0.0005493283    
0.0257661000    0.0206920280    0.0005469949    
0.0259887610    0.0204244240    0.0005376710    
0.0262114220    0.0205138950    0.0005417183    
0.0264340830    0.0205023050    0.0005341968    
0.0266567440    0.0213632480    0.0005419282    
0.0268794050    0.0199620450    0.0005217164    
0.0271020660    0.0205040500    0.0005266112    
0.0273247270    0.0201916870    0.0005194459    
0.0275473880    0.0204175410    0.0005213036    
0.0277700490    0.0200058830    0.0005129713    
0.0279927100    0.0212221750    0.0005237250    
0.0282153710    0.0204893890    0.0005171055    
0.0284380320    0.0199171350    0.0005068778    
0.0286606930    0.0201102010    0.0005049691    
0.0288833540    0.0201866760    0.0005068894    
0.0291060150    0.0193607400    0.0004959404    
0.0293286760    0.0202207480    0.0004997731    
0.0295513370    0.0203265780    0.0004956228    
0.0297739980    0.0208877950    0.0005079498    
0.0299966590    0.0205503300    0.0004952246    
0.0302193200    0.0201094840    0.0004970231    
0.0304419810    0.0201835620    0.0004988540    
0.0306646420    0.0204109530    0.0004874974    
0.0308873030    0.0203619810    0.0004848091    
0.0311099640    0.0201197680    0.0004831683    
0.0313326250    0.0202778760    0.0004796895    
0.0315552860    0.0206671550    0.0004905480    
0.0317779470    0.0202949400    0.0004865339    
0.0320006080    0.0208313680    0.0004817226    
0.0322232690    0.0196469190    0.0004697854    
0.0324459300    0.0210035150    0.0004821075    
0.0326685910    0.0202284240    0.0004723483    
0.0328912520    0.0205735750    0.0004779385    
0.0331139130    0.0205068800    0.0004709561    
0.0333365740    0.0199544390    0.0004660777    
0.0335592350    0.0205335560    0.0004682465    
0.0337818960    0.0200104710    0.0004618758    
0.0340045570    0.0202126340    0.0004634658    
0.0342272170    0.0199586020    0.0004587275    
0.0344498780    0.0203614370    0.0004651689    
0.0346725390    0.0199315900    0.0004517092    
0.0348952000    0.0199329990    0.0004496674    
0.0351178610    0.0197678220    0.0004498499    
0.0353405220    0.0205518100    0.0004565941    
0.0355631830    0.0209912960    0.0004597124    
0.0357858440    0.0196019560    0.0004442387    
0.0360085050    0.0199839350    0.0004499015    
0.0362311660    0.0201940170    0.0004468841    
0.0364538270    0.0200171290    0.0004413515    
0.0366764880    0.0192981750    0.0004330386    
0.0368991490    0.0196716410    0.0004350047    
0.0371218100    0.0203913490    0.0004416237    
0.0373444710    0.0199289190    0.0004413419    
0.0375671320    0.0206115660    0.0004481834    
0.0377897930    0.0198356480    0.0004282849    
0.0380124540    0.0201789790    0.0004346859    
0.0382351150    0.0197014380    0.0004295118    
0.0384577760    0.0200670000    0.0004292959    
0.0386804370    0.0196564460    0.0004281241    
0.0389030980    0.0203425480    0.0004322335    
0.0391257590    0.0195418260    0.0004207655    
0.0393484200    0.0195544920    0.0004194852    
0.0395710810    0.0197245140    0.0004218725    
0.0397937420    0.0201486140    0.0004263839    
0.0400164030    0.0202401100    0.0004290895    
0.0402390640    0.0204220100    0.0004252740    
0.0404617250    0.0199367130    0.0004177118    
0.0406843860    0.0200082570    0.0004144175    
0.0409070470    0.0192091920    0.0004102880    
0.0411297080    0.0199909980    0.0004145049    
0.0413523690    0.0204743060    0.0004205668    
0.0415750300    0.0202788670    0.0004221102    
0.0417976910    0.0189599900    0.0003975968    
0.0420203520    0.0198503840    0.0004083542    
0.0422430130    0.0199332570    0.0004107549    
0.0424656740    0.0197475700    0.0004035161    
0.0426883350    0.0196193100    0.0004041998    
0.0429109960    0.0197839960    0.0004071609    
0.0431336570    0.0195969710    0.0003995224    
0.0433563180    0.0195388020    0.0004023704    
0.0435789790    0.0199010640    0.0003997036    
0.0438016400    0.0195176390    0.0003979878    
0.0440243010    0.0198710430    0.0003975004    
0.0442469620    0.0202306010    0.0004034838    
0.0444696230    0.0197901540    0.0003976364    
0.0446922840    0.0199428240    0.0003979819    
0.0449149450    0.0198847870    0.0003920897    
0.0451376060    0.0201967430    0.0004000336    
0.0453602670    0.0198298130    0.0003922276    
0.0455829280    0.0194124500    0.0003876293    
0.0458055890    0.0202268170    0.0003979838    
0.0460282500    0.0199330200    0.0003903187    
0.0462509110    0.0196254540    0.0003848868    
0.0464735720    0.0194738150    0.0003836134    
0.0466962330    0.0191022230    0.0003816630    
0.0469188940    0.0191760510    0.0003813158    
0.0471415550    0.0200246790    0.0003916632    
0.0473642160    0.0191178020    0.0003773332    
0.0475868770    0.0199311490    0.0003833622    
0.0478095380    0.0206780690    0.0003887707    
0.0480321990    0.0199098380    0.0003823164    
0.0482548600    0.0195111220    0.0003768199    
0.0484775210    0.0199301870    0.0003846265    
0.0487001820    0.0195527610    0.0003753904    
0.0489228430    0.0194309620    0.0003740183    
0.0491455040    0.0194755120    0.0003718570    
0.0493681650    0.0198839020    0.0003789645    
0.0495908260    0.0193879900    0.0003679128    
0.0498134870    0.0193533070    0.0003710827    
0.0500361480    0.0190882490    0.0003675578    
0.0502588090    0.0193651640    0.0003646671    
0.0504814700    0.0202342290    0.0003776331    
0.0507041310    0.0199142130    0.0003701808    
0.0509267920    0.0195242620    0.0003680549    
0.0511494530    0.0192852930    0.0003633564    
0.0513721140    0.0197100710    0.0003705712    
0.0515947750    0.0191433920    0.0003603632    
0.0518174360    0.0201466530    0.0003674586    
0.0520400970    0.0198153620    0.0003618980    
0.0522627580    0.0195889180    0.0003628822    
0.0524854190    0.0203118500    0.0003725221    
0.0527080800    0.0194133930    0.0003670097    
0.0529307410    0.0198763190    0.0003731039    
0.0531534020    0.0197527150    0.0003705879    
0.0533760630    0.0199045610    0.0003731741    
0.0535987240    0.0194280250    0.0003669586    
0.0538213850    0.0199375580    0.0003760465    
0.0540440460    0.0201708320    0.0003764499    
0.0542667070    0.0198942240    0.0003764363    
0.0544893680    0.0192594260    0.0003705792    
0.0547120290    0.0198404220    0.0003735505    
0.0549346900    0.0193262250    0.0003688721    
0.0551573510    0.0195893200    0.0003757462    
0.0553800120    0.0193285200    0.0003700636    
0.0556026730    0.0200202210    0.0003844360    
0.0558253340    0.0196738370    0.0003842869    
0.0560479950    0.0189382450    0.0003770345    
0.0562706560    0.0192067300    0.0003833686    
0.0564933170    0.0193704680    0.0003883425    
0.0567159780    0.0197675610    0.0003875992    
0.0569386390    0.0196242040    0.0003922488    
0.0571613000    0.0196063990    0.0003836288    
0.0573839610    0.0194076640    0.0003785105    
0.0576066220    0.0202501500    0.0003877092    
0.0578292830    0.0196960390    0.0003811026    
0.0580519440    0.0198639430    0.0003842076    
0.0582746050    0.0193355780    0.0003773918    
0.0584972660    0.0195752490    0.0003782701    
0.0587199270    0.0200510240    0.0003795392    
0.0589425880    0.0193556280    0.0003707186    
0.0591652490    0.0195984630    0.0003752320    
0.0593879100    0.0197118810    0.0003735214    
0.0596105710    0.0195573090    0.0003716615    
0.0598332320    0.0189232090    0.0003687117    
0.0600558930    0.0195054550    0.0003719544    
0.0602785540    0.0197190430    0.0003735900    
0.0605012150    0.0205522910    0.0003805980    
0.0607238760    0.0196217720    0.0003691722    
0.0609465370    0.0192616590    0.0003686484    
0.0611691980    0.0188273080    0.0003650459    
0.0613918590    0.0192701430    0.0003652820    
0.0616145200    0.0198413160    0.0003733689    
0.0618371810    0.0192192790    0.0003638606    
0.0620598420    0.0191139680    0.0003632364    
0.0622825030    0.0194041950    0.0003715806    
0.0625051640    0.0194371040    0.0003666725    
0.0627278250    0.0197429020    0.0003687847    
0.0629504860    0.0195045260    0.0003635716    
0.0631731470    0.0194483630    0.0003675395    
0.0633958080    0.0196166600    0.0003712508    
0.0636184690    0.0190689690    0.0003711293    
0.0638411300    0.0192558480    0.0003715435    
0.0640637910    0.0196876120    0.0003783282    
0.0642864520    0.0190089220    0.0003709455    
0.0645091130    0.0194245630    0.0003782650    
0.0647317740    0.0195412420    0.0003798177    
0.0649544350    0.0196087620    0.0003800547    
0.0651770960    0.0195338480    0.0003772588    
0.0653997570    0.0190719850    0.0003719637    
0.0656224180    0.0194610330    0.0003765554    
0.0658450790    0.0198328450    0.0003746718    
0.0660677400    0.0195522940    0.0003735956    
0.0662904010    0.0190716220    0.0003733796    
0.0665130620    0.0190876890    0.0003719165    
0.0667357230    0.0194797140    0.0003823965    
0.0669583840    0.0196702110    0.0003829761    
0.0671810450    0.0196010900    0.0003801918    
0.0674037060    0.0197446370    0.0003880459    
0.0676263670    0.0194791240    0.0003826061    
0.0678490280    0.0197166980    0.0003825782    
0.0680716890    0.0199536780    0.0003857269    
0.0682943500    0.0197815680    0.0003798533    
0.0685170110    0.0194876640    0.0003731790    
0.0687396720    0.0196401480    0.0003736408    
0.0689623330    0.0192121460    0.0003683761    
0.0691849940    0.0196798120    0.0003754158    
0.0694076550    0.0195085800    0.0003735795    
0.0696303160    0.0195670300    0.0003711766    
0.0698529770    0.0197936070    0.0003725371    
0.0700756380    0.0198489730    0.0003682688    
0.0702982990    0.0197739380    0.0003715750    
0.0705209600    0.0194894450    0.0003662291    
0.0707436210    0.0189289960    0.0003592674    
0.0709662820    0.0191665480    0.0003658244    
0.0711889430    0.0196522830    0.0003658812    
0.0714116040    0.0195616100    0.0003657814    
0.0716342650    0.0203393130    0.0003714672    
0.0718569260    0.0199671840    0.0003665710    
0.0720795870    0.0192742280    0.0003616108    
0.0723022480    0.0194691160    0.0003639882    
0.0725249090    0.0197097470    0.0003618447    
0.0727475700    0.0192843460    0.0003609757    
0.0729702310    0.0202812880    0.0003672363    
0.0731928920    0.0200214470    0.0003663345    
0.0734155530    0.0196812570    0.0003624842    
0.0736382140    0.0196205860    0.0003596024    
0.0738608750    0.0192006250    0.0003580312    
0.0740835360    0.0193246290    0.0003582938    
0.0743061970    0.0190683560    0.0003508985    
0.0745288580    0.0195152370    0.0003586366    
0.0747515190    0.0198703050    0.0003625992    
0.0749741800    0.0200367280    0.0003607441    
0.0751968410    0.0191848860    0.0003557640    
0.0754195020    0.0193454370    0.0003551565    
0.0756421630    0.0194409490    0.0003531218    
0.0758648240    0.0197923280    0.0003571552    
0.0760874850    0.0195737230    0.0003550068    
0.0763101460    0.0199860270    0.0003583821    
0.0765328070    0.0197347130    0.0003597657    
0.0767554680    0.0192542910    0.0003529483    
0.0769781290    0.0195325030    0.0003534463    
0.0772007900    0.0191260470    0.0003469444    
0.0774234510    0.0192678580    0.0003502089    
0.0776461120    0.0190216650    0.0003476343    
0.0778687730    0.0197482280    0.0003530412    
0.0780914340    0.0202939290    0.0003604429    
0.0783140950    0.0193078540    0.0003459989    
0.0785367560    0.0197050110    0.0003551750    
0.0787594170    0.0198627960    0.0003533992    
0.0789820780    0.0189005090    0.0003429660    
0.0792047390    0.0194815840    0.0003493366    
0.0794274000    0.0200639680    0.0003560218    
0.0796500610    0.0194698000    0.0003472876    
0.0798727220    0.0197925000    0.0003498306    
0.0800953830    0.0189999210    0.0003419664    
0.0803180440    0.0196212870    0.0003499341    
0.0805407050    0.0191799080    0.0003456541    
0.0807633660    0.0201142790    0.0003536448    
0.0809860270    0.0195031100    0.0003469448    
0.0812086880    0.0196042140    0.0003448369    
0.0814313490    0.0196977440    0.0003472350    
0.0816540100    0.0196447160    0.0003459778    
0.0818766710    0.0196610750    0.0003469121    
0.0820993320    0.0195528850    0.0003453259    
0.0823219930    0.0195669260    0.0003468746    
0.0825446540    0.0192351500    0.0003414225    
0.0827673150    0.0198325710    0.0003443549    
0.0829899760    0.0196845710    0.0003424569    
0.0832126370    0.0197470870    0.0003445366    
0.0834352980    0.0193955660    0.0003406928    
0.0836579590    0.0197859410    0.0003433383    
0.0838806200    0.0194183610    0.0003411985    
0.0841032810    0.0200187980    0.0003442829    
0.0843259420    0.0191954270    0.0003360902    
0.0845486030    0.0190012650    0.0003343863    
0.0847712640    0.0191365980    0.0003335299    
0.0849939250    0.0199441380    0.0003410874    
0.0852165860    0.0191951630    0.0003350599    
0.0854392470    0.0198203280    0.0003372482    
0.0856619080    0.0192456970    0.0003347711    
0.0858845690    0.0197126530    0.0003357565    
0.0861072300    0.0197886270    0.0003387252    
0.0863298910    0.0198968110    0.0003414284    
0.0865525520    0.0192610110    0.0003330282    
0.0867752130    0.0190307490    0.0003283605    
0.0869978740    0.0190082890    0.0003290030    
0.0872205350    0.0199993980    0.0003370419    
0.0874431960    0.0193859850    0.0003318331    
0.0876658570    0.0195523090    0.0003345331    
0.0878885180    0.0187062150    0.0003277759    
0.0881111790    0.0196951250    0.0003358968    
0.0883338400    0.0190002560    0.0003250877    
0.0885565010    0.0187476730    0.0003272987    
0.0887791620    0.0199234950    0.0003330310    
0.0890018230    0.0197613630    0.0003348903    
0.0892244840    0.0193502630    0.0003319519    
0.0894471450    0.0192097240    0.0003293472    
0.0896698060    0.0195694460    0.0003311627    
0.0898924670    0.0192931400    0.0003303407    
0.0901151280    0.0194874150    0.0003284137    
0.0903377890    0.0196123710    0.0003322222    
0.0905604500    0.0191260850    0.0003265721    
0.0907831110    0.0192529770    0.0003268385    
0.0910057720    0.0194580810    0.0003300826    
0.0912284330    0.0199113230    0.0003291240    
0.0914510940    0.0187726280    0.0003231381    
0.0916737550    0.0193271300    0.0003270621    
0.0918964160    0.0193989270    0.0003290318    
0.0921190770    0.0198827280    0.0003300976    
0.0923417380    0.0184674980    0.0003182633    
0.0925643990    0.0194360830    0.0003257037    
0.0927870600    0.0196838670    0.0003291175    
0.0930097210    0.0197016260    0.0003264616    
0.0932323820    0.0196135710    0.0003281256    
