# Diamond Light Source Ltd.
# Data extracted from: /dls/b21/data/2018/cm19678-3/processed/b21-386631_00113.dat
q(1/A)          Column          Error           
0.0035000000    2.0616971000    0.0244989170    
0.0037226610    1.8438318000    0.0226805420    
0.0039453220    1.6822401000    0.0197080390    
0.0041679830    1.2963212000    0.0142075930    
0.0043906440    0.9733003700    0.0117753270    
0.0046133050    0.7751274200    0.0100878800    
0.0048359660    0.6083703200    0.0084536656    
0.0050586270    0.4583728000    0.0072124350    
0.0052812880    0.4342070500    0.0066370483    
0.0055039490    0.3964231200    0.0060299901    
0.0057266100    0.3297211700    0.0053201597    
0.0059492710    0.2734084900    0.0048445929    
0.0061719320    0.2290095300    0.0042725361    
0.0063945930    0.2025863500    0.0040672118    
0.0066172539    0.1763926300    0.0035636693    
0.0068399149    0.1704619000    0.0034480752    
0.0070625759    0.1492872700    0.0031937217    
0.0072852369    0.1245669600    0.0028736872    
0.0075078979    0.1160592100    0.0027601869    
0.0077305589    0.1036574000    0.0025588570    
0.0079532199    0.0952758750    0.0024192294    
0.0081758809    0.0943659400    0.0024300466    
0.0083985419    0.0837238130    0.0021348670    
0.0086212029    0.0794777540    0.0020800279    
0.0088438639    0.0720460510    0.0019644865    
0.0090665249    0.0665575620    0.0018236660    
0.0092891859    0.0655963970    0.0018896721    
0.0095118469    0.0591036870    0.0017249659    
0.0097345079    0.0572698950    0.0016491218    
0.0099571689    0.0548412600    0.0015804988    
0.0101798300    0.0526549070    0.0015486737    
0.0104024910    0.0500370660    0.0015045765    
0.0106251520    0.0448660050    0.0014295498    
0.0108478130    0.0451422480    0.0013964489    
0.0110704740    0.0454997170    0.0013347675    
0.0112931350    0.0429315270    0.0013003585    
0.0115157960    0.0402133940    0.0012511822    
0.0117384570    0.0379553120    0.0012050824    
0.0119611180    0.0373268650    0.0011984934    
0.0121837790    0.0387609430    0.0012007718    
0.0124064400    0.0358359260    0.0011064477    
0.0126291010    0.0325460150    0.0010412393    
0.0128517620    0.0332778920    0.0010555106    
0.0130744230    0.0325222360    0.0010357190    
0.0132970840    0.0315517090    0.0010151596    
0.0135197450    0.0327171850    0.0010189353    
0.0137424060    0.0311645930    0.0009806201    
0.0139650670    0.0296442270    0.0009350979    
0.0141877280    0.0309012400    0.0009568277    
0.0144103890    0.0277273310    0.0008907302    
0.0146330500    0.0291279940    0.0009071545    
0.0148557110    0.0282679060    0.0008899140    
0.0150783720    0.0287119000    0.0008894634    
0.0153010330    0.0274794450    0.0008578953    
0.0155236940    0.0278681780    0.0008588047    
0.0157463550    0.0281375890    0.0008479949    
0.0159690160    0.0259714980    0.0008116093    
0.0161916770    0.0269837380    0.0008226138    
0.0164143380    0.0258665900    0.0008115071    
0.0166369990    0.0249417900    0.0007722990    
0.0168596600    0.0243162710    0.0007558346    
0.0170823210    0.0239662990    0.0007438790    
0.0173049820    0.0240028970    0.0007457337    
0.0175276430    0.0253399010    0.0007743016    
0.0177503040    0.0243115700    0.0007390935    
0.0179729650    0.0252413850    0.0007456257    
0.0181956260    0.0242192910    0.0007163715    
0.0184182870    0.0238236120    0.0007071470    
0.0186409480    0.0245300160    0.0007220960    
0.0188636090    0.0240335280    0.0007102558    
0.0190862700    0.0220124620    0.0006786733    
0.0193089310    0.0230494330    0.0006933924    
0.0195315920    0.0244474940    0.0006898260    
0.0197542530    0.0229375520    0.0006691572    
0.0199769140    0.0232499010    0.0006736980    
0.0201995750    0.0225652840    0.0006533119    
0.0204222360    0.0228773860    0.0006634611    
0.0206448970    0.0240518500    0.0006754432    
0.0208675580    0.0225256290    0.0006402014    
0.0210902190    0.0217382540    0.0006349812    
0.0213128800    0.0221269210    0.0006319398    
0.0215355410    0.0221491090    0.0006247246    
0.0217582020    0.0225543920    0.0006304144    
0.0219808630    0.0228818390    0.0006341404    
0.0222035240    0.0218305110    0.0006137883    
0.0224261850    0.0206638800    0.0005918478    
0.0226488460    0.0221580730    0.0006082702    
0.0228715070    0.0208186060    0.0005881338    
0.0230941680    0.0201540140    0.0005786702    
0.0233168290    0.0201376560    0.0005798762    
0.0235394900    0.0219656760    0.0005989402    
0.0237621510    0.0220514910    0.0005839534    
0.0239848120    0.0207850730    0.0005675932    
0.0242074730    0.0217958800    0.0005765783    
0.0244301340    0.0211882950    0.0005691338    
0.0246527950    0.0210997800    0.0005732028    
0.0248754560    0.0217095110    0.0005683586    
0.0250981170    0.0218512770    0.0005714828    
0.0253207780    0.0215506050    0.0005505922    
0.0255434390    0.0213233700    0.0005535271    
0.0257661000    0.0216061640    0.0005589878    
0.0259887610    0.0216873200    0.0005540851    
0.0262114220    0.0209890470    0.0005479963    
0.0264340830    0.0212709520    0.0005441583    
0.0266567440    0.0215313700    0.0005440963    
0.0268794050    0.0209332160    0.0005342958    
0.0271020660    0.0205882160    0.0005277295    
0.0273247270    0.0208361690    0.0005277094    
0.0275473880    0.0206335240    0.0005240920    
0.0277700490    0.0206665660    0.0005214110    
0.0279927100    0.0201653130    0.0005105552    
0.0282153710    0.0213799590    0.0005282627    
0.0284380320    0.0201909870    0.0005103879    
0.0286606930    0.0217237210    0.0005248746    
0.0288833540    0.0206351810    0.0005125270    
0.0291060150    0.0212821460    0.0005200056    
0.0293286760    0.0203843140    0.0005018271    
0.0295513370    0.0197735760    0.0004888702    
0.0297739980    0.0195566080    0.0004915334    
0.0299966590    0.0205533410    0.0004952972    
0.0302193200    0.0203827250    0.0005004251    
0.0304419810    0.0195576180    0.0004910937    
0.0306646420    0.0212756840    0.0004977534    
0.0308873030    0.0204573230    0.0004859784    
0.0311099640    0.0204824650    0.0004875396    
0.0313326250    0.0198836290    0.0004750383    
0.0315552860    0.0209263770    0.0004936510    
0.0317779470    0.0205078920    0.0004891157    
0.0320006080    0.0204221890    0.0004770029    
0.0322232690    0.0200879580    0.0004750639    
0.0324459300    0.0203093250    0.0004741082    
0.0326685910    0.0206395460    0.0004771591    
0.0328912520    0.0206321120    0.0004786531    
0.0331139130    0.0205207030    0.0004711493    
0.0333365740    0.0206541830    0.0004742140    
0.0335592350    0.0200773490    0.0004630495    
0.0337818960    0.0200240660    0.0004620665    
0.0340045570    0.0201518240    0.0004628020    
0.0342272170    0.0201513340    0.0004609709    
0.0344498780    0.0196310470    0.0004567831    
0.0346725390    0.0197604550    0.0004497988    
0.0348952000    0.0197025730    0.0004470935    
0.0351178610    0.0199140580    0.0004515439    
0.0353405220    0.0198344890    0.0004485880    
0.0355631830    0.0198766850    0.0004473736    
0.0357858440    0.0198263520    0.0004468070    
0.0360085050    0.0198349100    0.0004482537    
0.0362311660    0.0206321700    0.0004517392    
0.0364538270    0.0203412400    0.0004449429    
0.0366764880    0.0197383370    0.0004379813    
0.0368991490    0.0196167980    0.0004344297    
0.0371218100    0.0199734400    0.0004371069    
0.0373444710    0.0203815030    0.0004463578    
0.0375671320    0.0207218020    0.0004494133    
0.0377897930    0.0197368180    0.0004272479    
0.0380124540    0.0197979630    0.0004305940    
0.0382351150    0.0202006800    0.0004349516    
0.0384577760    0.0211078820    0.0004403213    
0.0386804370    0.0203028240    0.0004351382    
0.0389030980    0.0197576660    0.0004260057    
0.0391257590    0.0196896660    0.0004223850    
0.0393484200    0.0200703670    0.0004250136    
0.0395710810    0.0201876490    0.0004268279    
0.0397937420    0.0203771770    0.0004288269    
0.0400164030    0.0196517040    0.0004228373    
0.0402390640    0.0195038390    0.0004156344    
0.0404617250    0.0205698600    0.0004243238    
0.0406843860    0.0198394930    0.0004126963    
0.0409070470    0.0199394690    0.0004180448    
0.0411297080    0.0198993730    0.0004135842    
0.0413523690    0.0202353800    0.0004181363    
0.0415750300    0.0196667050    0.0004157206    
0.0417976910    0.0199634410    0.0004080124    
0.0420203520    0.0198616940    0.0004085005    
0.0422430130    0.0202494000    0.0004140298    
0.0424656740    0.0203112280    0.0004092644    
0.0426883350    0.0195805410    0.0004038298    
0.0429109960    0.0193259550    0.0004024494    
0.0431336570    0.0195672580    0.0003992487    
0.0433563180    0.0199643210    0.0004067580    
0.0435789790    0.0197996020    0.0003987126    
0.0438016400    0.0193175830    0.0003959719    
0.0440243010    0.0200409630    0.0003992255    
0.0442469620    0.0191389890    0.0003924760    
0.0444696230    0.0185624800    0.0003851336    
0.0446922840    0.0198742560    0.0003973262    
0.0449149450    0.0193850950    0.0003871603    
0.0451376060    0.0205246090    0.0004032970    
0.0453602670    0.0193516430    0.0003874981    
0.0455829280    0.0196010860    0.0003895366    
0.0458055890    0.0198460180    0.0003942485    
0.0460282500    0.0200047380    0.0003910488    
0.0462509110    0.0194244970    0.0003829392    
0.0464735720    0.0199376990    0.0003881840    
0.0466962330    0.0199058310    0.0003896369    
0.0469188940    0.0189210190    0.0003787994    
0.0471415550    0.0195219430    0.0003867438    
0.0473642160    0.0196047630    0.0003821366    
0.0475868770    0.0195432050    0.0003796408    
0.0478095380    0.0193725390    0.0003763255    
0.0480321990    0.0194501810    0.0003779050    
0.0482548600    0.0200744350    0.0003822489    
0.0484775210    0.0194876750    0.0003803605    
0.0487001820    0.0197358280    0.0003771713    
0.0489228430    0.0199738380    0.0003792349    
0.0491455040    0.0196985000    0.0003740072    
0.0493681650    0.0198795920    0.0003789512    
0.0495908260    0.0201170270    0.0003747936    
0.0498134870    0.0190857260    0.0003685355    
0.0500361480    0.0193954270    0.0003705306    
0.0502588090    0.0199037120    0.0003697302    
0.0504814700    0.0192856010    0.0003687017    
0.0507041310    0.0200823040    0.0003717670    
0.0509267920    0.0200892040    0.0003733692    
0.0511494530    0.0205137390    0.0003747778    
0.0513721140    0.0197826410    0.0003712800    
0.0515947750    0.0193565200    0.0003623901    
0.0518174360    0.0195396210    0.0003619069    
0.0520400970    0.0198050450    0.0003618303    
0.0522627580    0.0197934880    0.0003647988    
0.0524854190    0.0189345380    0.0003596967    
0.0527080800    0.0194578730    0.0003674569    
0.0529307410    0.0196901050    0.0003713792    
0.0531534020    0.0198181930    0.0003712288    
0.0533760630    0.0200684170    0.0003747344    
0.0535987240    0.0195695150    0.0003683194    
0.0538213850    0.0196992920    0.0003738201    
0.0540440460    0.0195905670    0.0003710228    
0.0542667070    0.0197974040    0.0003755467    
0.0544893680    0.0201536880    0.0003791128    
0.0547120290    0.0197800220    0.0003730088    
0.0549346900    0.0201599590    0.0003767723    
0.0551573510    0.0201400220    0.0003810191    
0.0553800120    0.0195368540    0.0003720799    
0.0556026730    0.0198459590    0.0003827872    
0.0558253340    0.0203298580    0.0003906700    
0.0560479950    0.0199620180    0.0003871197    
0.0562706560    0.0192937300    0.0003842641    
0.0564933170    0.0195913340    0.0003905788    
0.0567159780    0.0200669000    0.0003905515    
0.0569386390    0.0196662860    0.0003926979    
0.0571613000    0.0198194780    0.0003857361    
0.0573839610    0.0198165850    0.0003825054    
0.0576066220    0.0190281300    0.0003758563    
0.0578292830    0.0198685520    0.0003827960    
0.0580519440    0.0197405030    0.0003830400    
0.0582746050    0.0194194490    0.0003782372    
0.0584972660    0.0195781170    0.0003783255    
0.0587199270    0.0196012930    0.0003752862    
0.0589425880    0.0191951310    0.0003692054    
0.0591652490    0.0192277020    0.0003716930    
0.0593879100    0.0197784800    0.0003741793    
0.0596105710    0.0193623830    0.0003698318    
0.0598332320    0.0195654700    0.0003749441    
0.0600558930    0.0189337050    0.0003664893    
0.0602785540    0.0193609060    0.0003702090    
0.0605012150    0.0190820310    0.0003667587    
0.0607238760    0.0192217330    0.0003654163    
0.0609465370    0.0192715380    0.0003687700    
0.0611691980    0.0197361750    0.0003737805    
0.0613918590    0.0197369580    0.0003697071    
0.0616145200    0.0193804420    0.0003690341    
0.0618371810    0.0198628320    0.0003699294    
0.0620598420    0.0195586150    0.0003674640    
0.0622825030    0.0198553850    0.0003759034    
0.0625051640    0.0191424720    0.0003639095    
0.0627278250    0.0201178370    0.0003722973    
0.0629504860    0.0192701510    0.0003614071    
0.0631731470    0.0194095310    0.0003671993    
0.0633958080    0.0197460210    0.0003725001    
0.0636184690    0.0199025410    0.0003791820    
0.0638411300    0.0196888710    0.0003757254    
0.0640637910    0.0197123100    0.0003785932    
0.0642864520    0.0193230190    0.0003740251    
0.0645091130    0.0192579620    0.0003766670    
0.0647317740    0.0199058960    0.0003833732    
0.0649544350    0.0196484710    0.0003804672    
0.0651770960    0.0193982560    0.0003759747    
0.0653997570    0.0190820350    0.0003720890    
0.0656224180    0.0198865370    0.0003806777    
0.0658450790    0.0189083830    0.0003658621    
0.0660677400    0.0193695310    0.0003718726    
0.0662904010    0.0200102260    0.0003824852    
0.0665130620    0.0198804870    0.0003795894    
0.0667357230    0.0196402310    0.0003839969    
0.0669583840    0.0201578370    0.0003877224    
0.0671810450    0.0201423710    0.0003854337    
0.0674037060    0.0201441590    0.0003919809    
0.0676263670    0.0192640090    0.0003805155    
0.0678490280    0.0192741150    0.0003782876    
0.0680716890    0.0196657540    0.0003829619    
0.0682943500    0.0200033210    0.0003820044    
0.0685170110    0.0194261940    0.0003726173    
0.0687396720    0.0194084180    0.0003714572    
0.0689623330    0.0197094630    0.0003731408    
0.0691849940    0.0195036320    0.0003737590    
0.0694076550    0.0194255790    0.0003728113    
0.0696303160    0.0190206170    0.0003659842    
0.0698529770    0.0200699970    0.0003751565    
0.0700756380    0.0195306970    0.0003653311    
0.0702982990    0.0203145530    0.0003766478    
0.0705209600    0.0198433270    0.0003695661    
0.0707436210    0.0201047760    0.0003702845    
0.0709662820    0.0192391900    0.0003665439    
0.0711889430    0.0189738740    0.0003595368    
0.0714116040    0.0194002990    0.0003642967    
0.0716342650    0.0201048080    0.0003693466    
0.0718569260    0.0197076110    0.0003642071    
0.0720795870    0.0194602550    0.0003633783    
0.0723022480    0.0191180570    0.0003607181    
0.0725249090    0.0196794150    0.0003615927    
0.0727475700    0.0200913670    0.0003684784    
0.0729702310    0.0201246450    0.0003658422    
0.0731928920    0.0199238220    0.0003654671    
0.0734155530    0.0189095950    0.0003553331    
0.0736382140    0.0197948450    0.0003612222    
0.0738608750    0.0194371380    0.0003602560    
0.0740835360    0.0192543770    0.0003576682    
0.0743061970    0.0196588490    0.0003563164    
0.0745288580    0.0188655160    0.0003526419    
0.0747515190    0.0192709980    0.0003571153    
0.0749741800    0.0188509250    0.0003499322    
0.0751968410    0.0197617440    0.0003610995    
0.0754195020    0.0195765120    0.0003572975    
0.0756421630    0.0194758730    0.0003534647    
0.0758648240    0.0197758910    0.0003570330    
0.0760874850    0.0191258150    0.0003509471    
0.0763101460    0.0204195850    0.0003622750    
0.0765328070    0.0199212710    0.0003614886    
0.0767554680    0.0193088790    0.0003534741    
0.0769781290    0.0195929350    0.0003540185    
0.0772007900    0.0193617440    0.0003491012    
0.0774234510    0.0199837030    0.0003566813    
0.0776461120    0.0199712270    0.0003562317    
0.0778687730    0.0193092620    0.0003491210    
0.0780914340    0.0192916610    0.0003514553    
0.0783140950    0.0195525320    0.0003482098    
0.0785367560    0.0198039410    0.0003560915    
0.0787594170    0.0197650890    0.0003525548    
0.0789820780    0.0199053950    0.0003519910    
0.0792047390    0.0194029920    0.0003486568    
0.0794274000    0.0199215860    0.0003547823    
0.0796500610    0.0189584210    0.0003427216    
0.0798727220    0.0192759330    0.0003452606    
0.0800953830    0.0193412690    0.0003450499    
0.0803180440    0.0193307980    0.0003473595    
0.0805407050    0.0194942260    0.0003485004    
0.0807633660    0.0192777130    0.0003462379    
0.0809860270    0.0196541140    0.0003483108    
0.0812086880    0.0187031700    0.0003368437    
0.0814313490    0.0189965990    0.0003410240    
0.0816540100    0.0192575680    0.0003425768    
0.0818766710    0.0194313190    0.0003449045    
0.0820993320    0.0193971570    0.0003439731    
0.0823219930    0.0196251440    0.0003474157    
0.0825446540    0.0196076960    0.0003447382    
0.0827673150    0.0190042650    0.0003371119    
0.0829899760    0.0190796700    0.0003371787    
0.0832126370    0.0199724310    0.0003465222    
0.0834352980    0.0193624960    0.0003404272    
0.0836579590    0.0196875420    0.0003425086    
0.0838806200    0.0200567870    0.0003467874    
0.0841032810    0.0193703290    0.0003386856    
0.0843259420    0.0196102190    0.0003397269    
0.0845486030    0.0192512380    0.0003366033    
0.0847712640    0.0199359090    0.0003404492    
0.0849939250    0.0191652800    0.0003343855    
0.0852165860    0.0192447710    0.0003355172    
0.0854392470    0.0197371440    0.0003365644    
0.0856619080    0.0200464140    0.0003416892    
0.0858845690    0.0196640640    0.0003353670    
0.0861072300    0.0194609910    0.0003359340    
0.0863298910    0.0194661040    0.0003377374    
0.0865525520    0.0201679950    0.0003408040    
0.0867752130    0.0193848560    0.0003314256    
0.0869978740    0.0192901470    0.0003314576    
0.0872205350    0.0194285610    0.0003322214    
0.0874431960    0.0194797190    0.0003326587    
0.0876658570    0.0196524910    0.0003354136    
0.0878885180    0.0190536100    0.0003308297    
0.0881111790    0.0192511100    0.0003321132    
0.0883338400    0.0189752250    0.0003248973    
0.0885565010    0.0192247530    0.0003314612    
0.0887791620    0.0200711710    0.0003342874    
0.0890018230    0.0193328730    0.0003312639    
0.0892244840    0.0192277990    0.0003309241    
0.0894471450    0.0188623980    0.0003263801    
0.0896698060    0.0189669840    0.0003260492    
0.0898924670    0.0193242510    0.0003306311    
0.0901151280    0.0196341920    0.0003296723    
0.0903377890    0.0191649660    0.0003284350    
0.0905604500    0.0194188880    0.0003290864    
0.0907831110    0.0195499060    0.0003293733    
0.0910057720    0.0196569410    0.0003317893    
0.0912284330    0.0191470520    0.0003227693    
0.0914510940    0.0194262590    0.0003287396    
0.0916737550    0.0189369410    0.0003237675    
0.0918964160    0.0195245660    0.0003301197    
0.0921190770    0.0196992820    0.0003285953    
0.0923417380    0.0185524890    0.0003190182    
0.0925643990    0.0193188360    0.0003247437    
0.0927870600    0.0193565280    0.0003263933    
0.0930097210    0.0195043290    0.0003248467    
0.0932323820    0.0196548760    0.0003284950    
