# Diamond Light Source Ltd.
# Data extracted from: /dls/b21/data/2018/cm19678-3/processed/b21-386631_00108.dat
q(1/A)          Column          Error           
0.0035000000    2.0988038000    0.0247123410    
0.0037226610    1.8961882000    0.0229946600    
0.0039453220    1.6410299000    0.0194603720    
0.0041679830    1.2986427000    0.0142168220    
0.0043906440    0.9792307400    0.0118082500    
0.0046133050    0.7855077000    0.0101527130    
0.0048359660    0.5816545000    0.0082639388    
0.0050586270    0.4637061500    0.0072524946    
0.0052812880    0.4332843200    0.0066283667    
0.0055039490    0.3811020000    0.0059108674    
0.0057266100    0.3166894200    0.0052126855    
0.0059492710    0.2713868100    0.0048254647    
0.0061719320    0.2139985900    0.0041291239    
0.0063945930    0.1906528200    0.0039446349    
0.0066172539    0.1858050800    0.0036566169    
0.0068399149    0.1696114700    0.0034386199    
0.0070625759    0.1492140700    0.0031921556    
0.0072852369    0.1252347600    0.0028806732    
0.0075078979    0.1146244500    0.0027424000    
0.0077305589    0.0997552580    0.0025096159    
0.0079532199    0.0970711120    0.0024413164    
0.0081758809    0.0905043490    0.0023792232    
0.0083985419    0.0832474770    0.0021282633    
0.0086212029    0.0784593990    0.0020661524    
0.0088438639    0.0697085210    0.0019318810    
0.0090665249    0.0647768970    0.0017986645    
0.0092891859    0.0607761380    0.0018184715    
0.0095118469    0.0636537490    0.0017896938    
0.0097345079    0.0578113820    0.0016564934    
0.0099571689    0.0533575080    0.0015585894    
0.0101798300    0.0508990650    0.0015222602    
0.0104024910    0.0467115220    0.0014533622    
0.0106251520    0.0464374460    0.0014540128    
0.0108478130    0.0470199060    0.0014248456    
0.0110704740    0.0434031350    0.0013033328    
0.0112931350    0.0411389420    0.0012726089    
0.0115157960    0.0403104040    0.0012523833    
0.0117384570    0.0386250680    0.0012153702    
0.0119611180    0.0381162720    0.0012108033    
0.0121837790    0.0381842310    0.0011915131    
0.0124064400    0.0351695940    0.0010958440    
0.0126291010    0.0340283700    0.0010644265    
0.0128517620    0.0353697010    0.0010879123    
0.0130744230    0.0318798990    0.0010251884    
0.0132970840    0.0324829770    0.0010297796    
0.0135197450    0.0318764760    0.0010055120    
0.0137424060    0.0301007210    0.0009635006    
0.0139650670    0.0321946490    0.0009742544    
0.0141877280    0.0322186610    0.0009767716    
0.0144103890    0.0294869560    0.0009183339    
0.0146330500    0.0294243330    0.0009115338    
0.0148557110    0.0288420870    0.0008986862    
0.0150783720    0.0304604510    0.0009159226    
0.0153010330    0.0272250410    0.0008537055    
0.0155236940    0.0274048200    0.0008514263    
0.0157463550    0.0268210540    0.0008277157    
0.0159690160    0.0254771060    0.0008036502    
0.0161916770    0.0253913780    0.0007977770    
0.0164143380    0.0250650560    0.0007986391    
0.0166369990    0.0253119880    0.0007778185    
0.0168596600    0.0248444430    0.0007638119    
0.0170823210    0.0264238490    0.0007808963    
0.0173049820    0.0251489990    0.0007631428    
0.0175276430    0.0240977560    0.0007549002    
0.0177503040    0.0239403190    0.0007332487    
0.0179729650    0.0252290070    0.0007452601    
0.0181956260    0.0237838380    0.0007097282    
0.0184182870    0.0247560150    0.0007206755    
0.0186409480    0.0240930660    0.0007154603    
0.0188636090    0.0227419810    0.0006907385    
0.0190862700    0.0231519460    0.0006958469    
0.0193089310    0.0228504900    0.0006902243    
0.0195315920    0.0233849350    0.0006745031    
0.0197542530    0.0226726510    0.0006651188    
0.0199769140    0.0229068000    0.0006685446    
0.0201995750    0.0232159100    0.0006625010    
0.0204222360    0.0223084560    0.0006549988    
0.0206448970    0.0226370870    0.0006551163    
0.0208675580    0.0231329160    0.0006486147    
0.0210902190    0.0225989230    0.0006472706    
0.0213128800    0.0211419530    0.0006175631    
0.0215355410    0.0219445170    0.0006216801    
0.0217582020    0.0209934780    0.0006080598    
0.0219808630    0.0219923310    0.0006215400    
0.0222035240    0.0214230820    0.0006078846    
0.0224261850    0.0217211680    0.0006066513    
0.0226488460    0.0220470690    0.0006065959    
0.0228715070    0.0218380230    0.0006022134    
0.0230941680    0.0221037410    0.0006058663    
0.0233168290    0.0213961980    0.0005975752    
0.0235394900    0.0213672640    0.0005905805    
0.0237621510    0.0210360190    0.0005702095    
0.0239848120    0.0205889750    0.0005647708    
0.0242074730    0.0213735760    0.0005708253    
0.0244301340    0.0209181470    0.0005653553    
0.0246527950    0.0212295100    0.0005748212    
0.0248754560    0.0219219520    0.0005709926    
0.0250981170    0.0213177030    0.0005643239    
0.0253207780    0.0213572570    0.0005479824    
0.0255434390    0.0206235470    0.0005442346    
0.0257661000    0.0208728260    0.0005492849    
0.0259887610    0.0203608030    0.0005367407    
0.0262114220    0.0204353370    0.0005405871    
0.0264340830    0.0207178770    0.0005369056    
0.0266567440    0.0192670360    0.0005145658    
0.0268794050    0.0214136520    0.0005402598    
0.0271020660    0.0203212320    0.0005241681    
0.0273247270    0.0205854980    0.0005243968    
0.0275473880    0.0214882590    0.0005347059    
0.0277700490    0.0211429290    0.0005272567    
0.0279927100    0.0200262230    0.0005086666    
0.0282153710    0.0194256100    0.0005034164    
0.0284380320    0.0203100390    0.0005117649    
0.0286606930    0.0218017970    0.0005256880    
0.0288833540    0.0203578650    0.0005089466    
0.0291060150    0.0204462410    0.0005095661    
0.0293286760    0.0203990150    0.0005018849    
0.0295513370    0.0214310040    0.0005088218    
0.0297739980    0.0201150300    0.0004983795    
0.0299966590    0.0213544950    0.0005047343    
0.0302193200    0.0205078120    0.0005018352    
0.0304419810    0.0207559130    0.0005057906    
0.0306646420    0.0209859050    0.0004942308    
0.0308873030    0.0195933980    0.0004754895    
0.0311099640    0.0204840200    0.0004874385    
0.0313326250    0.0206565830    0.0004840648    
0.0315552860    0.0204738150    0.0004881641    
0.0317779470    0.0207077110    0.0004913722    
0.0320006080    0.0200669600    0.0004727202    
0.0322232690    0.0205385120    0.0004802442    
0.0324459300    0.0195250030    0.0004647493    
0.0326685910    0.0199237690    0.0004686973    
0.0328912520    0.0198561620    0.0004694509    
0.0331139130    0.0201430270    0.0004666791    
0.0333365740    0.0197734570    0.0004638794    
0.0335592350    0.0203984040    0.0004666227    
0.0337818960    0.0194494150    0.0004552764    
0.0340045570    0.0196532670    0.0004569292    
0.0342272170    0.0203838670    0.0004635092    
0.0344498780    0.0209705920    0.0004719947    
0.0346725390    0.0195460940    0.0004472427    
0.0348952000    0.0206461210    0.0004575616    
0.0351178610    0.0193312130    0.0004447778    
0.0353405220    0.0201796820    0.0004523637    
0.0355631830    0.0196555880    0.0004447694    
0.0357858440    0.0191322570    0.0004388086    
0.0360085050    0.0203213200    0.0004536054    
0.0362311660    0.0197817490    0.0004422228    
0.0364538270    0.0204090880    0.0004455750    
0.0366764880    0.0201463500    0.0004423764    
0.0368991490    0.0199341260    0.0004378220    
0.0371218100    0.0192274390    0.0004287611    
0.0373444710    0.0203421970    0.0004458179    
0.0375671320    0.0211013240    0.0004533989    
0.0377897930    0.0198195820    0.0004280378    
0.0380124540    0.0200784330    0.0004335270    
0.0382351150    0.0197882690    0.0004303832    
0.0384577760    0.0199499290    0.0004279682    
0.0386804370    0.0201157600    0.0004330228    
0.0389030980    0.0194725530    0.0004228171    
0.0391257590    0.0205222760    0.0004311174    
0.0393484200    0.0203124060    0.0004274639    
0.0395710810    0.0194381100    0.0004187265    
0.0397937420    0.0199522640    0.0004242283    
0.0400164030    0.0204241130    0.0004309614    
0.0402390640    0.0201936610    0.0004228170    
0.0404617250    0.0198773640    0.0004170178    
0.0406843860    0.0191948000    0.0004058360    
0.0409070470    0.0198771290    0.0004172885    
0.0411297080    0.0199755310    0.0004142732    
0.0413523690    0.0195000350    0.0004103680    
0.0415750300    0.0191827620    0.0004104732    
0.0417976910    0.0194452260    0.0004025832    
0.0420203520    0.0198939430    0.0004087317    
0.0422430130    0.0194694900    0.0004058787    
0.0424656740    0.0203836930    0.0004098933    
0.0426883350    0.0201536560    0.0004095967    
0.0429109960    0.0195510240    0.0004046868    
0.0431336570    0.0199159210    0.0004026912    
0.0433563180    0.0195734990    0.0004026582    
0.0435789790    0.0200547220    0.0004011747    
0.0438016400    0.0192675470    0.0003953617    
0.0440243010    0.0203411410    0.0004021056    
0.0442469620    0.0195076910    0.0003961412    
0.0444696230    0.0194319270    0.0003939534    
0.0446922840    0.0198406920    0.0003968932    
0.0449149450    0.0195610760    0.0003888183    
0.0451376060    0.0199363360    0.0003973779    
0.0453602670    0.0200246360    0.0003940819    
0.0455829280    0.0193670860    0.0003871095    
0.0458055890    0.0196640690    0.0003923409    
0.0460282500    0.0193378540    0.0003843813    
0.0462509110    0.0194753370    0.0003833460    
0.0464735720    0.0193840220    0.0003826622    
0.0466962330    0.0198960700    0.0003894458    
0.0469188940    0.0190481790    0.0003799769    
0.0471415550    0.0198876080    0.0003902533    
0.0473642160    0.0190740020    0.0003768359    
0.0475868770    0.0201528010    0.0003854217    
0.0478095380    0.0192972780    0.0003755017    
0.0480321990    0.0202699340    0.0003856919    
0.0482548600    0.0199845650    0.0003812988    
0.0484775210    0.0193890760    0.0003793040    
0.0487001820    0.0197117410    0.0003768486    
0.0489228430    0.0185102810    0.0003649871    
0.0491455040    0.0190926390    0.0003681203    
0.0493681650    0.0195232770    0.0003754476    
0.0495908260    0.0193603850    0.0003675875    
0.0498134870    0.0194817930    0.0003722485    
0.0500361480    0.0200297550    0.0003764486    
0.0502588090    0.0202303230    0.0003726600    
0.0504814700    0.0195861410    0.0003714723    
0.0507041310    0.0196390890    0.0003675516    
0.0509267920    0.0196146490    0.0003688424    
0.0511494530    0.0198193110    0.0003682894    
0.0513721140    0.0206296050    0.0003790516    
0.0515947750    0.0189876190    0.0003588323    
0.0518174360    0.0198650310    0.0003648185    
0.0520400970    0.0197689040    0.0003614114    
0.0522627580    0.0192125790    0.0003593177    
0.0524854190    0.0194579740    0.0003645452    
0.0527080800    0.0197396400    0.0003700171    
0.0529307410    0.0198974880    0.0003732383    
0.0531534020    0.0194540080    0.0003677119    
0.0533760630    0.0197858130    0.0003719953    
0.0535987240    0.0198093550    0.0003704787    
0.0538213850    0.0193989320    0.0003708684    
0.0540440460    0.0200304520    0.0003750732    
0.0542667070    0.0195313610    0.0003729234    
0.0544893680    0.0198301730    0.0003759655    
0.0547120290    0.0198265680    0.0003733559    
0.0549346900    0.0199178170    0.0003744109    
0.0551573510    0.0198203400    0.0003778904    
0.0553800120    0.0194422800    0.0003710872    
0.0556026730    0.0197107740    0.0003813877    
0.0558253340    0.0197796260    0.0003852524    
0.0560479950    0.0195320240    0.0003828337    
0.0562706560    0.0199650700    0.0003907964    
0.0564933170    0.0198074310    0.0003926307    
0.0567159780    0.0200266700    0.0003900642    
0.0569386390    0.0198996080    0.0003949237    
0.0571613000    0.0199148110    0.0003865679    
0.0573839610    0.0192017400    0.0003764324    
0.0576066220    0.0191449480    0.0003769158    
0.0578292830    0.0195418350    0.0003795426    
0.0580519440    0.0199611150    0.0003850800    
0.0582746050    0.0195719210    0.0003796260    
0.0584972660    0.0192250810    0.0003748071    
0.0587199270    0.0191392340    0.0003707455    
0.0589425880    0.0194057540    0.0003711345    
0.0591652490    0.0198430830    0.0003775015    
0.0593879100    0.0195069900    0.0003715112    
0.0596105710    0.0195435220    0.0003714666    
0.0598332320    0.0193906960    0.0003731741    
0.0600558930    0.0198178180    0.0003748564    
0.0602785540    0.0196344310    0.0003727236    
0.0605012150    0.0194883690    0.0003705522    
0.0607238760    0.0194344960    0.0003673431    
0.0609465370    0.0199744540    0.0003753430    
0.0611691980    0.0197547990    0.0003738651    
0.0613918590    0.0191458440    0.0003640394    
0.0616145200    0.0191883260    0.0003671104    
0.0618371810    0.0195156650    0.0003665924    
0.0620598420    0.0199630530    0.0003711528    
0.0622825030    0.0200163640    0.0003773316    
0.0625051640    0.0190915970    0.0003633365    
0.0627278250    0.0198049750    0.0003693005    
0.0629504860    0.0193961970    0.0003624982    
0.0631731470    0.0194902780    0.0003678721    
0.0633958080    0.0199189520    0.0003740360    
0.0636184690    0.0191562790    0.0003719140    
0.0638411300    0.0196648830    0.0003754044    
0.0640637910    0.0201096330    0.0003822958    
0.0642864520    0.0195089220    0.0003757278    
0.0645091130    0.0191307010    0.0003753283    
0.0647317740    0.0193943040    0.0003783219    
0.0649544350    0.0186373810    0.0003704578    
0.0651770960    0.0194907130    0.0003767772    
0.0653997570    0.0198268830    0.0003791885    
0.0656224180    0.0192431170    0.0003743769    
0.0658450790    0.0197835690    0.0003741417    
0.0660677400    0.0190603200    0.0003688020    
0.0662904010    0.0192915940    0.0003754621    
0.0665130620    0.0190521480    0.0003715062    
0.0667357230    0.0194580060    0.0003821176    
0.0669583840    0.0197827090    0.0003840036    
0.0671810450    0.0199776850    0.0003837607    
0.0674037060    0.0189297310    0.0003798884    
0.0676263670    0.0193146620    0.0003809220    
0.0678490280    0.0197767060    0.0003830940    
0.0680716890    0.0196262950    0.0003824837    
0.0682943500    0.0200883030    0.0003827211    
0.0685170110    0.0201453290    0.0003793585    
0.0687396720    0.0188162240    0.0003656567    
0.0689623330    0.0196856770    0.0003728241    
0.0691849940    0.0197159980    0.0003756962    
0.0694076550    0.0198594400    0.0003768592    
0.0696303160    0.0192717180    0.0003683017    
0.0698529770    0.0192961600    0.0003677628    
0.0700756380    0.0200675480    0.0003702273    
0.0702982990    0.0194181410    0.0003681536    
0.0705209600    0.0190149360    0.0003616811    
0.0707436210    0.0201562660    0.0003706674    
0.0709662820    0.0198300310    0.0003720384    
0.0711889430    0.0196727620    0.0003660088    
0.0714116040    0.0205668130    0.0003749972    
0.0716342650    0.0193828440    0.0003625654    
0.0718569260    0.0198594060    0.0003655174    
0.0720795870    0.0191048320    0.0003599563    
0.0723022480    0.0194148020    0.0003634176    
0.0725249090    0.0189724910    0.0003549517    
0.0727475700    0.0192574490    0.0003606618    
0.0729702310    0.0195497550    0.0003604905    
0.0731928920    0.0188285620    0.0003551927    
0.0734155530    0.0190938640    0.0003569726    
0.0736382140    0.0200223220    0.0003632027    
0.0738608750    0.0190271750    0.0003563491    
0.0740835360    0.0193246240    0.0003582322    
0.0743061970    0.0195911130    0.0003556147    
0.0745288580    0.0203847950    0.0003664765    
0.0747515190    0.0194335260    0.0003585302    
0.0749741800    0.0188546660    0.0003498812    
0.0751968410    0.0195278240    0.0003588679    
0.0754195020    0.0189346700    0.0003513053    
0.0756421630    0.0196458540    0.0003549168    
0.0758648240    0.0194376160    0.0003538794    
0.0760874850    0.0197021580    0.0003561083    
0.0763101460    0.0198057010    0.0003567003    
0.0765328070    0.0199705100    0.0003618463    
0.0767554680    0.0197133390    0.0003570694    
0.0769781290    0.0195129990    0.0003532090    
0.0772007900    0.0196353620    0.0003514731    
0.0774234510    0.0194775780    0.0003520491    
0.0776461120    0.0190595810    0.0003479208    
0.0778687730    0.0195079970    0.0003508269    
0.0780914340    0.0198453720    0.0003563759    
0.0783140950    0.0193260070    0.0003461020    
0.0785367560    0.0195830400    0.0003540132    
0.0787594170    0.0198748210    0.0003534454    
0.0789820780    0.0197152170    0.0003502196    
0.0792047390    0.0199633220    0.0003535686    
0.0794274000    0.0195202760    0.0003511045    
0.0796500610    0.0193020990    0.0003457293    
0.0798727220    0.0193962830    0.0003462518    
0.0800953830    0.0197009460    0.0003481580    
0.0803180440    0.0194648090    0.0003484760    
0.0805407050    0.0197462060    0.0003506595    
0.0807633660    0.0195479610    0.0003485709    
0.0809860270    0.0191817450    0.0003440153    
0.0812086880    0.0196338530    0.0003450381    
0.0814313490    0.0195135190    0.0003455480    
0.0816540100    0.0194430420    0.0003441381    
0.0818766710    0.0192321000    0.0003430477    
0.0820993320    0.0190035510    0.0003403818    
0.0823219930    0.0192651340    0.0003441300    
0.0825446540    0.0195253830    0.0003439295    
0.0827673150    0.0192937970    0.0003395869    
0.0829899760    0.0193264120    0.0003392688    
0.0832126370    0.0196381390    0.0003435258    
0.0834352980    0.0200708860    0.0003465136    
0.0836579590    0.0196957550    0.0003424960    
0.0838806200    0.0205983180    0.0003513517    
0.0841032810    0.0189761000    0.0003351392    
0.0843259420    0.0193535370    0.0003374134    
0.0845486030    0.0194065080    0.0003378751    
0.0847712640    0.0199609990    0.0003405798    
0.0849939250    0.0194940980    0.0003371592    
0.0852165860    0.0197264490    0.0003396068    
0.0854392470    0.0190161530    0.0003302789    
0.0856619080    0.0191634030    0.0003339971    
0.0858845690    0.0188426340    0.0003282071    
0.0861072300    0.0193645080    0.0003350181    
0.0863298910    0.0193687050    0.0003368088    
0.0865525520    0.0196688310    0.0003364775    
0.0867752130    0.0192734040    0.0003303904    
0.0869978740    0.0191212960    0.0003299228    
0.0872205350    0.0196802250    0.0003342842    
0.0874431960    0.0197427150    0.0003348147    
0.0876658570    0.0196199670    0.0003350538    
0.0878885180    0.0194002340    0.0003337435    
0.0881111790    0.0183883940    0.0003245067    
0.0883338400    0.0192105700    0.0003268257    
0.0885565010    0.0197751060    0.0003360898    
0.0887791620    0.0192321650    0.0003271458    
0.0890018230    0.0197148530    0.0003344384    
0.0892244840    0.0194631540    0.0003328616    
0.0894471450    0.0197958060    0.0003342761    
0.0896698060    0.0197755970    0.0003328452    
0.0898924670    0.0199763180    0.0003360807    
0.0901151280    0.0188942450    0.0003233212    
0.0903377890    0.0192005740    0.0003286594    
0.0905604500    0.0190581910    0.0003259358    
0.0907831110    0.0191631570    0.0003260191    
0.0910057720    0.0193674260    0.0003292561    
0.0912284330    0.0202362160    0.0003317413    
0.0914510940    0.0192499220    0.0003271639    
0.0916737550    0.0190604420    0.0003247419    
0.0918964160    0.0195038340    0.0003298635    
0.0921190770    0.0190431630    0.0003229975    
0.0923417380    0.0196509510    0.0003282461    
0.0925643990    0.0194948730    0.0003261399    
0.0927870600    0.0195560750    0.0003279910    
0.0930097210    0.0197867810    0.0003271101    
0.0932323820    0.0198318130    0.0003298894    
