# Diamond Light Source Ltd.
# Data extracted from: /dls/b21/data/2018/cm19678-3/processed/b21-386631_00111.dat
q(1/A)          Column          Error           
0.0035000000    2.0718473000    0.0245571950    
0.0037226610    1.9068583000    0.0230630850    
0.0039453220    1.6713531000    0.0196425980    
0.0041679830    1.2956477000    0.0142027710    
0.0043906440    0.9594711900    0.0116904410    
0.0046133050    0.7743476300    0.0100820020    
0.0048359660    0.5958237400    0.0083653741    
0.0050586270    0.4719160400    0.0073176271    
0.0052812880    0.4302834000    0.0066064668    
0.0055039490    0.3726077400    0.0058455914    
0.0057266100    0.3202274800    0.0052425910    
0.0059492710    0.2634946300    0.0047555701    
0.0061719320    0.2214017200    0.0042006344    
0.0063945930    0.1907159800    0.0039459416    
0.0066172539    0.1856506700    0.0036557026    
0.0068399149    0.1667387500    0.0034099401    
0.0070625759    0.1532256400    0.0032353168    
0.0072852369    0.1255413800    0.0028846752    
0.0075078979    0.1157781900    0.0027566237    
0.0077305589    0.1001672500    0.0025152094    
0.0079532199    0.0950150260    0.0024157230    
0.0081758809    0.0904717630    0.0023791888    
0.0083985419    0.0808257880    0.0020974264    
0.0086212029    0.0773423990    0.0020517318    
0.0088438639    0.0710705460    0.0019509862    
0.0090665249    0.0642487940    0.0017916142    
0.0092891859    0.0638442480    0.0018641153    
0.0095118469    0.0626681190    0.0017760778    
0.0097345079    0.0548867790    0.0016143170    
0.0099571689    0.0561077010    0.0015985165    
0.0101798300    0.0517812240    0.0015356494    
0.0104024910    0.0478578530    0.0014713310    
0.0106251520    0.0458607840    0.0014451960    
0.0108478130    0.0434937840    0.0013706055    
0.0110704740    0.0424387590    0.0012889855    
0.0112931350    0.0435547780    0.0013096590    
0.0115157960    0.0413357430    0.0012684212    
0.0117384570    0.0401680750    0.0012396137    
0.0119611180    0.0358973390    0.0011752261    
0.0121837790    0.0356677780    0.0011517726    
0.0124064400    0.0374014200    0.0011302670    
0.0126291010    0.0354052250    0.0010859272    
0.0128517620    0.0348123700    0.0010794858    
0.0130744230    0.0333415250    0.0010486001    
0.0132970840    0.0331795350    0.0010409346    
0.0135197450    0.0320456780    0.0010083441    
0.0137424060    0.0310979280    0.0009794927    
0.0139650670    0.0300818870    0.0009419004    
0.0141877280    0.0301853780    0.0009456045    
0.0144103890    0.0291247970    0.0009128281    
0.0146330500    0.0279652010    0.0008887924    
0.0148557110    0.0296359580    0.0009111212    
0.0150783720    0.0295062840    0.0009016122    
0.0153010330    0.0272876170    0.0008548276    
0.0155236940    0.0277578950    0.0008570354    
0.0157463550    0.0266510730    0.0008252253    
0.0159690160    0.0274635280    0.0008345303    
0.0161916770    0.0257758970    0.0008039281    
0.0164143380    0.0257097390    0.0008089785    
0.0166369990    0.0257746580    0.0007850251    
0.0168596600    0.0235607100    0.0007439400    
0.0170823210    0.0253706820    0.0007653028    
0.0173049820    0.0245087070    0.0007534901    
0.0175276430    0.0246261770    0.0007632585    
0.0177503040    0.0229822320    0.0007185457    
0.0179729650    0.0251272540    0.0007438789    
0.0181956260    0.0238129030    0.0007102793    
0.0184182870    0.0239457380    0.0007089007    
0.0186409480    0.0224007970    0.0006899906    
0.0188636090    0.0230013550    0.0006947813    
0.0190862700    0.0234315890    0.0007001526    
0.0193089310    0.0226703570    0.0006876122    
0.0195315920    0.0245798310    0.0006916354    
0.0197542530    0.0238122180    0.0006817418    
0.0199769140    0.0223288420    0.0006601661    
0.0201995750    0.0233938060    0.0006651445    
0.0204222360    0.0230084070    0.0006653053    
0.0206448970    0.0225118290    0.0006534095    
0.0208675580    0.0220490420    0.0006333422    
0.0210902190    0.0230885810    0.0006543537    
0.0213128800    0.0215820410    0.0006240608    
0.0215355410    0.0216699010    0.0006178803    
0.0217582020    0.0210709040    0.0006092809    
0.0219808630    0.0218590440    0.0006197563    
0.0222035240    0.0214819420    0.0006088200    
0.0224261850    0.0226774970    0.0006199648    
0.0226488460    0.0223548870    0.0006109170    
0.0228715070    0.0216292960    0.0005994278    
0.0230941680    0.0216625300    0.0005998883    
0.0233168290    0.0222881330    0.0006100045    
0.0235394900    0.0208681510    0.0005837388    
0.0237621510    0.0215995980    0.0005778931    
0.0239848120    0.0209057400    0.0005691930    
0.0242074730    0.0217924090    0.0005764865    
0.0244301340    0.0212002060    0.0005692484    
0.0246527950    0.0203023840    0.0005622225    
0.0248754560    0.0201439320    0.0005474380    
0.0250981170    0.0218776840    0.0005717824    
0.0253207780    0.0204641880    0.0005364917    
0.0255434390    0.0213918070    0.0005543705    
0.0257661000    0.0208652800    0.0005492765    
0.0259887610    0.0201127760    0.0005335498    
0.0262114220    0.0214720800    0.0005542220    
0.0264340830    0.0213649950    0.0005453165    
0.0266567440    0.0215004460    0.0005436622    
0.0268794050    0.0208344370    0.0005329913    
0.0271020660    0.0208554360    0.0005311010    
0.0273247270    0.0207660360    0.0005267786    
0.0275473880    0.0196320010    0.0005111738    
0.0277700490    0.0212156980    0.0005282508    
0.0279927100    0.0210797350    0.0005219611    
0.0282153710    0.0210502950    0.0005241324    
0.0284380320    0.0207295520    0.0005171089    
0.0286606930    0.0211116380    0.0005173862    
0.0288833540    0.0209246350    0.0005160681    
0.0291060150    0.0205927550    0.0005114733    
0.0293286760    0.0210110280    0.0005094425    
0.0295513370    0.0191178580    0.0004806578    
0.0297739980    0.0198870030    0.0004956286    
0.0299966590    0.0197027650    0.0004849016    
0.0302193200    0.0206005950    0.0005030524    
0.0304419810    0.0202079640    0.0004991523    
0.0306646420    0.0211325760    0.0004960371    
0.0308873030    0.0213774990    0.0004967483    
0.0311099640    0.0206880560    0.0004899413    
0.0313326250    0.0203797430    0.0004808898    
0.0315552860    0.0202360880    0.0004854021    
0.0317779470    0.0203763260    0.0004875054    
0.0320006080    0.0207419850    0.0004806849    
0.0322232690    0.0202532550    0.0004769765    
0.0324459300    0.0205384760    0.0004767374    
0.0326685910    0.0201509590    0.0004714400    
0.0328912520    0.0202846430    0.0004745676    
0.0331139130    0.0193060730    0.0004569565    
0.0333365740    0.0215544380    0.0004844000    
0.0335592350    0.0198605970    0.0004605066    
0.0337818960    0.0196477510    0.0004576676    
0.0340045570    0.0207224680    0.0004692715    
0.0342272170    0.0196631360    0.0004553165    
0.0344498780    0.0203080430    0.0004645556    
0.0346725390    0.0197265970    0.0004493775    
0.0348952000    0.0199834640    0.0004502333    
0.0351178610    0.0203715500    0.0004566648    
0.0353405220    0.0203588130    0.0004544423    
0.0355631830    0.0201252110    0.0004501259    
0.0357858440    0.0206286060    0.0004557209    
0.0360085050    0.0199735510    0.0004497818    
0.0362311660    0.0197784130    0.0004422588    
0.0364538270    0.0208342860    0.0004502672    
0.0366764880    0.0199392500    0.0004401697    
0.0368991490    0.0202485450    0.0004413344    
0.0371218100    0.0196737660    0.0004337808    
0.0373444710    0.0198797960    0.0004407948    
0.0375671320    0.0199291330    0.0004406987    
0.0377897930    0.0203347470    0.0004336368    
0.0380124540    0.0203847220    0.0004368935    
0.0382351150    0.0193266400    0.0004254039    
0.0384577760    0.0199198020    0.0004277158    
0.0386804370    0.0201970210    0.0004339684    
0.0389030980    0.0203422880    0.0004322280    
0.0391257590    0.0197137100    0.0004226092    
0.0393484200    0.0195902370    0.0004198658    
0.0395710810    0.0200129980    0.0004249437    
0.0397937420    0.0195889310    0.0004204175    
0.0400164030    0.0205309410    0.0004321585    
0.0402390640    0.0192173440    0.0004125376    
0.0404617250    0.0199189550    0.0004175230    
0.0406843860    0.0199650850    0.0004139675    
0.0409070470    0.0200239250    0.0004188959    
0.0411297080    0.0191227010    0.0004054005    
0.0413523690    0.0198779650    0.0004143942    
0.0415750300    0.0194614900    0.0004135130    
0.0417976910    0.0199435870    0.0004077770    
0.0420203520    0.0199509350    0.0004093846    
0.0422430130    0.0193574420    0.0004047761    
0.0424656740    0.0201018620    0.0004071172    
0.0426883350    0.0200021140    0.0004081214    
0.0429109960    0.0195910180    0.0004051676    
0.0431336570    0.0194989820    0.0003985198    
0.0433563180    0.0192402540    0.0003992820    
0.0435789790    0.0198526430    0.0003992145    
0.0438016400    0.0198501190    0.0004013607    
0.0440243010    0.0195765840    0.0003945417    
0.0442469620    0.0196911890    0.0003980659    
0.0444696230    0.0207406470    0.0004070708    
0.0446922840    0.0198313800    0.0003968658    
0.0449149450    0.0196757920    0.0003900213    
0.0451376060    0.0192377660    0.0003904184    
0.0453602670    0.0199381730    0.0003932953    
0.0455829280    0.0201475120    0.0003948975    
0.0458055890    0.0194669870    0.0003904345    
0.0460282500    0.0200244800    0.0003912106    
0.0462509110    0.0198591960    0.0003871696    
0.0464735720    0.0200403170    0.0003891507    
0.0466962330    0.0199102870    0.0003896495    
0.0469188940    0.0195852540    0.0003853603    
0.0471415550    0.0200627260    0.0003920326    
0.0473642160    0.0192665060    0.0003787955    
0.0475868770    0.0192304010    0.0003765603    
0.0478095380    0.0193548350    0.0003761235    
0.0480321990    0.0193663290    0.0003770595    
0.0482548600    0.0195181510    0.0003768854    
0.0484775210    0.0196552930    0.0003819623    
0.0487001820    0.0194444070    0.0003743465    
0.0489228430    0.0193515230    0.0003732506    
0.0491455040    0.0196527630    0.0003735430    
0.0493681650    0.0193419580    0.0003737620    
0.0495908260    0.0194924660    0.0003689004    
0.0498134870    0.0198724620    0.0003760246    
0.0500361480    0.0199656150    0.0003759076    
0.0502588090    0.0200928170    0.0003714528    
0.0504814700    0.0194375790    0.0003701221    
0.0507041310    0.0192120840    0.0003635941    
0.0509267920    0.0197321580    0.0003700069    
0.0511494530    0.0194014280    0.0003644465    
0.0513721140    0.0195774450    0.0003693200    
0.0515947750    0.0198554190    0.0003670014    
0.0518174360    0.0200056530    0.0003661681    
0.0520400970    0.0202315040    0.0003656761    
0.0522627580    0.0194138890    0.0003612551    
0.0524854190    0.0200793020    0.0003703811    
0.0527080800    0.0190176660    0.0003632476    
0.0529307410    0.0198270400    0.0003726387    
0.0531534020    0.0188277620    0.0003618048    
0.0533760630    0.0202121420    0.0003760439    
0.0535987240    0.0196079850    0.0003686519    
0.0538213850    0.0198592850    0.0003753052    
0.0540440460    0.0193345250    0.0003685609    
0.0542667070    0.0191888140    0.0003696999    
0.0544893680    0.0193803970    0.0003717388    
0.0547120290    0.0193197250    0.0003686138    
0.0549346900    0.0201074660    0.0003762515    
0.0551573510    0.0191061900    0.0003710814    
0.0553800120    0.0196329350    0.0003729640    
0.0556026730    0.0193703510    0.0003781426    
0.0558253340    0.0195459820    0.0003830337    
0.0560479950    0.0192232370    0.0003798584    
0.0562706560    0.0193365690    0.0003846598    
0.0564933170    0.0198451340    0.0003930693    
0.0567159780    0.0190453190    0.0003804501    
0.0569386390    0.0201570860    0.0003975362    
0.0571613000    0.0197712850    0.0003852361    
0.0573839610    0.0197912830    0.0003822307    
0.0576066220    0.0194779010    0.0003802421    
0.0578292830    0.0191132460    0.0003754196    
0.0580519440    0.0192617600    0.0003783367    
0.0582746050    0.0201824030    0.0003855650    
0.0584972660    0.0190121630    0.0003727875    
0.0587199270    0.0190234450    0.0003696836    
0.0589425880    0.0191920740    0.0003691466    
0.0591652490    0.0198281040    0.0003774215    
0.0593879100    0.0193860520    0.0003704191    
0.0596105710    0.0192745450    0.0003689626    
0.0598332320    0.0196485640    0.0003757095    
0.0600558930    0.0194484640    0.0003714083    
0.0602785540    0.0197046360    0.0003734512    
0.0605012150    0.0193397690    0.0003691979    
0.0607238760    0.0198368370    0.0003711875    
0.0609465370    0.0190426940    0.0003665447    
0.0611691980    0.0196268640    0.0003727142    
0.0613918590    0.0189029170    0.0003617825    
0.0616145200    0.0192860190    0.0003681047    
0.0618371810    0.0185370680    0.0003573421    
0.0620598420    0.0200386930    0.0003719169    
0.0622825030    0.0194822180    0.0003723245    
0.0625051640    0.0200663060    0.0003725577    
0.0627278250    0.0196806530    0.0003682005    
0.0629504860    0.0194975010    0.0003635039    
0.0631731470    0.0196981620    0.0003698900    
0.0633958080    0.0201574060    0.0003763305    
0.0636184690    0.0198054720    0.0003782261    
0.0638411300    0.0202592450    0.0003810985    
0.0640637910    0.0203489380    0.0003846275    
0.0642864520    0.0203405900    0.0003837164    
0.0645091130    0.0195937350    0.0003799062    
0.0647317740    0.0194597870    0.0003790228    
0.0649544350    0.0196158780    0.0003801213    
0.0651770960    0.0191838740    0.0003738616    
0.0653997570    0.0196303280    0.0003773668    
0.0656224180    0.0195700740    0.0003776065    
0.0658450790    0.0192592720    0.0003692118    
0.0660677400    0.0196020130    0.0003740679    
0.0662904010    0.0198169830    0.0003806035    
0.0665130620    0.0198845680    0.0003795982    
0.0667357230    0.0200424560    0.0003878781    
0.0669583840    0.0195953970    0.0003822446    
0.0671810450    0.0198220690    0.0003823264    
0.0674037060    0.0193935770    0.0003845783    
0.0676263670    0.0195014210    0.0003828226    
0.0678490280    0.0197387170    0.0003827893    
0.0680716890    0.0202143980    0.0003882362    
0.0682943500    0.0193728520    0.0003759062    
0.0685170110    0.0192873240    0.0003712535    
0.0687396720    0.0202867410    0.0003797391    
0.0689623330    0.0191624580    0.0003678971    
0.0691849940    0.0188918060    0.0003678206    
0.0694076550    0.0197229440    0.0003756240    
0.0696303160    0.0191654470    0.0003673456    
0.0698529770    0.0200668010    0.0003750968    
0.0700756380    0.0187486700    0.0003579138    
0.0702982990    0.0200180640    0.0003738593    
0.0705209600    0.0193515610    0.0003649290    
0.0707436210    0.0197810940    0.0003672624    
0.0709662820    0.0202345890    0.0003758765    
0.0711889430    0.0199176920    0.0003683412    
0.0714116040    0.0189457930    0.0003599755    
0.0716342650    0.0196538480    0.0003651517    
0.0718569260    0.0195564200    0.0003627785    
0.0720795870    0.0200473840    0.0003687899    
0.0723022480    0.0192238900    0.0003616863    
0.0725249090    0.0195699940    0.0003605573    
0.0727475700    0.0196827550    0.0003646831    
0.0729702310    0.0190109710    0.0003555472    
0.0731928920    0.0195452940    0.0003619499    
0.0734155530    0.0192270340    0.0003582746    
0.0736382140    0.0198905520    0.0003620656    
0.0738608750    0.0194140140    0.0003600130    
0.0740835360    0.0204470440    0.0003685498    
0.0743061970    0.0194620020    0.0003544997    
0.0745288580    0.0194424910    0.0003579653    
0.0747515190    0.0196980160    0.0003610215    
0.0749741800    0.0188868920    0.0003502380    
0.0751968410    0.0195079040    0.0003587442    
0.0754195020    0.0193256300    0.0003549724    
0.0756421630    0.0196972590    0.0003554397    
0.0758648240    0.0189349130    0.0003493312    
0.0760874850    0.0196764920    0.0003559353    
0.0763101460    0.0198379670    0.0003570498    
0.0765328070    0.0190064710    0.0003530631    
0.0767554680    0.0193705010    0.0003540095    
0.0769781290    0.0192828240    0.0003511777    
0.0772007900    0.0189369990    0.0003452233    
0.0774234510    0.0194649350    0.0003519931    
0.0776461120    0.0197266260    0.0003540153    
0.0778687730    0.0197858440    0.0003533750    
0.0780914340    0.0191477500    0.0003501141    
0.0783140950    0.0197230250    0.0003496968    
0.0785367560    0.0190133650    0.0003488838    
0.0787594170    0.0198814050    0.0003535625    
0.0789820780    0.0196097280    0.0003493392    
0.0792047390    0.0192182440    0.0003469653    
0.0794274000    0.0199247310    0.0003547820    
0.0796500610    0.0201633440    0.0003534167    
0.0798727220    0.0194027090    0.0003463665    
0.0800953830    0.0195289850    0.0003466927    
0.0803180440    0.0191592180    0.0003457869    
0.0805407050    0.0196157060    0.0003495567    
0.0807633660    0.0189202380    0.0003429854    
0.0809860270    0.0187190430    0.0003398971    
0.0812086880    0.0193856020    0.0003429067    
0.0814313490    0.0197648250    0.0003478235    
0.0816540100    0.0197663290    0.0003470448    
0.0818766710    0.0196975500    0.0003472316    
0.0820993320    0.0194733520    0.0003446206    
0.0823219930    0.0190071010    0.0003418743    
0.0825446540    0.0198894000    0.0003471782    
0.0827673150    0.0188338270    0.0003355701    
0.0829899760    0.0199405020    0.0003446738    
0.0832126370    0.0192479050    0.0003401518    
0.0834352980    0.0195987860    0.0003424708    
0.0836579590    0.0194043920    0.0003400096    
0.0838806200    0.0195440100    0.0003422984    
0.0841032810    0.0195685550    0.0003403870    
0.0843259420    0.0191186840    0.0003354155    
0.0845486030    0.0194305910    0.0003381407    
0.0847712640    0.0198862300    0.0003399976    
0.0849939250    0.0196405540    0.0003384793    
0.0852165860    0.0190311590    0.0003336234    
0.0854392470    0.0201242050    0.0003398215    
0.0856619080    0.0199267580    0.0003406408    
0.0858845690    0.0191462490    0.0003308956    
0.0861072300    0.0192839530    0.0003343759    
0.0863298910    0.0197910980    0.0003405180    
0.0865525520    0.0197386860    0.0003371303    
0.0867752130    0.0195800620    0.0003330636    
0.0869978740    0.0192529080    0.0003311111    
0.0872205350    0.0191982680    0.0003302203    
0.0874431960    0.0195561360    0.0003332841    
0.0876658570    0.0195291650    0.0003343329    
0.0878885180    0.0197110560    0.0003364622    
0.0881111790    0.0191793010    0.0003314668    
0.0883338400    0.0194171680    0.0003286328    
0.0885565010    0.0192674030    0.0003318023    
0.0887791620    0.0187430990    0.0003230129    
0.0890018230    0.0185806650    0.0003247296    
0.0892244840    0.0192816820    0.0003313610    
0.0894471450    0.0197458990    0.0003339097    
0.0896698060    0.0193002040    0.0003288746    
0.0898924670    0.0196661940    0.0003335170    
0.0901151280    0.0192104390    0.0003260694    
0.0903377890    0.0193476240    0.0003299702    
0.0905604500    0.0192150580    0.0003273287    
0.0907831110    0.0199573690    0.0003327615    
0.0910057720    0.0198385900    0.0003332923    
0.0912284330    0.0191276830    0.0003225804    
0.0914510940    0.0194676620    0.0003290636    
0.0916737550    0.0197917910    0.0003309682    
0.0918964160    0.0197391060    0.0003319021    
0.0921190770    0.0193289660    0.0003254662    
0.0923417380    0.0194106450    0.0003262869    
0.0925643990    0.0190374030    0.0003223439    
0.0927870600    0.0192874120    0.0003257841    
0.0930097210    0.0196580990    0.0003260987    
0.0932323820    0.0195748960    0.0003277999    
