# Diamond Light Source Ltd.
# Data extracted from: /dls/b21/data/2018/cm19678-3/processed/b21-386631_00112.dat
q(1/A)          Column          Error           
0.0035000000    2.0713443000    0.0245546830    
0.0037226610    1.9094418000    0.0230791440    
0.0039453220    1.6176269000    0.0193246800    
0.0041679830    1.2935175000    0.0141913620    
0.0043906440    0.9935521500    0.0118964820    
0.0046133050    0.7932804800    0.0102047050    
0.0048359660    0.5910308700    0.0083318194    
0.0050586270    0.4599059400    0.0072240495    
0.0052812880    0.4316185400    0.0066168350    
0.0055039490    0.3898636500    0.0059795320    
0.0057266100    0.3204113800    0.0052441963    
0.0059492710    0.2592989300    0.0047176460    
0.0061719320    0.2299382200    0.0042809313    
0.0063945930    0.1987245000    0.0040280154    
0.0066172539    0.1800426800    0.0036001337    
0.0068399149    0.1759506200    0.0035029358    
0.0070625759    0.1453069100    0.0031506671    
0.0072852369    0.1274684800    0.0029067867    
0.0075078979    0.1113193400    0.0027030726    
0.0077305589    0.0991605220    0.0025025858    
0.0079532199    0.1004237300    0.0024835760    
0.0081758809    0.0911634830    0.0023883124    
0.0083985419    0.0865984800    0.0021710768    
0.0086212029    0.0737529600    0.0020035944    
0.0088438639    0.0678597000    0.0019064421    
0.0090665249    0.0627523860    0.0017706610    
0.0092891859    0.0644454210    0.0018729070    
0.0095118469    0.0566299820    0.0016883799    
0.0097345079    0.0537967970    0.0015982380    
0.0099571689    0.0550623400    0.0015835855    
0.0101798300    0.0513277650    0.0015289398    
0.0104024910    0.0482668060    0.0014776322    
0.0106251520    0.0454981870    0.0014394989    
0.0108478130    0.0474260170    0.0014312499    
0.0110704740    0.0446328730    0.0013219116    
0.0112931350    0.0444228450    0.0013226710    
0.0115157960    0.0385737170    0.0012253345    
0.0117384570    0.0386393390    0.0012158192    
0.0119611180    0.0397463750    0.0012366516    
0.0121837790    0.0376032340    0.0011826320    
0.0124064400    0.0368221660    0.0011215017    
0.0126291010    0.0331749310    0.0010511879    
0.0128517620    0.0330060660    0.0010511273    
0.0130744230    0.0332438590    0.0010470831    
0.0132970840    0.0338992850    0.0010521844    
0.0135197450    0.0318247950    0.0010048822    
0.0137424060    0.0333204810    0.0010139100    
0.0139650670    0.0304369550    0.0009474610    
0.0141877280    0.0308086280    0.0009553350    
0.0144103890    0.0295836840    0.0009200088    
0.0146330500    0.0285594930    0.0008982039    
0.0148557110    0.0291048550    0.0009029375    
0.0150783720    0.0282676040    0.0008825012    
0.0153010330    0.0269137420    0.0008489675    
0.0155236940    0.0282352770    0.0008643902    
0.0157463550    0.0281086290    0.0008475071    
0.0159690160    0.0271349010    0.0008295381    
0.0161916770    0.0267798730    0.0008194508    
0.0164143380    0.0269835300    0.0008287925    
0.0166369990    0.0255365360    0.0007814053    
0.0168596600    0.0254878840    0.0007737825    
0.0170823210    0.0250715310    0.0007607920    
0.0173049820    0.0239304930    0.0007445631    
0.0175276430    0.0239410600    0.0007525808    
0.0177503040    0.0243535600    0.0007396867    
0.0179729650    0.0242032500    0.0007300874    
0.0181956260    0.0242163600    0.0007162848    
0.0184182870    0.0239046780    0.0007083062    
0.0186409480    0.0226992080    0.0006945845    
0.0188636090    0.0232540830    0.0006986012    
0.0190862700    0.0227629850    0.0006901043    
0.0193089310    0.0231926400    0.0006955011    
0.0195315920    0.0230432560    0.0006696810    
0.0197542530    0.0244962920    0.0006914782    
0.0199769140    0.0239107310    0.0006831638    
0.0201995750    0.0219384420    0.0006441348    
0.0204222360    0.0232978640    0.0006694899    
0.0206448970    0.0222092320    0.0006490156    
0.0208675580    0.0219771130    0.0006323204    
0.0210902190    0.0221807210    0.0006413721    
0.0213128800    0.0222325170    0.0006334076    
0.0215355410    0.0217235850    0.0006186570    
0.0217582020    0.0223402400    0.0006273764    
0.0219808630    0.0210691280    0.0006084669    
0.0222035240    0.0222419930    0.0006195085    
0.0224261850    0.0220512340    0.0006113561    
0.0226488460    0.0216211240    0.0006008186    
0.0228715070    0.0215636710    0.0005985292    
0.0230941680    0.0221783600    0.0006070002    
0.0233168290    0.0206027020    0.0005864981    
0.0235394900    0.0210649010    0.0005864953    
0.0237621510    0.0214612650    0.0005760506    
0.0239848120    0.0224408220    0.0005897317    
0.0242074730    0.0213357210    0.0005704249    
0.0244301340    0.0218735790    0.0005782292    
0.0246527950    0.0198516330    0.0005559569    
0.0248754560    0.0214390810    0.0005647733    
0.0250981170    0.0215646890    0.0005676884    
0.0253207780    0.0215479960    0.0005505256    
0.0255434390    0.0206742690    0.0005450041    
0.0257661000    0.0206347140    0.0005462437    
0.0259887610    0.0215714580    0.0005525696    
0.0262114220    0.0203284420    0.0005392710    
0.0264340830    0.0205028270    0.0005342104    
0.0266567440    0.0213500440    0.0005417676    
0.0268794050    0.0205079780    0.0005288091    
0.0271020660    0.0213566750    0.0005374556    
0.0273247270    0.0203258350    0.0005211753    
0.0275473880    0.0213497850    0.0005330787    
0.0277700490    0.0209271330    0.0005246560    
0.0279927100    0.0203696710    0.0005131046    
0.0282153710    0.0195241440    0.0005047847    
0.0284380320    0.0200337420    0.0005083658    
0.0286606930    0.0203262760    0.0005076812    
0.0288833540    0.0206708680    0.0005129390    
0.0291060150    0.0206570630    0.0005122811    
0.0293286760    0.0206536050    0.0005051004    
0.0295513370    0.0198074380    0.0004892590    
0.0297739980    0.0207648010    0.0005064585    
0.0299966590    0.0202524960    0.0004916291    
0.0302193200    0.0210313460    0.0005082942    
0.0304419810    0.0196169000    0.0004918077    
0.0306646420    0.0202368160    0.0004854196    
0.0308873030    0.0200970020    0.0004816504    
0.0311099640    0.0204219680    0.0004867896    
0.0313326250    0.0201989580    0.0004787612    
0.0315552860    0.0198991920    0.0004813538    
0.0317779470    0.0207153630    0.0004915538    
0.0320006080    0.0206425170    0.0004795401    
0.0322232690    0.0200855260    0.0004750064    
0.0324459300    0.0204617960    0.0004758557    
0.0326685910    0.0206260180    0.0004769739    
0.0328912520    0.0203742430    0.0004756237    
0.0331139130    0.0207453580    0.0004736926    
0.0333365740    0.0196174650    0.0004621314    
0.0335592350    0.0198293210    0.0004601526    
0.0337818960    0.0198297410    0.0004597911    
0.0340045570    0.0205425950    0.0004672393    
0.0342272170    0.0198958470    0.0004580116    
0.0344498780    0.0202238000    0.0004635999    
0.0346725390    0.0195635530    0.0004475251    
0.0348952000    0.0199537940    0.0004499076    
0.0351178610    0.0197990370    0.0004502107    
0.0353405220    0.0191321320    0.0004405473    
0.0355631830    0.0204481570    0.0004537318    
0.0357858440    0.0208408230    0.0004580677    
0.0360085050    0.0201059910    0.0004512791    
0.0362311660    0.0208274650    0.0004538447    
0.0364538270    0.0199689810    0.0004408260    
0.0366764880    0.0208340090    0.0004499461    
0.0368991490    0.0210381290    0.0004498655    
0.0371218100    0.0194736600    0.0004315774    
0.0373444710    0.0202715200    0.0004451249    
0.0375671320    0.0201345530    0.0004429726    
0.0377897930    0.0204742390    0.0004351299    
0.0380124540    0.0203948650    0.0004370105    
0.0382351150    0.0198892210    0.0004315593    
0.0384577760    0.0203981430    0.0004328290    
0.0386804370    0.0200019690    0.0004318760    
0.0389030980    0.0204991970    0.0004339001    
0.0391257590    0.0202399400    0.0004282207    
0.0393484200    0.0193480110    0.0004172699    
0.0395710810    0.0192106850    0.0004163466    
0.0397937420    0.0202483830    0.0004274437    
0.0400164030    0.0199495240    0.0004260035    
0.0402390640    0.0201656980    0.0004226022    
0.0404617250    0.0197621790    0.0004158846    
0.0406843860    0.0194937400    0.0004090596    
0.0409070470    0.0199633460    0.0004182698    
0.0411297080    0.0195445770    0.0004098558    
0.0413523690    0.0198355290    0.0004139595    
0.0415750300    0.0206220590    0.0004256724    
0.0417976910    0.0198276180    0.0004065974    
0.0420203520    0.0194896580    0.0004046320    
0.0422430130    0.0201961620    0.0004134601    
0.0424656740    0.0196985990    0.0004030206    
0.0426883350    0.0200445170    0.0004085616    
0.0429109960    0.0194828300    0.0004040551    
0.0431336570    0.0194019840    0.0003975349    
0.0433563180    0.0195061530    0.0004020392    
0.0435789790    0.0197329810    0.0003980171    
0.0438016400    0.0203621640    0.0004065122    
0.0440243010    0.0203486570    0.0004022542    
0.0442469620    0.0199977420    0.0004011601    
0.0444696230    0.0199584420    0.0003993286    
0.0446922840    0.0196415210    0.0003949690    
0.0449149450    0.0199935330    0.0003931654    
0.0451376060    0.0202685700    0.0004007494    
0.0453602670    0.0188527670    0.0003824476    
0.0455829280    0.0199238110    0.0003927065    
0.0458055890    0.0191388310    0.0003871371    
0.0460282500    0.0197653760    0.0003886788    
0.0462509110    0.0203128620    0.0003915744    
0.0464735720    0.0199277280    0.0003880634    
0.0466962330    0.0200788160    0.0003913025    
0.0469188940    0.0193812710    0.0003833556    
0.0471415550    0.0190446130    0.0003819633    
0.0473642160    0.0189172000    0.0003753531    
0.0475868770    0.0198210480    0.0003823068    
0.0478095380    0.0197795260    0.0003802349    
0.0480321990    0.0203214730    0.0003862533    
0.0482548600    0.0192059540    0.0003738662    
0.0484775210    0.0192477810    0.0003779892    
0.0487001820    0.0194811860    0.0003747075    
0.0489228430    0.0195538490    0.0003752039    
0.0491455040    0.0199517250    0.0003763806    
0.0493681650    0.0188587690    0.0003690710    
0.0495908260    0.0199260830    0.0003729881    
0.0498134870    0.0195316840    0.0003727937    
0.0500361480    0.0196408010    0.0003728445    
0.0502588090    0.0191527710    0.0003626664    
0.0504814700    0.0191141150    0.0003670366    
0.0507041310    0.0194674300    0.0003660093    
0.0509267920    0.0193721130    0.0003666226    
0.0511494530    0.0201141750    0.0003710875    
0.0513721140    0.0198081150    0.0003714965    
0.0515947750    0.0195034200    0.0003637407    
0.0518174360    0.0188670240    0.0003556020    
0.0520400970    0.0193465780    0.0003575961    
0.0522627580    0.0200734380    0.0003673473    
0.0524854190    0.0197179580    0.0003670403    
0.0527080800    0.0200105970    0.0003726168    
0.0529307410    0.0194706030    0.0003692810    
0.0531534020    0.0198297000    0.0003713140    
0.0533760630    0.0197511440    0.0003717379    
0.0535987240    0.0199760950    0.0003721034    
0.0538213850    0.0193351710    0.0003703268    
0.0540440460    0.0189909950    0.0003652790    
0.0542667070    0.0199232230    0.0003767154    
0.0544893680    0.0193668760    0.0003716162    
0.0547120290    0.0192360640    0.0003678219    
0.0549346900    0.0196576300    0.0003720261    
0.0551573510    0.0193375580    0.0003733286    
0.0553800120    0.0207531800    0.0003834643    
0.0556026730    0.0188469490    0.0003730059    
0.0558253340    0.0192689910    0.0003803173    
0.0560479950    0.0197869540    0.0003853951    
0.0562706560    0.0197505310    0.0003887629    
0.0564933170    0.0198770360    0.0003933926    
0.0567159780    0.0198364650    0.0003882791    
0.0569386390    0.0202676230    0.0003986324    
0.0571613000    0.0194642750    0.0003822407    
0.0573839610    0.0198732450    0.0003830286    
0.0576066220    0.0199537350    0.0003848660    
0.0578292830    0.0197334110    0.0003814689    
0.0580519440    0.0194928730    0.0003806069    
0.0582746050    0.0201684420    0.0003854390    
0.0584972660    0.0194807190    0.0003773604    
0.0587199270    0.0198719260    0.0003778452    
0.0589425880    0.0201087790    0.0003778671    
0.0591652490    0.0190673180    0.0003701171    
0.0593879100    0.0196628370    0.0003730612    
0.0596105710    0.0195366170    0.0003714696    
0.0598332320    0.0196205770    0.0003754490    
0.0600558930    0.0199953740    0.0003766015    
0.0602785540    0.0199177310    0.0003754722    
0.0605012150    0.0192488800    0.0003683364    
0.0607238760    0.0189901910    0.0003631868    
0.0609465370    0.0199042210    0.0003747517    
0.0611691980    0.0190259750    0.0003669714    
0.0613918590    0.0194298950    0.0003667977    
0.0616145200    0.0199472130    0.0003743687    
0.0618371810    0.0200533140    0.0003716764    
0.0620598420    0.0194181870    0.0003661203    
0.0622825030    0.0194118050    0.0003716582    
0.0625051640    0.0196243650    0.0003684393    
0.0627278250    0.0198054040    0.0003693727    
0.0629504860    0.0195795730    0.0003642751    
0.0631731470    0.0188515000    0.0003618603    
0.0633958080    0.0197366040    0.0003723888    
0.0636184690    0.0191127950    0.0003715603    
0.0638411300    0.0200592830    0.0003792203    
0.0640637910    0.0190265110    0.0003719266    
0.0642864520    0.0194871750    0.0003755877    
0.0645091130    0.0203679500    0.0003873466    
0.0647317740    0.0196303300    0.0003806873    
0.0649544350    0.0194103690    0.0003781321    
0.0651770960    0.0207730020    0.0003890457    
0.0653997570    0.0188765950    0.0003700582    
0.0656224180    0.0192356550    0.0003743734    
0.0658450790    0.0197342540    0.0003737441    
0.0660677400    0.0194814050    0.0003729224    
0.0662904010    0.0196934680    0.0003794228    
0.0665130620    0.0198563400    0.0003793359    
0.0667357230    0.0191799370    0.0003794475    
0.0669583840    0.0199018690    0.0003852295    
0.0671810450    0.0197785790    0.0003819141    
0.0674037060    0.0198900440    0.0003894771    
0.0676263670    0.0194871360    0.0003826897    
0.0678490280    0.0196355400    0.0003817948    
0.0680716890    0.0192905380    0.0003792679    
0.0682943500    0.0197310110    0.0003793724    
0.0685170110    0.0194667210    0.0003729832    
0.0687396720    0.0197117320    0.0003743259    
0.0689623330    0.0192338250    0.0003685886    
0.0691849940    0.0197232840    0.0003758350    
0.0694076550    0.0201457860    0.0003796364    
0.0696303160    0.0195252810    0.0003707852    
0.0698529770    0.0196398530    0.0003710921    
0.0700756380    0.0198016480    0.0003678342    
0.0702982990    0.0197325460    0.0003711907    
0.0705209600    0.0193591820    0.0003650078    
0.0707436210    0.0195022730    0.0003646718    
0.0709662820    0.0190972110    0.0003651668    
0.0711889430    0.0197413390    0.0003667140    
0.0714116040    0.0198151840    0.0003681492    
0.0716342650    0.0190236440    0.0003592566    
0.0718569260    0.0192610500    0.0003600353    
0.0720795870    0.0203534520    0.0003716015    
0.0723022480    0.0190408850    0.0003599675    
0.0725249090    0.0198696840    0.0003633145    
0.0727475700    0.0198794640    0.0003665079    
0.0729702310    0.0187523560    0.0003531273    
0.0731928920    0.0190500170    0.0003573414    
0.0734155530    0.0193212370    0.0003591581    
0.0736382140    0.0188960870    0.0003529052    
0.0738608750    0.0203360890    0.0003684703    
0.0740835360    0.0195642770    0.0003605132    
0.0743061970    0.0191075860    0.0003512638    
0.0745288580    0.0191598240    0.0003553604    
0.0747515190    0.0196458330    0.0003605499    
0.0749741800    0.0198748610    0.0003592886    
0.0751968410    0.0196933770    0.0003604525    
0.0754195020    0.0197827940    0.0003591533    
0.0756421630    0.0192746750    0.0003516129    
0.0758648240    0.0198379480    0.0003575711    
0.0760874850    0.0196965600    0.0003561235    
0.0763101460    0.0195238250    0.0003542183    
0.0765328070    0.0196106000    0.0003586372    
0.0767554680    0.0188342300    0.0003490814    
0.0769781290    0.0196225430    0.0003542645    
0.0772007900    0.0193908690    0.0003493425    
0.0774234510    0.0189691700    0.0003474883    
0.0776461120    0.0189522620    0.0003470040    
0.0778687730    0.0191428250    0.0003475920    
0.0780914340    0.0196414380    0.0003546056    
0.0783140950    0.0193579490    0.0003464519    
0.0785367560    0.0193598020    0.0003520546    
0.0787594170    0.0196620910    0.0003516137    
0.0789820780    0.0197473960    0.0003505700    
0.0792047390    0.0190561060    0.0003455052    
0.0794274000    0.0192495170    0.0003487254    
0.0796500610    0.0190428530    0.0003434631    
0.0798727220    0.0192426820    0.0003449418    
0.0800953830    0.0191481240    0.0003433019    
0.0803180440    0.0196280270    0.0003499986    
0.0805407050    0.0197971080    0.0003511760    
0.0807633660    0.0195489660    0.0003486443    
0.0809860270    0.0194974340    0.0003468987    
0.0812086880    0.0192104350    0.0003413604    
0.0814313490    0.0192085440    0.0003429004    
0.0816540100    0.0199133270    0.0003483396    
0.0818766710    0.0199615190    0.0003495571    
0.0820993320    0.0196814620    0.0003464638    
0.0823219930    0.0196350670    0.0003474825    
0.0825446540    0.0192295790    0.0003413774    
0.0827673150    0.0201141000    0.0003467948    
0.0829899760    0.0191548140    0.0003378216    
0.0832126370    0.0192245950    0.0003399523    
0.0834352980    0.0197491500    0.0003437886    
0.0836579590    0.0192859750    0.0003389770    
0.0838806200    0.0195147800    0.0003420489    
0.0841032810    0.0200193080    0.0003442916    
0.0843259420    0.0193253790    0.0003372302    
0.0845486030    0.0196078750    0.0003396863    
0.0847712640    0.0189278100    0.0003317097    
0.0849939250    0.0191221250    0.0003339886    
0.0852165860    0.0194062070    0.0003369011    
0.0854392470    0.0193560130    0.0003332788    
0.0856619080    0.0192228940    0.0003345769    
0.0858845690    0.0194558030    0.0003335662    
0.0861072300    0.0193716630    0.0003351418    
0.0863298910    0.0198680220    0.0003411856    
0.0865525520    0.0198430900    0.0003380272    
0.0867752130    0.0199377520    0.0003360985    
0.0869978740    0.0197889420    0.0003356952    
0.0872205350    0.0201532710    0.0003383403    
0.0874431960    0.0193580770    0.0003315984    
0.0876658570    0.0200794040    0.0003390166    
0.0878885180    0.0191202260    0.0003313875    
0.0881111790    0.0194321020    0.0003336506    
0.0883338400    0.0189284300    0.0003244768    
0.0885565010    0.0186795810    0.0003267079    
0.0887791620    0.0196623570    0.0003308455    
0.0890018230    0.0197788920    0.0003350430    
0.0892244840    0.0193108920    0.0003316183    
0.0894471450    0.0193400880    0.0003304670    
0.0896698060    0.0193513790    0.0003293166    
0.0898924670    0.0186488130    0.0003247818    
0.0901151280    0.0196926980    0.0003301431    
0.0903377890    0.0196297530    0.0003323737    
0.0905604500    0.0193998090    0.0003289048    
0.0907831110    0.0193422430    0.0003275994    
0.0910057720    0.0190218080    0.0003263653    
0.0912284330    0.0197050950    0.0003274193    
0.0914510940    0.0198132750    0.0003319780    
0.0916737550    0.0191339020    0.0003254272    
0.0918964160    0.0197845070    0.0003322899    
0.0921190770    0.0193406660    0.0003255709    
0.0923417380    0.0193894470    0.0003261150    
0.0925643990    0.0194420360    0.0003257578    
0.0927870600    0.0188534090    0.0003221041    
0.0930097210    0.0194424620    0.0003243114    
0.0932323820    0.0192572510    0.0003251356    
