# Diamond Light Source Ltd.
# Data extracted from: /dls/b21/data/2018/cm19678-3/processed/b21-386631_00105.dat
q(1/A)          Column          Error           
0.0035000000    2.0928532000    0.0246782260    
0.0037226610    1.8475304000    0.0226985780    
0.0039453220    1.5984589000    0.0192070310    
0.0041679830    1.2802196000    0.0141161580    
0.0043906440    0.9543850300    0.0116579290    
0.0046133050    0.7700820800    0.0100529140    
0.0048359660    0.6117584800    0.0084754181    
0.0050586270    0.4720226800    0.0073175215    
0.0052812880    0.4124273300    0.0064671115    
0.0055039490    0.3911246900    0.0059883173    
0.0057266100    0.3131097200    0.0051833390    
0.0059492710    0.2755262800    0.0048623127    
0.0061719320    0.2168036700    0.0041562567    
0.0063945930    0.1944219600    0.0039835883    
0.0066172539    0.1843799300    0.0036427057    
0.0068399149    0.1666265500    0.0034083583    
0.0070625759    0.1479961500    0.0031792228    
0.0072852369    0.1255094000    0.0028839402    
0.0075078979    0.1108274100    0.0026966982    
0.0077305589    0.0988157640    0.0024978656    
0.0079532199    0.1006399200    0.0024858836    
0.0081758809    0.0910742220    0.0023867932    
0.0083985419    0.0857568940    0.0021601849    
0.0086212029    0.0827641220    0.0021221570    
0.0088438639    0.0723374860    0.0019680482    
0.0090665249    0.0642823720    0.0017918540    
0.0092891859    0.0663310400    0.0018998309    
0.0095118469    0.0625515060    0.0017741985    
0.0097345079    0.0539234390    0.0015998837    
0.0099571689    0.0555470420    0.0015903072    
0.0101798300    0.0489451480    0.0014928130    
0.0104024910    0.0472577640    0.0014618911    
0.0106251520    0.0484898620    0.0014858540    
0.0108478130    0.0457280850    0.0014051899    
0.0110704740    0.0432890300    0.0013016682    
0.0112931350    0.0423231980    0.0012908454    
0.0115157960    0.0405080470    0.0012554977    
0.0117384570    0.0385897730    0.0012148611    
0.0119611180    0.0386192350    0.0012188122    
0.0121837790    0.0364767210    0.0011646121    
0.0124064400    0.0372553000    0.0011279132    
0.0126291010    0.0363285590    0.0010998559    
0.0128517620    0.0358409120    0.0010951770    
0.0130744230    0.0335308530    0.0010514391    
0.0132970840    0.0321263230    0.0010241498    
0.0135197450    0.0328305210    0.0010204873    
0.0137424060    0.0322928920    0.0009980070    
0.0139650670    0.0310472120    0.0009567719    
0.0141877280    0.0305922970    0.0009518356    
0.0144103890    0.0298610420    0.0009241760    
0.0146330500    0.0287488090    0.0009010439    
0.0148557110    0.0298524410    0.0009143264    
0.0150783720    0.0273779400    0.0008683755    
0.0153010330    0.0267719970    0.0008466049    
0.0155236940    0.0278037320    0.0008576335    
0.0157463550    0.0276150230    0.0008399097    
0.0159690160    0.0267213150    0.0008230714    
0.0161916770    0.0265213520    0.0008153664    
0.0164143380    0.0243289590    0.0007868548    
0.0166369990    0.0247880430    0.0007697556    
0.0168596600    0.0254569320    0.0007731992    
0.0170823210    0.0252949800    0.0007640628    
0.0173049820    0.0256835830    0.0007712405    
0.0175276430    0.0237921440    0.0007501267    
0.0177503040    0.0232458940    0.0007225636    
0.0179729650    0.0238879270    0.0007252097    
0.0181956260    0.0240398210    0.0007135646    
0.0184182870    0.0231423480    0.0006968185    
0.0186409480    0.0237761900    0.0007107670    
0.0188636090    0.0238557280    0.0007074772    
0.0190862700    0.0244504900    0.0007151223    
0.0193089310    0.0218514080    0.0006749922    
0.0195315920    0.0228613960    0.0006669355    
0.0197542530    0.0233183200    0.0006745487    
0.0199769140    0.0242354510    0.0006876862    
0.0201995750    0.0232554980    0.0006630909    
0.0204222360    0.0213869810    0.0006413529    
0.0206448970    0.0231317890    0.0006622612    
0.0208675580    0.0227527420    0.0006432875    
0.0210902190    0.0225821100    0.0006470545    
0.0213128800    0.0222620850    0.0006337358    
0.0215355410    0.0215410870    0.0006159627    
0.0217582020    0.0213297350    0.0006129336    
0.0219808630    0.0230304700    0.0006360649    
0.0222035240    0.0210279650    0.0006022758    
0.0224261850    0.0211975490    0.0005993175    
0.0226488460    0.0222490450    0.0006093914    
0.0228715070    0.0219227320    0.0006034033    
0.0230941680    0.0218729160    0.0006027175    
0.0233168290    0.0226997290    0.0006155328    
0.0235394900    0.0219402580    0.0005984696    
0.0237621510    0.0204811570    0.0005626606    
0.0239848120    0.0220779020    0.0005848579    
0.0242074730    0.0219545650    0.0005785536    
0.0244301340    0.0213476150    0.0005711513    
0.0246527950    0.0208886950    0.0005702103    
0.0248754560    0.0212840640    0.0005626453    
0.0250981170    0.0204079940    0.0005521727    
0.0253207780    0.0200371400    0.0005307968    
0.0255434390    0.0214294450    0.0005547873    
0.0257661000    0.0204118290    0.0005432060    
0.0259887610    0.0205180120    0.0005388294    
0.0262114220    0.0206514220    0.0005434585    
0.0264340830    0.0206220550    0.0005356830    
0.0266567440    0.0203405070    0.0005287263    
0.0268794050    0.0209790760    0.0005347700    
0.0271020660    0.0207689940    0.0005299316    
0.0273247270    0.0208943410    0.0005283361    
0.0275473880    0.0205185300    0.0005225214    
0.0277700490    0.0197901370    0.0005101296    
0.0279927100    0.0204024660    0.0005134422    
0.0282153710    0.0205360950    0.0005176253    
0.0284380320    0.0199762880    0.0005075620    
0.0286606930    0.0208273770    0.0005138257    
0.0288833540    0.0209447540    0.0005162503    
0.0291060150    0.0207653150    0.0005135464    
0.0293286760    0.0205117140    0.0005032887    
0.0295513370    0.0202848960    0.0004950481    
0.0297739980    0.0206969720    0.0005055566    
0.0299966590    0.0201272540    0.0004900349    
0.0302193200    0.0203497250    0.0004999163    
0.0304419810    0.0207574990    0.0005058293    
0.0306646420    0.0206382980    0.0004901393    
0.0308873030    0.0197564540    0.0004774821    
0.0311099640    0.0208103850    0.0004913250    
0.0313326250    0.0198300200    0.0004742992    
0.0315552860    0.0203007740    0.0004861154    
0.0317779470    0.0194149620    0.0004758055    
0.0320006080    0.0201798610    0.0004740663    
0.0322232690    0.0203154760    0.0004776477    
0.0324459300    0.0203341060    0.0004742991    
0.0326685910    0.0203884130    0.0004741491    
0.0328912520    0.0210453660    0.0004833228    
0.0331139130    0.0200580620    0.0004657116    
0.0333365740    0.0203735490    0.0004708838    
0.0335592350    0.0201437620    0.0004637187    
0.0337818960    0.0196960350    0.0004581712    
0.0340045570    0.0198885000    0.0004596731    
0.0342272170    0.0199638020    0.0004587259    
0.0344498780    0.0203453660    0.0004649231    
0.0346725390    0.0208473480    0.0004619078    
0.0348952000    0.0205665680    0.0004566967    
0.0351178610    0.0191587060    0.0004428057    
0.0353405220    0.0206173000    0.0004572599    
0.0355631830    0.0203616450    0.0004527046    
0.0357858440    0.0195463870    0.0004435493    
0.0360085050    0.0204241320    0.0004547688    
0.0362311660    0.0205049890    0.0004502515    
0.0364538270    0.0196810010    0.0004375717    
0.0366764880    0.0198273100    0.0004388765    
0.0368991490    0.0199067980    0.0004375385    
0.0371218100    0.0196974390    0.0004339864    
0.0373444710    0.0195522790    0.0004370930    
0.0375671320    0.0198266270    0.0004395078    
0.0377897930    0.0203942810    0.0004342158    
0.0380124540    0.0199395480    0.0004320415    
0.0382351150    0.0203608200    0.0004365818    
0.0384577760    0.0199147270    0.0004276068    
0.0386804370    0.0201545860    0.0004334570    
0.0389030980    0.0202085640    0.0004307501    
0.0391257590    0.0197720880    0.0004231805    
0.0393484200    0.0200170750    0.0004243611    
0.0395710810    0.0192050570    0.0004162246    
0.0397937420    0.0197102300    0.0004216635    
0.0400164030    0.0201710350    0.0004282993    
0.0402390640    0.0208680820    0.0004298360    
0.0404617250    0.0206750880    0.0004253197    
0.0406843860    0.0206379170    0.0004208316    
0.0409070470    0.0202641310    0.0004213473    
0.0411297080    0.0198223960    0.0004126980    
0.0413523690    0.0198124440    0.0004136579    
0.0415750300    0.0197639710    0.0004166611    
0.0417976910    0.0199134990    0.0004074173    
0.0420203520    0.0197190990    0.0004069472    
0.0422430130    0.0198348420    0.0004096849    
0.0424656740    0.0197422860    0.0004034082    
0.0426883350    0.0196390370    0.0004043488    
0.0429109960    0.0201640570    0.0004109982    
0.0431336570    0.0200070140    0.0004036265    
0.0433563180    0.0192684870    0.0003995239    
0.0435789790    0.0197191740    0.0003978196    
0.0438016400    0.0194961910    0.0003977158    
0.0440243010    0.0199690700    0.0003984263    
0.0442469620    0.0193080560    0.0003941240    
0.0444696230    0.0196890100    0.0003965659    
0.0446922840    0.0196040060    0.0003945339    
0.0449149450    0.0197171540    0.0003903813    
0.0451376060    0.0195972440    0.0003939990    
0.0453602670    0.0196848990    0.0003907395    
0.0455829280    0.0200649980    0.0003940378    
0.0458055890    0.0199552320    0.0003952500    
0.0460282500    0.0191865110    0.0003828888    
0.0462509110    0.0196503880    0.0003850797    
0.0464735720    0.0197481310    0.0003862542    
0.0466962330    0.0196231410    0.0003867802    
0.0469188940    0.0182082060    0.0003715187    
0.0471415550    0.0195981040    0.0003874172    
0.0473642160    0.0196934390    0.0003829206    
0.0475868770    0.0197046650    0.0003811269    
0.0478095380    0.0198029610    0.0003804044    
0.0480321990    0.0200219420    0.0003833399    
0.0482548600    0.0201025020    0.0003824368    
0.0484775210    0.0200955340    0.0003861671    
0.0487001820    0.0198069140    0.0003777717    
0.0489228430    0.0193178030    0.0003728778    
0.0491455040    0.0199671730    0.0003764712    
0.0493681650    0.0201385280    0.0003813322    
0.0495908260    0.0195014590    0.0003689384    
0.0498134870    0.0200879110    0.0003780092    
0.0500361480    0.0196350460    0.0003727352    
0.0502588090    0.0200465070    0.0003709773    
0.0504814700    0.0194608110    0.0003702961    
0.0507041310    0.0193585350    0.0003649307    
0.0509267920    0.0195745300    0.0003684791    
0.0511494530    0.0194307060    0.0003646749    
0.0513721140    0.0199137560    0.0003724312    
0.0515947750    0.0200063420    0.0003683466    
0.0518174360    0.0193707230    0.0003602648    
0.0520400970    0.0196580830    0.0003604107    
0.0522627580    0.0194358250    0.0003614131    
0.0524854190    0.0198965990    0.0003686452    
0.0527080800    0.0193110890    0.0003659925    
0.0529307410    0.0197099600    0.0003714895    
0.0531534020    0.0193025750    0.0003662919    
0.0533760630    0.0201300530    0.0003752317    
0.0535987240    0.0198593730    0.0003709603    
0.0538213850    0.0195564110    0.0003723849    
0.0540440460    0.0198844820    0.0003737183    
0.0542667070    0.0195186110    0.0003728159    
0.0544893680    0.0194253590    0.0003721224    
0.0547120290    0.0198421450    0.0003735168    
0.0549346900    0.0195885220    0.0003713172    
0.0551573510    0.0200308090    0.0003799059    
0.0553800120    0.0195216820    0.0003718584    
0.0556026730    0.0196606200    0.0003809168    
0.0558253340    0.0202238860    0.0003895698    
0.0560479950    0.0191207840    0.0003787965    
0.0562706560    0.0191786420    0.0003830370    
0.0564933170    0.0194042030    0.0003886285    
0.0567159780    0.0202409430    0.0003921603    
0.0569386390    0.0195248960    0.0003912027    
0.0571613000    0.0196611880    0.0003841131    
0.0573839610    0.0195279340    0.0003796307    
0.0576066220    0.0201111520    0.0003863245    
0.0578292830    0.0195064680    0.0003792134    
0.0580519440    0.0196283190    0.0003818710    
0.0582746050    0.0191831260    0.0003758508    
0.0584972660    0.0193580880    0.0003761157    
0.0587199270    0.0187025790    0.0003665059    
0.0589425880    0.0192510710    0.0003696665    
0.0591652490    0.0194567570    0.0003738229    
0.0593879100    0.0200179510    0.0003763597    
0.0596105710    0.0198980690    0.0003748352    
0.0598332320    0.0199164840    0.0003782141    
0.0600558930    0.0196207840    0.0003730025    
0.0602785540    0.0198835920    0.0003750953    
0.0605012150    0.0190952700    0.0003668100    
0.0607238760    0.0195679150    0.0003686159    
0.0609465370    0.0191224870    0.0003672650    
0.0611691980    0.0192751380    0.0003693124    
0.0613918590    0.0190642380    0.0003632767    
0.0616145200    0.0195339720    0.0003704163    
0.0618371810    0.0190695150    0.0003623916    
0.0620598420    0.0192675770    0.0003646443    
0.0622825030    0.0195768450    0.0003731801    
0.0625051640    0.0191760390    0.0003641531    
0.0627278250    0.0194759210    0.0003662337    
0.0629504860    0.0195264090    0.0003637269    
0.0631731470    0.0193042800    0.0003661265    
0.0633958080    0.0195692660    0.0003707524    
0.0636184690    0.0191144160    0.0003715216    
0.0638411300    0.0189568470    0.0003685983    
0.0640637910    0.0204309720    0.0003853529    
0.0642864520    0.0195827810    0.0003764527    
0.0645091130    0.0197360260    0.0003812346    
0.0647317740    0.0188348720    0.0003728399    
0.0649544350    0.0196329730    0.0003802384    
0.0651770960    0.0194922020    0.0003768060    
0.0653997570    0.0197848820    0.0003788012    
0.0656224180    0.0193902690    0.0003758199    
0.0658450790    0.0197143190    0.0003735005    
0.0660677400    0.0196041550    0.0003740407    
0.0662904010    0.0197096220    0.0003795228    
0.0665130620    0.0192057420    0.0003730150    
0.0667357230    0.0194970160    0.0003825151    
0.0669583840    0.0194487690    0.0003807633    
0.0671810450    0.0193746740    0.0003779390    
0.0674037060    0.0197774760    0.0003883165    
0.0676263670    0.0201050120    0.0003886523    
0.0678490280    0.0192661350    0.0003781310    
0.0680716890    0.0194041580    0.0003803275    
0.0682943500    0.0196960620    0.0003789807    
0.0685170110    0.0197396440    0.0003755337    
0.0687396720    0.0200044240    0.0003770395    
0.0689623330    0.0202309090    0.0003779663    
0.0691849940    0.0187867590    0.0003667498    
0.0694076550    0.0195820320    0.0003742321    
0.0696303160    0.0187874890    0.0003636591    
0.0698529770    0.0194588560    0.0003693240    
0.0700756380    0.0198641550    0.0003683604    
0.0702982990    0.0193986840    0.0003679832    
0.0705209600    0.0198695120    0.0003697333    
0.0707436210    0.0198237740    0.0003676115    
0.0709662820    0.0194476200    0.0003684477    
0.0711889430    0.0194154830    0.0003636215    
0.0714116040    0.0191050750    0.0003614395    
0.0716342650    0.0198794450    0.0003671947    
0.0718569260    0.0192419510    0.0003598041    
0.0720795870    0.0195132420    0.0003637973    
0.0723022480    0.0193074340    0.0003624252    
0.0725249090    0.0193591310    0.0003585639    
0.0727475700    0.0192589210    0.0003606894    
0.0729702310    0.0197573310    0.0003624131    
0.0731928920    0.0196676340    0.0003630346    
0.0734155530    0.0198228270    0.0003637369    
0.0736382140    0.0198130060    0.0003613131    
0.0738608750    0.0199897380    0.0003652655    
0.0740835360    0.0198906090    0.0003634542    
0.0743061970    0.0195796990    0.0003555247    
0.0745288580    0.0200832590    0.0003637699    
0.0747515190    0.0198649890    0.0003625022    
0.0749741800    0.0192067370    0.0003531462    
0.0751968410    0.0197997320    0.0003613716    
0.0754195020    0.0196140360    0.0003575657    
0.0756421630    0.0191343690    0.0003502795    
0.0758648240    0.0199352260    0.0003583942    
0.0760874850    0.0191629550    0.0003512150    
0.0763101460    0.0193060910    0.0003521860    
0.0765328070    0.0195392860    0.0003579320    
0.0767554680    0.0194625880    0.0003548048    
0.0769781290    0.0195656410    0.0003536986    
0.0772007900    0.0192027240    0.0003475926    
0.0774234510    0.0196317930    0.0003534536    
0.0776461120    0.0197470060    0.0003541530    
0.0778687730    0.0199196150    0.0003545224    
0.0780914340    0.0193220760    0.0003516594    
0.0783140950    0.0194700530    0.0003474027    
0.0785367560    0.0195397350    0.0003536350    
0.0787594170    0.0190025860    0.0003456158    
0.0789820780    0.0197727190    0.0003507433    
0.0792047390    0.0189315350    0.0003443236    
0.0794274000    0.0198501830    0.0003540726    
0.0796500610    0.0196875390    0.0003491774    
0.0798727220    0.0198490200    0.0003502829    
0.0800953830    0.0196286140    0.0003475316    
0.0803180440    0.0193727090    0.0003476639    
0.0805407050    0.0196418460    0.0003497449    
0.0807633660    0.0196799910    0.0003497594    
0.0809860270    0.0190536360    0.0003428777    
0.0812086880    0.0194049190    0.0003430338    
0.0814313490    0.0196496380    0.0003467643    
0.0816540100    0.0196333690    0.0003458316    
0.0818766710    0.0196068590    0.0003463872    
0.0820993320    0.0200720140    0.0003498332    
0.0823219930    0.0197522670    0.0003484669    
0.0825446540    0.0203023770    0.0003507193    
0.0827673150    0.0191757210    0.0003385591    
0.0829899760    0.0192742820    0.0003388238    
0.0832126370    0.0195915620    0.0003431313    
0.0834352980    0.0191271320    0.0003382817    
0.0836579590    0.0194828360    0.0003406527    
0.0838806200    0.0194251530    0.0003412125    
0.0841032810    0.0190130660    0.0003354783    
0.0843259420    0.0190079190    0.0003343999    
0.0845486030    0.0197786190    0.0003411121    
0.0847712640    0.0194627340    0.0003363150    
0.0849939250    0.0197171950    0.0003390959    
0.0852165860    0.0196227090    0.0003387256    
0.0854392470    0.0202166040    0.0003405574    
0.0856619080    0.0192929430    0.0003351369    
0.0858845690    0.0193643440    0.0003327325    
0.0861072300    0.0184095700    0.0003266656    
0.0863298910    0.0198914880    0.0003413370    
0.0865525520    0.0202287250    0.0003412460    
0.0867752130    0.0200678490    0.0003371438    
0.0869978740    0.0188779580    0.0003278293    
0.0872205350    0.0198747980    0.0003359454    
0.0874431960    0.0194091900    0.0003319872    
0.0876658570    0.0196329110    0.0003351771    
0.0878885180    0.0195739720    0.0003352474    
0.0881111790    0.0201365720    0.0003395949    
0.0883338400    0.0199516040    0.0003330823    
0.0885565010    0.0191082560    0.0003303870    
0.0887791620    0.0193449400    0.0003281161    
0.0890018230    0.0194496920    0.0003321944    
0.0892244840    0.0189978080    0.0003288709    
0.0894471450    0.0191029730    0.0003283869    
0.0896698060    0.0191440170    0.0003274995    
0.0898924670    0.0194915450    0.0003319905    
0.0901151280    0.0196426630    0.0003296751    
0.0903377890    0.0196577590    0.0003325619    
0.0905604500    0.0196003860    0.0003305523    
0.0907831110    0.0199467380    0.0003326305    
0.0910057720    0.0191225960    0.0003271809    
0.0912284330    0.0191391250    0.0003226357    
0.0914510940    0.0194960670    0.0003292616    
0.0916737550    0.0193883570    0.0003275359    
0.0918964160    0.0193714200    0.0003287544    
0.0921190770    0.0195596330    0.0003273607    
0.0923417380    0.0191041140    0.0003236591    
0.0925643990    0.0194581660    0.0003258451    
0.0927870600    0.0197996320    0.0003300397    
0.0930097210    0.0197991090    0.0003272245    
0.0932323820    0.0189442860    0.0003224355    
