# Diamond Light Source Ltd.
# Data extracted from: /dls/b21/data/2018/cm19678-3/processed/b21-386631_00106.dat
q(1/A)          Column          Error           
0.0035000000    2.1094267000    0.0247756690    
0.0037226610    1.8946478000    0.0229861230    
0.0039453220    1.6116038000    0.0192857820    
0.0041679830    1.3057379000    0.0142561060    
0.0043906440    0.9724640400    0.0117677920    
0.0046133050    0.7753265300    0.0100870550    
0.0048359660    0.6007171800    0.0083985591    
0.0050586270    0.4650999100    0.0072636402    
0.0052812880    0.4372695700    0.0066590133    
0.0055039490    0.3914889400    0.0059910861    
0.0057266100    0.3166258000    0.0052123445    
0.0059492710    0.2805013100    0.0049059988    
0.0061719320    0.2203877800    0.0041904574    
0.0063945930    0.1958082800    0.0039977528    
0.0066172539    0.1830113900    0.0036291502    
0.0068399149    0.1650219800    0.0033918971    
0.0070625759    0.1500440600    0.0032011335    
0.0072852369    0.1289544500    0.0029232431    
0.0075078979    0.1155511100    0.0027535594    
0.0077305589    0.0975523230    0.0024818377    
0.0079532199    0.1014375100    0.0024957069    
0.0081758809    0.0928250600    0.0024096185    
0.0083985419    0.0811855800    0.0021018150    
0.0086212029    0.0749824040    0.0020199227    
0.0088438639    0.0702488380    0.0019394216    
0.0090665249    0.0647314880    0.0017980969    
0.0092891859    0.0656232380    0.0018896614    
0.0095118469    0.0592801340    0.0017271758    
0.0097345079    0.0586698480    0.0016688055    
0.0099571689    0.0519953430    0.0015386201    
0.0101798300    0.0497188490    0.0015045608    
0.0104024910    0.0502421460    0.0015073398    
0.0106251520    0.0464862300    0.0014548273    
0.0108478130    0.0458141550    0.0014065073    
0.0110704740    0.0438367140    0.0013098724    
0.0112931350    0.0431890730    0.0013039789    
0.0115157960    0.0421421100    0.0012805662    
0.0117384570    0.0396986430    0.0012321880    
0.0119611180    0.0378112220    0.0012059907    
0.0121837790    0.0375547950    0.0011816931    
0.0124064400    0.0337378570    0.0010733442    
0.0126291010    0.0349964010    0.0010794985    
0.0128517620    0.0324272860    0.0010417145    
0.0130744230    0.0332339090    0.0010467697    
0.0132970840    0.0325505500    0.0010308862    
0.0135197450    0.0340039570    0.0010385611    
0.0137424060    0.0310281210    0.0009782649    
0.0139650670    0.0310765000    0.0009572201    
0.0141877280    0.0293186660    0.0009318084    
0.0144103890    0.0284307350    0.0009017682    
0.0146330500    0.0302453630    0.0009241960    
0.0148557110    0.0292641680    0.0009052698    
0.0150783720    0.0280938850    0.0008796537    
0.0153010330    0.0272269480    0.0008537653    
0.0155236940    0.0282003710    0.0008637265    
0.0157463550    0.0287388570    0.0008568272    
0.0159690160    0.0265183280    0.0008199366    
0.0161916770    0.0248416760    0.0007891219    
0.0164143380    0.0245323930    0.0007901352    
0.0166369990    0.0273694590    0.0008088416    
0.0168596600    0.0260203890    0.0007817068    
0.0170823210    0.0271180770    0.0007911156    
0.0173049820    0.0242707160    0.0007497249    
0.0175276430    0.0246906970    0.0007641579    
0.0177503040    0.0246831650    0.0007445639    
0.0179729650    0.0247023820    0.0007374667    
0.0181956260    0.0242726520    0.0007170095    
0.0184182870    0.0226806160    0.0006898299    
0.0186409480    0.0237547920    0.0007104448    
0.0188636090    0.0230582920    0.0006955499    
0.0190862700    0.0235509640    0.0007018422    
0.0193089310    0.0234567540    0.0006993453    
0.0195315920    0.0229001640    0.0006674986    
0.0197542530    0.0233571990    0.0006751087    
0.0199769140    0.0225376560    0.0006631591    
0.0201995750    0.0229150280    0.0006582170    
0.0204222360    0.0222138550    0.0006536314    
0.0206448970    0.0221077830    0.0006474346    
0.0208675580    0.0222069720    0.0006355234    
0.0210902190    0.0224151040    0.0006446554    
0.0213128800    0.0224062670    0.0006357827    
0.0215355410    0.0234431760    0.0006425803    
0.0217582020    0.0212063070    0.0006111556    
0.0219808630    0.0229249220    0.0006346037    
0.0222035240    0.0210450810    0.0006025189    
0.0224261850    0.0224682430    0.0006170173    
0.0226488460    0.0216814150    0.0006015657    
0.0228715070    0.0211918390    0.0005932576    
0.0230941680    0.0209925520    0.0005904617    
0.0233168290    0.0217148240    0.0006020293    
0.0235394900    0.0204872390    0.0005783112    
0.0237621510    0.0209602050    0.0005692010    
0.0239848120    0.0213340900    0.0005749197    
0.0242074730    0.0214970420    0.0005724916    
0.0244301340    0.0211029840    0.0005678675    
0.0246527950    0.0221182170    0.0005867500    
0.0248754560    0.0217598800    0.0005688979    
0.0250981170    0.0210353390    0.0005605937    
0.0253207780    0.0211197150    0.0005449455    
0.0255434390    0.0206393550    0.0005444622    
0.0257661000    0.0213368760    0.0005553767    
0.0259887610    0.0205886330    0.0005397542    
0.0262114220    0.0210946360    0.0005492575    
0.0264340830    0.0204410300    0.0005333249    
0.0266567440    0.0202854040    0.0005280080    
0.0268794050    0.0210607320    0.0005358080    
0.0271020660    0.0215936670    0.0005403485    
0.0273247270    0.0207472540    0.0005264715    
0.0275473880    0.0204784810    0.0005220095    
0.0277700490    0.0204606360    0.0005186977    
0.0279927100    0.0199759420    0.0005080454    
0.0282153710    0.0211622210    0.0005254553    
0.0284380320    0.0209175810    0.0005193810    
0.0286606930    0.0203328680    0.0005076875    
0.0288833540    0.0202193210    0.0005072296    
0.0291060150    0.0210699940    0.0005172985    
0.0293286760    0.0222033890    0.0005236299    
0.0295513370    0.0211425500    0.0005054036    
0.0297739980    0.0210426110    0.0005097589    
0.0299966590    0.0195663820    0.0004831574    
0.0302193200    0.0197601080    0.0004926192    
0.0304419810    0.0212504160    0.0005117983    
0.0306646420    0.0201376370    0.0004841562    
0.0308873030    0.0201948460    0.0004827491    
0.0311099640    0.0203462560    0.0004858136    
0.0313326250    0.0212025580    0.0004904374    
0.0315552860    0.0203355660    0.0004865302    
0.0317779470    0.0198112980    0.0004806359    
0.0320006080    0.0198344950    0.0004699906    
0.0322232690    0.0200570540    0.0004745986    
0.0324459300    0.0200684630    0.0004711894    
0.0326685910    0.0199582440    0.0004691190    
0.0328912520    0.0197354550    0.0004680382    
0.0331139130    0.0206526450    0.0004725622    
0.0333365740    0.0198727910    0.0004650595    
0.0335592350    0.0203464590    0.0004660445    
0.0337818960    0.0201009130    0.0004628550    
0.0340045570    0.0209614120    0.0004719076    
0.0342272170    0.0193944890    0.0004521364    
0.0344498780    0.0205470950    0.0004672208    
0.0346725390    0.0200694110    0.0004532062    
0.0348952000    0.0205055900    0.0004560177    
0.0351178610    0.0205095100    0.0004581487    
0.0353405220    0.0195624790    0.0004454078    
0.0355631830    0.0194355350    0.0004422882    
0.0357858440    0.0192845720    0.0004405673    
0.0360085050    0.0198063210    0.0004478364    
0.0362311660    0.0198820010    0.0004433575    
0.0364538270    0.0204202460    0.0004457124    
0.0366764880    0.0209734890    0.0004513821    
0.0368991490    0.0202913420    0.0004417429    
0.0371218100    0.0190279880    0.0004265465    
0.0373444710    0.0199527740    0.0004415454    
0.0375671320    0.0205766930    0.0004477428    
0.0377897930    0.0206345170    0.0004367644    
0.0380124540    0.0201640910    0.0004344660    
0.0382351150    0.0197522100    0.0004300060    
0.0384577760    0.0200155970    0.0004286870    
0.0386804370    0.0198747940    0.0004304364    
0.0389030980    0.0194463730    0.0004225476    
0.0391257590    0.0199168780    0.0004247258    
0.0393484200    0.0198370200    0.0004224469    
0.0395710810    0.0195296780    0.0004197263    
0.0397937420    0.0201521160    0.0004263626    
0.0400164030    0.0204801090    0.0004315668    
0.0402390640    0.0198586390    0.0004193096    
0.0404617250    0.0198437580    0.0004166798    
0.0406843860    0.0195565550    0.0004096568    
0.0409070470    0.0198697610    0.0004172258    
0.0411297080    0.0197793100    0.0004122479    
0.0413523690    0.0206846130    0.0004226634    
0.0415750300    0.0197111420    0.0004161025    
0.0417976910    0.0199217080    0.0004075000    
0.0420203520    0.0195258160    0.0004049466    
0.0422430130    0.0191239160    0.0004022746    
0.0424656740    0.0197916190    0.0004039106    
0.0426883350    0.0193641830    0.0004015081    
0.0429109960    0.0197450690    0.0004067044    
0.0431336570    0.0195346040    0.0003988315    
0.0433563180    0.0196328570    0.0004032825    
0.0435789790    0.0208025130    0.0004085999    
0.0438016400    0.0196826710    0.0003996121    
0.0440243010    0.0198338030    0.0003970733    
0.0442469620    0.0199676210    0.0004007979    
0.0444696230    0.0197288220    0.0003969654    
0.0446922840    0.0191513010    0.0003899506    
0.0449149450    0.0191373440    0.0003845974    
0.0451376060    0.0200486290    0.0003985094    
0.0453602670    0.0193667770    0.0003875682    
0.0455829280    0.0196779660    0.0003902177    
0.0458055890    0.0205657360    0.0004012492    
0.0460282500    0.0197671010    0.0003886376    
0.0462509110    0.0201181270    0.0003896346    
0.0464735720    0.0200955220    0.0003896355    
0.0466962330    0.0193638160    0.0003842148    
0.0469188940    0.0196559440    0.0003860047    
0.0471415550    0.0196515890    0.0003879443    
0.0473642160    0.0193880490    0.0003799388    
0.0475868770    0.0195423620    0.0003795528    
0.0478095380    0.0203508840    0.0003856299    
0.0480321990    0.0205355720    0.0003882245    
0.0482548600    0.0202042320    0.0003834020    
0.0484775210    0.0185667310    0.0003711862    
0.0487001820    0.0198356090    0.0003780441    
0.0489228430    0.0192601020    0.0003723193    
0.0491455040    0.0201161080    0.0003778714    
0.0493681650    0.0194596580    0.0003748485    
0.0495908260    0.0198922000    0.0003726150    
0.0498134870    0.0200024240    0.0003772029    
0.0500361480    0.0197835100    0.0003741405    
0.0502588090    0.0197855020    0.0003685531    
0.0504814700    0.0202850540    0.0003780553    
0.0507041310    0.0196817410    0.0003679634    
0.0509267920    0.0197339420    0.0003699753    
0.0511494530    0.0198207000    0.0003683153    
0.0513721140    0.0197882560    0.0003712547    
0.0515947750    0.0199926510    0.0003682194    
0.0518174360    0.0190824860    0.0003575732    
0.0520400970    0.0193473950    0.0003575501    
0.0522627580    0.0195096280    0.0003620975    
0.0524854190    0.0193159020    0.0003632246    
0.0527080800    0.0200809080    0.0003732150    
0.0529307410    0.0200039070    0.0003742482    
0.0531534020    0.0198307150    0.0003712680    
0.0533760630    0.0191227290    0.0003657216    
0.0535987240    0.0192494730    0.0003652185    
0.0538213850    0.0196910110    0.0003736630    
0.0540440460    0.0197509040    0.0003724597    
0.0542667070    0.0192265290    0.0003700147    
0.0544893680    0.0193824650    0.0003717101    
0.0547120290    0.0199123310    0.0003741756    
0.0549346900    0.0189830790    0.0003655327    
0.0551573510    0.0204774100    0.0003841165    
0.0553800120    0.0201661380    0.0003779453    
0.0556026730    0.0199187970    0.0003834084    
0.0558253340    0.0190756190    0.0003783475    
0.0560479950    0.0191806960    0.0003793883    
0.0562706560    0.0193238700    0.0003844833    
0.0564933170    0.0193885130    0.0003884702    
0.0567159780    0.0198685170    0.0003885345    
0.0569386390    0.0192582750    0.0003885213    
0.0571613000    0.0193008600    0.0003805758    
0.0573839610    0.0196532730    0.0003808459    
0.0576066220    0.0192205000    0.0003776720    
0.0578292830    0.0194842280    0.0003789960    
0.0580519440    0.0196281950    0.0003818686    
0.0582746050    0.0193155550    0.0003771447    
0.0584972660    0.0200010390    0.0003823096    
0.0587199270    0.0194206810    0.0003734746    
0.0589425880    0.0197975280    0.0003748752    
0.0591652490    0.0196577350    0.0003757475    
0.0593879100    0.0195295840    0.0003717393    
0.0596105710    0.0192906950    0.0003690690    
0.0598332320    0.0204119330    0.0003828883    
0.0600558930    0.0193228390    0.0003701585    
0.0602785540    0.0191546410    0.0003681543    
0.0605012150    0.0193769960    0.0003695048    
0.0607238760    0.0199635900    0.0003723229    
0.0609465370    0.0194891530    0.0003707682    
0.0611691980    0.0203081110    0.0003790780    
0.0613918590    0.0199570990    0.0003716850    
0.0616145200    0.0190421660    0.0003657224    
0.0618371810    0.0191795820    0.0003634348    
0.0620598420    0.0199506490    0.0003710505    
0.0622825030    0.0195624940    0.0003730421    
0.0625051640    0.0197913720    0.0003699484    
0.0627278250    0.0195377780    0.0003668137    
0.0629504860    0.0192485000    0.0003611281    
0.0631731470    0.0197277380    0.0003701193    
0.0633958080    0.0189159010    0.0003645095    
0.0636184690    0.0193381490    0.0003736884    
0.0638411300    0.0196805940    0.0003755674    
0.0640637910    0.0192752020    0.0003742934    
0.0642864520    0.0193727900    0.0003744277    
0.0645091130    0.0194781560    0.0003787346    
0.0647317740    0.0201115600    0.0003852676    
0.0649544350    0.0193088250    0.0003770852    
0.0651770960    0.0192225690    0.0003741896    
0.0653997570    0.0193858700    0.0003749608    
0.0656224180    0.0196086680    0.0003779293    
0.0658450790    0.0198486410    0.0003747696    
0.0660677400    0.0192971610    0.0003710992    
0.0662904010    0.0193002530    0.0003755595    
0.0665130620    0.0192056210    0.0003730126    
0.0667357230    0.0192342320    0.0003799274    
0.0669583840    0.0194784630    0.0003810527    
0.0671810450    0.0194114130    0.0003782960    
0.0674037060    0.0193808890    0.0003844022    
0.0676263670    0.0199921890    0.0003875591    
0.0678490280    0.0194589700    0.0003800174    
0.0680716890    0.0193965810    0.0003802520    
0.0682943500    0.0199438680    0.0003813561    
0.0685170110    0.0199609900    0.0003776321    
0.0687396720    0.0196063430    0.0003732680    
0.0689623330    0.0199977550    0.0003757808    
0.0691849940    0.0194667960    0.0003733274    
0.0694076550    0.0199108950    0.0003773603    
0.0696303160    0.0188014480    0.0003637930    
0.0698529770    0.0196199550    0.0003708485    
0.0700756380    0.0203285250    0.0003726399    
0.0702982990    0.0197336200    0.0003711452    
0.0705209600    0.0191607480    0.0003630779    
0.0707436210    0.0193055610    0.0003627737    
0.0709662820    0.0190635730    0.0003647904    
0.0711889430    0.0192859690    0.0003624056    
0.0714116040    0.0191186300    0.0003615665    
0.0716342650    0.0195469800    0.0003641101    
0.0718569260    0.0198406130    0.0003653572    
0.0720795870    0.0194181630    0.0003629088    
0.0723022480    0.0200420510    0.0003692545    
0.0725249090    0.0197906840    0.0003625373    
0.0727475700    0.0202112680    0.0003694986    
0.0729702310    0.0198702180    0.0003634458    
0.0731928920    0.0195870970    0.0003622894    
0.0734155530    0.0196825410    0.0003624464    
0.0736382140    0.0187652420    0.0003516286    
0.0738608750    0.0192220640    0.0003581820    
0.0740835360    0.0197842220    0.0003624797    
0.0743061970    0.0189146570    0.0003494336    
0.0745288580    0.0197207390    0.0003604706    
0.0747515190    0.0196465680    0.0003605027    
0.0749741800    0.0197195700    0.0003578286    
0.0751968410    0.0190213400    0.0003541959    
0.0754195020    0.0190794020    0.0003526577    
0.0756421630    0.0197947120    0.0003562713    
0.0758648240    0.0192456830    0.0003521403    
0.0760874850    0.0198129670    0.0003571209    
0.0763101460    0.0200447990    0.0003588595    
0.0765328070    0.0198538870    0.0003608009    
0.0767554680    0.0193783800    0.0003540353    
0.0769781290    0.0193928800    0.0003521325    
0.0772007900    0.0194416910    0.0003497476    
0.0774234510    0.0196316690    0.0003534513    
0.0776461120    0.0196389050    0.0003531811    
0.0778687730    0.0193011460    0.0003489742    
0.0780914340    0.0193283530    0.0003517154    
0.0783140950    0.0194637310    0.0003473452    
0.0785367560    0.0197316150    0.0003553660    
0.0787594170    0.0191659000    0.0003470967    
0.0789820780    0.0197290410    0.0003503546    
0.0792047390    0.0192007010    0.0003467616    
0.0794274000    0.0193763830    0.0003498203    
0.0796500610    0.0194520820    0.0003470820    
0.0798727220    0.0199725250    0.0003513698    
0.0800953830    0.0191116260    0.0003429232    
0.0803180440    0.0198530010    0.0003519460    
0.0805407050    0.0198410030    0.0003515125    
0.0807633660    0.0200217470    0.0003527821    
0.0809860270    0.0194669170    0.0003465752    
0.0812086880    0.0193320280    0.0003423878    
0.0814313490    0.0196678720    0.0003469241    
0.0816540100    0.0193713050    0.0003435147    
0.0818766710    0.0188050860    0.0003392298    
0.0820993320    0.0192121860    0.0003422572    
0.0823219930    0.0196046000    0.0003471608    
0.0825446540    0.0190481250    0.0003397121    
0.0827673150    0.0193369900    0.0003399787    
0.0829899760    0.0192205540    0.0003383502    
0.0832126370    0.0198738910    0.0003455937    
0.0834352980    0.0196953760    0.0003432688    
0.0836579590    0.0193397640    0.0003393986    
0.0838806200    0.0192572110    0.0003397332    
0.0841032810    0.0193503490    0.0003384397    
0.0843259420    0.0195666780    0.0003392782    
0.0845486030    0.0198079090    0.0003413635    
0.0847712640    0.0193812500    0.0003356092    
0.0849939250    0.0193263440    0.0003357171    
0.0852165860    0.0194881030    0.0003375607    
0.0854392470    0.0198206360    0.0003372047    
0.0856619080    0.0193161070    0.0003353369    
0.0858845690    0.0197358400    0.0003359079    
0.0861072300    0.0195339610    0.0003364925    
0.0863298910    0.0199382190    0.0003417367    
0.0865525520    0.0189909340    0.0003306398    
0.0867752130    0.0194333480    0.0003317701    
0.0869978740    0.0194414410    0.0003326849    
0.0872205350    0.0199541710    0.0003366145    
0.0874431960    0.0194261030    0.0003321308    
0.0876658570    0.0199303400    0.0003377054    
0.0878885180    0.0198207460    0.0003373530    
0.0881111790    0.0195751890    0.0003348266    
0.0883338400    0.0188226730    0.0003235206    
0.0885565010    0.0198050540    0.0003363559    
0.0887791620    0.0191722940    0.0003266476    
0.0890018230    0.0195687170    0.0003332083    
0.0892244840    0.0199142680    0.0003367088    
0.0894471450    0.0192044630    0.0003292570    
0.0896698060    0.0193960100    0.0003296468    
0.0898924670    0.0197515330    0.0003341962    
0.0901151280    0.0192164890    0.0003260781    
0.0903377890    0.0192581810    0.0003291636    
0.0905604500    0.0196615820    0.0003310669    
0.0907831110    0.0200409090    0.0003334137    
0.0910057720    0.0196206890    0.0003314135    
0.0912284330    0.0190030350    0.0003214856    
0.0914510940    0.0184950110    0.0003206959    
0.0916737550    0.0194048340    0.0003276740    
0.0918964160    0.0195721520    0.0003304523    
0.0921190770    0.0185787940    0.0003190462    
0.0923417380    0.0197016780    0.0003286810    
0.0925643990    0.0192288680    0.0003239185    
0.0927870600    0.0193979050    0.0003266733    
0.0930097210    0.0193284800    0.0003233110    
0.0932323820    0.0192624630    0.0003251309    
