# Diamond Light Source Ltd.
# Data extracted from: /dls/b21/data/2018/cm19678-3/processed/b21-386631_00109.dat
q(1/A)          Column          Error           
0.0035000000    2.1022126000    0.0247370490    
0.0037226610    1.8653790000    0.0228113730    
0.0039453220    1.6458022000    0.0194923110    
0.0041679830    1.3137663000    0.0143020520    
0.0043906440    0.9719067800    0.0117662190    
0.0046133050    0.8085132900    0.0103022490    
0.0048359660    0.6138209700    0.0084909644    
0.0050586270    0.4620648800    0.0072410089    
0.0052812880    0.4222889500    0.0065449527    
0.0055039490    0.3970196600    0.0060341794    
0.0057266100    0.3223875900    0.0052603607    
0.0059492710    0.2806729300    0.0049082497    
0.0061719320    0.2209333900    0.0041962828    
0.0063945930    0.2011751400    0.0040527888    
0.0066172539    0.1854429900    0.0036537388    
0.0068399149    0.1710002700    0.0034533180    
0.0070625759    0.1541205800    0.0032448237    
0.0072852369    0.1278007300    0.0029105819    
0.0075078979    0.1132235200    0.0027261021    
0.0077305589    0.0997295970    0.0025097647    
0.0079532199    0.1007314800    0.0024873866    
0.0081758809    0.0919149040    0.0023981428    
0.0083985419    0.0817002840    0.0021087894    
0.0086212029    0.0800673790    0.0020876096    
0.0088438639    0.0699489640    0.0019355736    
0.0090665249    0.0669995940    0.0018296069    
0.0092891859    0.0630850690    0.0018530403    
0.0095118469    0.0584425170    0.0017151922    
0.0097345079    0.0576431860    0.0016543928    
0.0099571689    0.0529221250    0.0015525093    
0.0101798300    0.0522389750    0.0015424565    
0.0104024910    0.0476338070    0.0014679157    
0.0106251520    0.0470014310    0.0014630906    
0.0108478130    0.0448779130    0.0013922745    
0.0110704740    0.0437326650    0.0013085170    
0.0112931350    0.0416269930    0.0012803761    
0.0115157960    0.0423106950    0.0012833213    
0.0117384570    0.0392517000    0.0012254195    
0.0119611180    0.0373610630    0.0011989736    
0.0121837790    0.0351858430    0.0011439904    
0.0124064400    0.0361050830    0.0011105314    
0.0126291010    0.0356066550    0.0010890362    
0.0128517620    0.0329058530    0.0010495337    
0.0130744230    0.0318918830    0.0010255738    
0.0132970840    0.0320379690    0.0010228936    
0.0135197450    0.0325230550    0.0010158496    
0.0137424060    0.0322100050    0.0009968746    
0.0139650670    0.0294638690    0.0009321956    
0.0141877280    0.0307792020    0.0009548817    
0.0144103890    0.0294980410    0.0009186791    
0.0146330500    0.0292941490    0.0009096860    
0.0148557110    0.0270041010    0.0008697435    
0.0150783720    0.0275238960    0.0008708176    
0.0153010330    0.0274762950    0.0008577969    
0.0155236940    0.0272828090    0.0008496885    
0.0157463550    0.0276999540    0.0008413262    
0.0159690160    0.0277183530    0.0008384117    
0.0161916770    0.0266295950    0.0008171510    
0.0164143380    0.0269073340    0.0008276242    
0.0166369990    0.0255127890    0.0007810444    
0.0168596600    0.0263102420    0.0007861689    
0.0170823210    0.0253256410    0.0007646402    
0.0173049820    0.0246487980    0.0007556574    
0.0175276430    0.0244853320    0.0007610897    
0.0177503040    0.0243537160    0.0007396914    
0.0179729650    0.0239171040    0.0007257611    
0.0181956260    0.0229876800    0.0006978792    
0.0184182870    0.0240727320    0.0007107939    
0.0186409480    0.0232307050    0.0007026715    
0.0188636090    0.0246813870    0.0007197239    
0.0190862700    0.0238301520    0.0007060980    
0.0193089310    0.0231510750    0.0006948798    
0.0195315920    0.0225568450    0.0006625774    
0.0197542530    0.0222907920    0.0006596179    
0.0199769140    0.0222712810    0.0006593293    
0.0201995750    0.0226383480    0.0006543312    
0.0204222360    0.0225861830    0.0006591872    
0.0206448970    0.0225318000    0.0006537138    
0.0208675580    0.0214860400    0.0006252179    
0.0210902190    0.0227928770    0.0006501644    
0.0213128800    0.0218536940    0.0006279901    
0.0215355410    0.0217413430    0.0006189118    
0.0217582020    0.0221289600    0.0006244047    
0.0219808630    0.0224047620    0.0006274588    
0.0222035240    0.0218452630    0.0006139605    
0.0224261850    0.0235768350    0.0006321526    
0.0226488460    0.0229903310    0.0006195527    
0.0228715070    0.0218462320    0.0006024398    
0.0230941680    0.0219126930    0.0006033556    
0.0233168290    0.0220386880    0.0006065949    
0.0235394900    0.0223713950    0.0006044116    
0.0237621510    0.0203945180    0.0005615534    
0.0239848120    0.0205967150    0.0005649831    
0.0242074730    0.0203140550    0.0005566017    
0.0244301340    0.0207884400    0.0005637057    
0.0246527950    0.0208638110    0.0005699559    
0.0248754560    0.0221236070    0.0005737206    
0.0250981170    0.0207727720    0.0005571691    
0.0253207780    0.0206198210    0.0005385399    
0.0255434390    0.0209904800    0.0005491579    
0.0257661000    0.0207939100    0.0005483486    
0.0259887610    0.0218688430    0.0005563673    
0.0262114220    0.0203142670    0.0005390847    
0.0264340830    0.0207535040    0.0005374680    
0.0266567440    0.0204290850    0.0005299556    
0.0268794050    0.0209989950    0.0005351039    
0.0271020660    0.0202882950    0.0005238415    
0.0273247270    0.0203126020    0.0005210072    
0.0275473880    0.0214164740    0.0005339123    
0.0277700490    0.0211640310    0.0005276189    
0.0279927100    0.0199432760    0.0005077075    
0.0282153710    0.0206597050    0.0005192585    
0.0284380320    0.0197242680    0.0005044256    
0.0286606930    0.0200601210    0.0005043480    
0.0288833540    0.0206455440    0.0005126263    
0.0291060150    0.0200346850    0.0005045064    
0.0293286760    0.0199619850    0.0004965729    
0.0295513370    0.0207864620    0.0005012061    
0.0297739980    0.0201102390    0.0004984138    
0.0299966590    0.0205390500    0.0004950966    
0.0302193200    0.0203803890    0.0005003677    
0.0304419810    0.0197896460    0.0004939699    
0.0306646420    0.0195266740    0.0004768280    
0.0308873030    0.0201317610    0.0004820683    
0.0311099640    0.0200275810    0.0004820678    
0.0313326250    0.0198926970    0.0004751193    
0.0315552860    0.0194335660    0.0004756903    
0.0317779470    0.0208204730    0.0004928009    
0.0320006080    0.0209545730    0.0004831527    
0.0322232690    0.0200631880    0.0004747437    
0.0324459300    0.0206279240    0.0004777851    
0.0326685910    0.0195782970    0.0004647033    
0.0328912520    0.0198969360    0.0004700209    
0.0331139130    0.0204967180    0.0004708469    
0.0333365740    0.0203687640    0.0004708990    
0.0335592350    0.0197653790    0.0004594116    
0.0337818960    0.0199258190    0.0004609051    
0.0340045570    0.0200113580    0.0004611598    
0.0342272170    0.0201806550    0.0004612796    
0.0344498780    0.0195544040    0.0004558644    
0.0346725390    0.0193077440    0.0004445910    
0.0348952000    0.0195582930    0.0004454279    
0.0351178610    0.0197479770    0.0004496313    
0.0353405220    0.0197713490    0.0004478477    
0.0355631830    0.0203375390    0.0004525043    
0.0357858440    0.0194515600    0.0004425383    
0.0360085050    0.0187285720    0.0004355482    
0.0362311660    0.0206001360    0.0004513625    
0.0364538270    0.0198620630    0.0004396457    
0.0366764880    0.0201247710    0.0004422226    
0.0368991490    0.0207400530    0.0004466687    
0.0371218100    0.0202102690    0.0004396654    
0.0373444710    0.0199295540    0.0004413559    
0.0375671320    0.0197351070    0.0004385579    
0.0377897930    0.0193554000    0.0004230752    
0.0380124540    0.0194866790    0.0004271710    
0.0382351150    0.0188124770    0.0004197165    
0.0384577760    0.0200217180    0.0004288181    
0.0386804370    0.0197223480    0.0004288480    
0.0389030980    0.0208391470    0.0004374845    
0.0391257590    0.0200679300    0.0004263985    
0.0393484200    0.0206890060    0.0004314894    
0.0395710810    0.0201582650    0.0004264927    
0.0397937420    0.0201131620    0.0004260154    
0.0400164030    0.0197131300    0.0004234734    
0.0402390640    0.0192801960    0.0004132209    
0.0404617250    0.0198673320    0.0004169909    
0.0406843860    0.0198458020    0.0004127383    
0.0409070470    0.0197180930    0.0004156939    
0.0411297080    0.0199314710    0.0004138939    
0.0413523690    0.0193345810    0.0004087001    
0.0415750300    0.0196995970    0.0004160443    
0.0417976910    0.0193608170    0.0004017840    
0.0420203520    0.0205818830    0.0004158168    
0.0422430130    0.0195614540    0.0004069126    
0.0424656740    0.0193276730    0.0003992094    
0.0426883350    0.0195533140    0.0004035258    
0.0429109960    0.0192734610    0.0004018794    
0.0431336570    0.0190192790    0.0003935959    
0.0433563180    0.0205835150    0.0004129940    
0.0435789790    0.0199257830    0.0003999581    
0.0438016400    0.0197617320    0.0004004751    
0.0440243010    0.0190287800    0.0003889910    
0.0442469620    0.0197403520    0.0003985714    
0.0444696230    0.0201902750    0.0004016425    
0.0446922840    0.0194589710    0.0003931306    
0.0449149450    0.0192437060    0.0003857236    
0.0451376060    0.0196902730    0.0003949922    
0.0453602670    0.0196364850    0.0003903172    
0.0455829280    0.0196530220    0.0003900300    
0.0458055890    0.0195696580    0.0003914715    
0.0460282500    0.0200330180    0.0003913027    
0.0462509110    0.0190750390    0.0003794572    
0.0464735720    0.0198220580    0.0003870344    
0.0466962330    0.0199721820    0.0003902634    
0.0469188940    0.0197984440    0.0003874607    
0.0471415550    0.0198108150    0.0003895723    
0.0473642160    0.0192301270    0.0003784461    
0.0475868770    0.0192238850    0.0003765049    
0.0478095380    0.0194945810    0.0003774873    
0.0480321990    0.0193965600    0.0003773621    
0.0482548600    0.0192715770    0.0003745055    
0.0484775210    0.0199753610    0.0003850683    
0.0487001820    0.0198849190    0.0003785715    
0.0489228430    0.0198995520    0.0003785073    
0.0491455040    0.0193554270    0.0003707147    
0.0493681650    0.0190611290    0.0003710470    
0.0495908260    0.0194165350    0.0003681894    
0.0498134870    0.0189768070    0.0003674613    
0.0500361480    0.0190251570    0.0003669557    
0.0502588090    0.0193177100    0.0003642258    
0.0504814700    0.0195089270    0.0003708091    
0.0507041310    0.0201763420    0.0003726151    
0.0509267920    0.0197954850    0.0003706084    
0.0511494530    0.0202443830    0.0003722879    
0.0513721140    0.0198639810    0.0003720212    
0.0515947750    0.0191372180    0.0003603108    
0.0518174360    0.0200802720    0.0003668586    
0.0520400970    0.0200737740    0.0003642559    
0.0522627580    0.0199256700    0.0003659939    
0.0524854190    0.0196839230    0.0003667246    
0.0527080800    0.0190254540    0.0003633300    
0.0529307410    0.0193096390    0.0003677526    
0.0531534020    0.0193083560    0.0003664016    
0.0533760630    0.0197932500    0.0003721351    
0.0535987240    0.0196504480    0.0003690591    
0.0538213850    0.0193140160    0.0003701253    
0.0540440460    0.0197920740    0.0003729047    
0.0542667070    0.0196811650    0.0003744211    
0.0544893680    0.0197449280    0.0003752270    
0.0547120290    0.0191939870    0.0003674205    
0.0549346900    0.0200168340    0.0003754110    
0.0551573510    0.0196764340    0.0003765868    
0.0553800120    0.0195417000    0.0003721047    
0.0556026730    0.0196665080    0.0003810308    
0.0558253340    0.0197645420    0.0003851779    
0.0560479950    0.0198696520    0.0003862009    
0.0562706560    0.0187864640    0.0003791572    
0.0564933170    0.0194333720    0.0003889787    
0.0567159780    0.0191753730    0.0003817554    
0.0569386390    0.0191387170    0.0003873726    
0.0571613000    0.0190215150    0.0003778695    
0.0573839610    0.0196223710    0.0003806046    
0.0576066220    0.0197979730    0.0003833621    
0.0578292830    0.0192689590    0.0003769542    
0.0580519440    0.0202956070    0.0003883660    
0.0582746050    0.0189752520    0.0003738648    
0.0584972660    0.0197513100    0.0003799734    
0.0587199270    0.0193906980    0.0003732433    
0.0589425880    0.0199668960    0.0003765329    
0.0591652490    0.0196709320    0.0003759311    
0.0593879100    0.0195709480    0.0003721896    
0.0596105710    0.0195084900    0.0003712033    
0.0598332320    0.0197284700    0.0003764811    
0.0600558930    0.0197330570    0.0003741242    
0.0602785540    0.0196701240    0.0003731323    
0.0605012150    0.0197494360    0.0003730960    
0.0607238760    0.0195182070    0.0003682025    
0.0609465370    0.0196009500    0.0003718870    
0.0611691980    0.0194083170    0.0003706416    
0.0613918590    0.0198247130    0.0003705069    
0.0616145200    0.0193430890    0.0003686572    
0.0618371810    0.0191578920    0.0003632848    
0.0620598420    0.0192457350    0.0003644921    
0.0622825030    0.0198246460    0.0003755908    
0.0625051640    0.0197628380    0.0003697381    
0.0627278250    0.0192199770    0.0003638738    
0.0629504860    0.0193153830    0.0003618103    
0.0631731470    0.0201505350    0.0003741216    
0.0633958080    0.0196875470    0.0003719269    
0.0636184690    0.0193585100    0.0003739423    
0.0638411300    0.0199733810    0.0003784086    
0.0640637910    0.0192810970    0.0003744079    
0.0642864520    0.0191905020    0.0003727190    
0.0645091130    0.0201028900    0.0003848192    
0.0647317740    0.0197707260    0.0003820475    
0.0649544350    0.0193957610    0.0003779909    
0.0651770960    0.0188422760    0.0003705263    
0.0653997570    0.0194933650    0.0003760564    
0.0656224180    0.0188641780    0.0003707421    
0.0658450790    0.0194512470    0.0003710557    
0.0660677400    0.0201097360    0.0003788898    
0.0662904010    0.0196935950    0.0003794252    
0.0665130620    0.0194651350    0.0003755817    
0.0667357230    0.0199607750    0.0003870956    
0.0669583840    0.0191041270    0.0003774311    
0.0671810450    0.0196238390    0.0003804184    
0.0674037060    0.0198901720    0.0003894796    
0.0676263670    0.0191415550    0.0003792824    
0.0678490280    0.0195614290    0.0003810748    
0.0680716890    0.0198424620    0.0003846566    
0.0682943500    0.0196217230    0.0003783215    
0.0685170110    0.0189951820    0.0003684393    
0.0687396720    0.0196549910    0.0003737879    
0.0689623330    0.0200533160    0.0003763600    
0.0691849940    0.0201889230    0.0003802468    
0.0694076550    0.0200242960    0.0003784912    
0.0696303160    0.0191099730    0.0003668218    
0.0698529770    0.0188827070    0.0003638698    
0.0700756380    0.0204440690    0.0003737546    
0.0702982990    0.0201167120    0.0003747877    
0.0705209600    0.0201782750    0.0003726508    
0.0707436210    0.0191887220    0.0003617296    
0.0709662820    0.0190414720    0.0003646347    
0.0711889430    0.0198163990    0.0003674116    
0.0714116040    0.0190423980    0.0003609001    
0.0716342650    0.0194104830    0.0003628920    
0.0718569260    0.0194025030    0.0003613562    
0.0720795870    0.0189559700    0.0003586186    
0.0723022480    0.0197827760    0.0003669144    
0.0725249090    0.0202816900    0.0003670631    
0.0727475700    0.0198187760    0.0003659492    
0.0729702310    0.0191647650    0.0003569904    
0.0731928920    0.0198478050    0.0003647483    
0.0734155530    0.0189007510    0.0003552296    
0.0736382140    0.0198123480    0.0003613612    
0.0738608750    0.0193881750    0.0003597813    
0.0740835360    0.0200095010    0.0003645934    
0.0743061970    0.0197986600    0.0003575606    
0.0745288580    0.0194038130    0.0003576170    
0.0747515190    0.0193151080    0.0003575033    
0.0749741800    0.0197191060    0.0003578791    
0.0751968410    0.0201619260    0.0003647164    
0.0754195020    0.0185766450    0.0003480335    
0.0756421630    0.0194351550    0.0003530748    
0.0758648240    0.0198187390    0.0003573991    
0.0760874850    0.0193940570    0.0003533794    
0.0763101460    0.0198774110    0.0003574126    
0.0765328070    0.0200895160    0.0003629911    
0.0767554680    0.0196560490    0.0003566172    
0.0769781290    0.0198081500    0.0003559371    
0.0772007900    0.0197245610    0.0003523367    
0.0774234510    0.0195549210    0.0003528137    
0.0776461120    0.0197465670    0.0003542021    
0.0778687730    0.0198561540    0.0003540102    
0.0780914340    0.0192638410    0.0003511816    
0.0783140950    0.0195998950    0.0003486113    
0.0785367560    0.0198720940    0.0003566833    
0.0787594170    0.0194044130    0.0003493032    
0.0789820780    0.0197786400    0.0003508484    
0.0792047390    0.0193694460    0.0003483353    
0.0794274000    0.0194960260    0.0003509523    
0.0796500610    0.0204925710    0.0003562983    
0.0798727220    0.0202445200    0.0003538084    
0.0800953830    0.0199976380    0.0003508358    
0.0803180440    0.0194097160    0.0003480479    
0.0805407050    0.0197847770    0.0003510677    
0.0807633660    0.0196050520    0.0003491452    
0.0809860270    0.0193000530    0.0003451394    
0.0812086880    0.0192408870    0.0003416320    
0.0814313490    0.0192576380    0.0003433394    
0.0816540100    0.0197428370    0.0003468463    
0.0818766710    0.0193189070    0.0003438856    
0.0820993320    0.0195535080    0.0003453369    
0.0823219930    0.0196105960    0.0003472670    
0.0825446540    0.0195933280    0.0003445921    
0.0827673150    0.0195820740    0.0003421788    
0.0829899760    0.0192264330    0.0003384537    
0.0832126370    0.0194832110    0.0003422323    
0.0834352980    0.0192764910    0.0003396508    
0.0836579590    0.0194112170    0.0003400770    
0.0838806200    0.0200664790    0.0003468513    
0.0841032810    0.0196760090    0.0003413279    
0.0843259420    0.0193019640    0.0003370269    
0.0845486030    0.0200846660    0.0003437926    
0.0847712640    0.0189395580    0.0003318137    
0.0849939250    0.0191864170    0.0003345507    
0.0852165860    0.0192308670    0.0003353768    
0.0854392470    0.0194192610    0.0003338240    
0.0856619080    0.0197529460    0.0003391595    
0.0858845690    0.0195817450    0.0003346451    
0.0861072300    0.0192732180    0.0003342902    
0.0863298910    0.0194755910    0.0003378004    
0.0865525520    0.0198374580    0.0003379803    
0.0867752130    0.0196432590    0.0003336081    
0.0869978740    0.0192252930    0.0003308809    
0.0872205350    0.0193468100    0.0003315027    
0.0874431960    0.0191650730    0.0003299423    
0.0876658570    0.0187057910    0.0003272164    
0.0878885180    0.0196142950    0.0003356428    
0.0881111790    0.0196499220    0.0003355164    
0.0883338400    0.0200243270    0.0003337388    
0.0885565010    0.0200396790    0.0003383942    
0.0887791620    0.0193451660    0.0003281671    
0.0890018230    0.0198528000    0.0003356695    
0.0892244840    0.0190319720    0.0003292157    
0.0894471450    0.0196112580    0.0003327768    
0.0896698060    0.0196597370    0.0003319311    
0.0898924670    0.0195256640    0.0003323307    
0.0901151280    0.0195489190    0.0003289367    
0.0903377890    0.0191683970    0.0003284456    
0.0905604500    0.0197735450    0.0003320589    
0.0907831110    0.0192092010    0.0003264719    
0.0910057720    0.0194587010    0.0003300931    
0.0912284330    0.0193842360    0.0003247437    
0.0914510940    0.0195797800    0.0003300171    
0.0916737550    0.0194439780    0.0003280545    
0.0918964160    0.0191930490    0.0003272863    
0.0921190770    0.0191434900    0.0003239081    
0.0923417380    0.0195650920    0.0003275898    
0.0925643990    0.0199716080    0.0003301656    
0.0927870600    0.0196019480    0.0003284371    
0.0930097210    0.0193776700    0.0003237716    
0.0932323820    0.0195428320    0.0003275386    
