# Diamond Light Source Ltd.
# Data extracted from: /dls/b21/data/2018/cm19678-3/processed/b21-386631_00114.dat
q(1/A)          Column          Error           
0.0035000000    2.1115993000    0.0247943470    
0.0037226610    1.9122935000    0.0230984320    
0.0039453220    1.6756405000    0.0196699060    
0.0041679830    1.2960841000    0.0142067010    
0.0043906440    0.9541226900    0.0116590740    
0.0046133050    0.7665063100    0.0100319110    
0.0048359660    0.5919586400    0.0083391000    
0.0050586270    0.4540863300    0.0071788381    
0.0052812880    0.4385945500    0.0066706877    
0.0055039490    0.3879152000    0.0059651031    
0.0057266100    0.3210694800    0.0052500473    
0.0059492710    0.2747977300    0.0048570246    
0.0061719320    0.2241600100    0.0042271775    
0.0063945930    0.2002298300    0.0040436032    
0.0066172539    0.1847548800    0.0036472672    
0.0068399149    0.1634965600    0.0033769904    
0.0070625759    0.1491591800    0.0031924427    
0.0072852369    0.1262978600    0.0028936666    
0.0075078979    0.1151467900    0.0027493945    
0.0077305589    0.0973462570    0.0024798073    
0.0079532199    0.1028375000    0.0025134704    
0.0081758809    0.0918055510    0.0023969219    
0.0083985419    0.0817143350    0.0021091521    
0.0086212029    0.0794278710    0.0020794346    
0.0088438639    0.0743000750    0.0019950373    
0.0090665249    0.0611645090    0.0017482711    
0.0092891859    0.0645113580    0.0018740320    
0.0095118469    0.0583518740    0.0017140090    
0.0097345079    0.0552785900    0.0016202442    
0.0099571689    0.0529312270    0.0015527763    
0.0101798300    0.0506536450    0.0015190019    
0.0104024910    0.0474610230    0.0014653769    
0.0106251520    0.0462351330    0.0014512395    
0.0108478130    0.0436328080    0.0013729429    
0.0110704740    0.0413906690    0.0012731071    
0.0112931350    0.0413584290    0.0012763488    
0.0115157960    0.0389699080    0.0012317210    
0.0117384570    0.0375748520    0.0011990617    
0.0119611180    0.0402537520    0.0012446307    
0.0121837790    0.0347082850    0.0011362982    
0.0124064400    0.0340956190    0.0010792780    
0.0126291010    0.0337471890    0.0010603100    
0.0128517620    0.0373309620    0.0011179741    
0.0130744230    0.0336786070    0.0010540015    
0.0132970840    0.0340686530    0.0010549037    
0.0135197450    0.0310688270    0.0009929640    
0.0137424060    0.0313515270    0.0009835849    
0.0139650670    0.0330087480    0.0009867656    
0.0141877280    0.0331251840    0.0009906891    
0.0144103890    0.0292741860    0.0009152653    
0.0146330500    0.0279995120    0.0008894338    
0.0148557110    0.0270087450    0.0008698931    
0.0150783720    0.0279419730    0.0008774817    
0.0153010330    0.0275078050    0.0008583625    
0.0155236940    0.0265728920    0.0008386330    
0.0157463550    0.0268868670    0.0008289576    
0.0159690160    0.0259729870    0.0008116558    
0.0161916770    0.0262579860    0.0008114991    
0.0164143380    0.0270138040    0.0008293313    
0.0166369990    0.0265694320    0.0007971228    
0.0168596600    0.0261503000    0.0007838430    
0.0170823210    0.0246834700    0.0007549486    
0.0173049820    0.0255798430    0.0007698628    
0.0175276430    0.0235194260    0.0007459909    
0.0177503040    0.0239309670    0.0007333063    
0.0179729650    0.0247802670    0.0007388048    
0.0181956260    0.0239452040    0.0007123269    
0.0184182870    0.0261759890    0.0007412588    
0.0186409480    0.0239574630    0.0007136395    
0.0188636090    0.0246856320    0.0007198477    
0.0190862700    0.0237924000    0.0007055991    
0.0193089310    0.0234053820    0.0006987459    
0.0195315920    0.0230862980    0.0006703660    
0.0197542530    0.0227241200    0.0006660557    
0.0199769140    0.0234464580    0.0006765591    
0.0201995750    0.0242122540    0.0006767531    
0.0204222360    0.0231096010    0.0006668389    
0.0206448970    0.0232565130    0.0006642008    
0.0208675580    0.0225269200    0.0006402381    
0.0210902190    0.0234089160    0.0006589487    
0.0213128800    0.0221462380    0.0006322338    
0.0215355410    0.0217450820    0.0006190183    
0.0217582020    0.0218860630    0.0006210218    
0.0219808630    0.0216001480    0.0006161420    
0.0222035240    0.0214175620    0.0006079728    
0.0224261850    0.0220721200    0.0006117001    
0.0226488460    0.0213411010    0.0005969685    
0.0228715070    0.0216173650    0.0005993274    
0.0230941680    0.0215841420    0.0005988668    
0.0233168290    0.0214747180    0.0005988347    
0.0235394900    0.0207093490    0.0005815765    
0.0237621510    0.0218517130    0.0005813189    
0.0239848120    0.0224448250    0.0005898369    
0.0242074730    0.0211869930    0.0005684840    
0.0244301340    0.0211436450    0.0005685501    
0.0246527950    0.0208829720    0.0005702666    
0.0248754560    0.0222464560    0.0005753608    
0.0250981170    0.0217329530    0.0005699497    
0.0253207780    0.0203138760    0.0005345757    
0.0255434390    0.0213245920    0.0005535588    
0.0257661000    0.0203057510    0.0005419204    
0.0259887610    0.0214762070    0.0005513975    
0.0262114220    0.0210904080    0.0005493337    
0.0264340830    0.0214949170    0.0005470312    
0.0266567440    0.0209276010    0.0005364288    
0.0268794050    0.0209753300    0.0005348483    
0.0271020660    0.0204676460    0.0005261971    
0.0273247270    0.0205566810    0.0005241732    
0.0275473880    0.0206480200    0.0005242911    
0.0277700490    0.0204309460    0.0005184451    
0.0279927100    0.0201147600    0.0005099294    
0.0282153710    0.0199322770    0.0005100789    
0.0284380320    0.0199082930    0.0005068169    
0.0286606930    0.0207991510    0.0005135984    
0.0288833540    0.0203180980    0.0005085886    
0.0291060150    0.0202668470    0.0005074647    
0.0293286760    0.0211391280    0.0005110484    
0.0295513370    0.0209592580    0.0005033283    
0.0297739980    0.0209167630    0.0005083537    
0.0299966590    0.0194921780    0.0004823555    
0.0302193200    0.0196466830    0.0004913206    
0.0304419810    0.0195340750    0.0004908121    
0.0306646420    0.0201123230    0.0004839673    
0.0308873030    0.0197773150    0.0004778468    
0.0311099640    0.0205184550    0.0004879817    
0.0313326250    0.0202933600    0.0004799215    
0.0315552860    0.0206014930    0.0004898180    
0.0317779470    0.0203924060    0.0004877505    
0.0320006080    0.0206350580    0.0004794962    
0.0322232690    0.0200329320    0.0004744264    
0.0324459300    0.0203436940    0.0004745228    
0.0326685910    0.0207731120    0.0004787143    
0.0328912520    0.0197670960    0.0004685251    
0.0331139130    0.0206516960    0.0004726643    
0.0333365740    0.0212868960    0.0004814365    
0.0335592350    0.0199823800    0.0004619663    
0.0337818960    0.0207822910    0.0004707469    
0.0340045570    0.0197065530    0.0004576735    
0.0342272170    0.0201735800    0.0004612384    
0.0344498780    0.0206738360    0.0004687716    
0.0346725390    0.0191574770    0.0004428957    
0.0348952000    0.0196529710    0.0004465431    
0.0351178610    0.0198230470    0.0004505238    
0.0353405220    0.0199776710    0.0004502171    
0.0355631830    0.0202101290    0.0004511234    
0.0357858440    0.0196965810    0.0004453551    
0.0360085050    0.0195017320    0.0004444857    
0.0362311660    0.0201684600    0.0004466467    
0.0364538270    0.0196416150    0.0004372367    
0.0366764880    0.0202642990    0.0004437911    
0.0368991490    0.0199065630    0.0004376390    
0.0371218100    0.0196206300    0.0004332416    
0.0373444710    0.0204804300    0.0004474526    
0.0375671320    0.0206742530    0.0004489102    
0.0377897930    0.0196547060    0.0004263704    
0.0380124540    0.0197054420    0.0004295990    
0.0382351150    0.0199395980    0.0004321441    
0.0384577760    0.0200894630    0.0004295799    
0.0386804370    0.0194366150    0.0004257668    
0.0389030980    0.0198598440    0.0004271181    
0.0391257590    0.0196636100    0.0004221175    
0.0393484200    0.0196214830    0.0004202460    
0.0395710810    0.0193585120    0.0004179827    
0.0397937420    0.0199631970    0.0004244608    
0.0400164030    0.0197347180    0.0004237416    
0.0402390640    0.0196289670    0.0004169775    
0.0404617250    0.0205622850    0.0004242578    
0.0406843860    0.0192139030    0.0004061492    
0.0409070470    0.0197916050    0.0004165039    
0.0411297080    0.0196512200    0.0004110091    
0.0413523690    0.0205648870    0.0004215391    
0.0415750300    0.0206081620    0.0004255669    
0.0417976910    0.0204566120    0.0004130332    
0.0420203520    0.0197956150    0.0004078321    
0.0422430130    0.0198103310    0.0004095282    
0.0424656740    0.0189268940    0.0003950827    
0.0426883350    0.0200147760    0.0004082948    
0.0429109960    0.0196036430    0.0004053421    
0.0431336570    0.0191936310    0.0003954299    
0.0433563180    0.0199157390    0.0004062745    
0.0435789790    0.0197284720    0.0003980072    
0.0438016400    0.0200086440    0.0004030038    
0.0440243010    0.0198591870    0.0003974223    
0.0442469620    0.0199208210    0.0004004236    
0.0444696230    0.0200419150    0.0004001985    
0.0446922840    0.0196609120    0.0003951992    
0.0449149450    0.0199661690    0.0003929313    
0.0451376060    0.0202008610    0.0004001151    
0.0453602670    0.0192285970    0.0003862753    
0.0455829280    0.0192538290    0.0003860817    
0.0458055890    0.0199098150    0.0003948930    
0.0460282500    0.0194096070    0.0003851992    
0.0462509110    0.0199918440    0.0003885026    
0.0464735720    0.0195155760    0.0003840637    
0.0466962330    0.0200518890    0.0003910749    
0.0469188940    0.0196729210    0.0003862637    
0.0471415550    0.0197452630    0.0003889607    
0.0473642160    0.0196431320    0.0003825213    
0.0475868770    0.0199057110    0.0003831565    
0.0478095380    0.0192055010    0.0003747103    
0.0480321990    0.0199212400    0.0003824648    
0.0482548600    0.0200027950    0.0003815771    
0.0484775210    0.0199565230    0.0003849198    
0.0487001820    0.0190809840    0.0003708718    
0.0489228430    0.0194421250    0.0003741639    
0.0491455040    0.0198274560    0.0003752401    
0.0493681650    0.0193244760    0.0003736335    
0.0495908260    0.0191964170    0.0003661279    
0.0498134870    0.0193786020    0.0003713630    
0.0500361480    0.0198000430    0.0003743863    
0.0502588090    0.0201658550    0.0003721676    
0.0504814700    0.0192796580    0.0003686554    
0.0507041310    0.0198012680    0.0003691672    
0.0509267920    0.0201805720    0.0003742280    
0.0511494530    0.0200903740    0.0003709010    
0.0513721140    0.0194074720    0.0003677531    
0.0515947750    0.0195340390    0.0003640585    
0.0518174360    0.0194602990    0.0003611819    
0.0520400970    0.0197466820    0.0003613071    
0.0522627580    0.0199828870    0.0003665505    
0.0524854190    0.0194071350    0.0003641684    
0.0527080800    0.0197990350    0.0003706749    
0.0529307410    0.0197332640    0.0003717967    
0.0531534020    0.0194368510    0.0003676504    
0.0533760630    0.0198666320    0.0003728564    
0.0535987240    0.0198479400    0.0003709409    
0.0538213850    0.0193244320    0.0003702569    
0.0540440460    0.0193738490    0.0003689755    
0.0542667070    0.0197130480    0.0003747565    
0.0544893680    0.0193988590    0.0003719561    
0.0547120290    0.0192817030    0.0003682908    
0.0549346900    0.0202385770    0.0003775171    
0.0551573510    0.0188796490    0.0003689149    
0.0553800120    0.0195379740    0.0003721013    
0.0556026730    0.0195074510    0.0003795195    
0.0558253340    0.0197304020    0.0003848782    
0.0560479950    0.0192799550    0.0003804596    
0.0562706560    0.0191723770    0.0003830647    
0.0564933170    0.0200129630    0.0003947706    
0.0567159780    0.0193307020    0.0003833314    
0.0569386390    0.0198791450    0.0003948287    
0.0571613000    0.0190097710    0.0003777853    
0.0573839610    0.0195076080    0.0003795226    
0.0576066220    0.0203730710    0.0003889237    
0.0578292830    0.0202015910    0.0003860020    
0.0580519440    0.0199571870    0.0003851476    
0.0582746050    0.0198773430    0.0003826814    
0.0584972660    0.0195792390    0.0003783472    
0.0587199270    0.0199113990    0.0003782540    
0.0589425880    0.0199561270    0.0003764637    
0.0591652490    0.0202419810    0.0003813815    
0.0593879100    0.0192769820    0.0003694156    
0.0596105710    0.0200134170    0.0003760087    
0.0598332320    0.0198468330    0.0003776412    
0.0600558930    0.0200202240    0.0003768690    
0.0602785540    0.0199637610    0.0003759394    
0.0605012150    0.0194144540    0.0003699502    
0.0607238760    0.0200356550    0.0003730834    
0.0609465370    0.0191809020    0.0003679123    
0.0611691980    0.0195532430    0.0003720548    
0.0613918590    0.0193364020    0.0003659468    
0.0616145200    0.0193464160    0.0003687206    
0.0618371810    0.0194987990    0.0003665343    
0.0620598420    0.0197530560    0.0003692966    
0.0622825030    0.0189028410    0.0003667862    
0.0625051640    0.0195725180    0.0003679851    
0.0627278250    0.0192646220    0.0003643275    
0.0629504860    0.0195695090    0.0003642139    
0.0631731470    0.0192925400    0.0003661015    
0.0633958080    0.0194801090    0.0003699941    
0.0636184690    0.0196002500    0.0003763022    
0.0638411300    0.0196254650    0.0003751307    
0.0640637910    0.0194807480    0.0003763737    
0.0642864520    0.0203232760    0.0003835946    
0.0645091130    0.0197674350    0.0003816278    
0.0647317740    0.0198553500    0.0003828971    
0.0649544350    0.0194433030    0.0003784865    
0.0651770960    0.0194430930    0.0003764198    
0.0653997570    0.0191629440    0.0003728877    
0.0656224180    0.0189548730    0.0003716642    
0.0658450790    0.0200209560    0.0003764828    
0.0660677400    0.0202631340    0.0003803649    
0.0662904010    0.0196969820    0.0003794905    
0.0665130620    0.0194322430    0.0003752965    
0.0667357230    0.0200543060    0.0003880348    
0.0669583840    0.0193460690    0.0003798462    
0.0671810450    0.0198632420    0.0003827648    
0.0674037060    0.0197105230    0.0003877501    
0.0676263670    0.0198363770    0.0003861381    
0.0678490280    0.0200474160    0.0003858127    
0.0680716890    0.0190702370    0.0003771297    
0.0682943500    0.0200190590    0.0003821656    
0.0685170110    0.0196917710    0.0003751664    
0.0687396720    0.0202840260    0.0003797548    
0.0689623330    0.0193785510    0.0003700057    
0.0691849940    0.0193471650    0.0003722674    
0.0694076550    0.0202352440    0.0003805123    
0.0696303160    0.0197470810    0.0003729185    
0.0698529770    0.0197064730    0.0003717541    
0.0700756380    0.0194839790    0.0003649043    
0.0702982990    0.0196452780    0.0003704020    
0.0705209600    0.0194658850    0.0003660450    
0.0707436210    0.0196285150    0.0003658828    
0.0709662820    0.0199456540    0.0003732237    
0.0711889430    0.0196631020    0.0003660192    
0.0714116040    0.0196203270    0.0003663673    
0.0716342650    0.0196377490    0.0003650417    
0.0718569260    0.0189952410    0.0003575743    
0.0720795870    0.0197599420    0.0003661761    
0.0723022480    0.0198202110    0.0003672929    
0.0725249090    0.0192420170    0.0003575620    
0.0727475700    0.0192274520    0.0003604795    
0.0729702310    0.0199196190    0.0003639843    
0.0731928920    0.0200054150    0.0003662252    
0.0734155530    0.0188171940    0.0003544740    
0.0736382140    0.0192949830    0.0003566424    
0.0738608750    0.0197921610    0.0003635416    
0.0740835360    0.0197205880    0.0003619828    
0.0743061970    0.0192982940    0.0003530438    
0.0745288580    0.0198026760    0.0003613050    
0.0747515190    0.0192125390    0.0003565835    
0.0749741800    0.0189039750    0.0003504343    
0.0751968410    0.0198090680    0.0003615419    
0.0754195020    0.0201710930    0.0003626933    
0.0756421630    0.0193486820    0.0003523187    
0.0758648240    0.0200606580    0.0003596047    
0.0760874850    0.0193201120    0.0003527354    
0.0763101460    0.0199386800    0.0003579938    
0.0765328070    0.0196600180    0.0003591208    
0.0767554680    0.0188246470    0.0003490238    
0.0769781290    0.0194917060    0.0003531129    
0.0772007900    0.0193880340    0.0003493481    
0.0774234510    0.0196537830    0.0003537348    
0.0776461120    0.0199660170    0.0003561954    
0.0778687730    0.0195249990    0.0003510759    
0.0780914340    0.0199138750    0.0003570883    
0.0783140950    0.0194358220    0.0003471790    
0.0785367560    0.0194208850    0.0003526410    
0.0787594170    0.0199108680    0.0003538627    
0.0789820780    0.0193774380    0.0003473016    
0.0792047390    0.0191848140    0.0003467009    
0.0794274000    0.0191518530    0.0003478707    
0.0796500610    0.0188355900    0.0003416193    
0.0798727220    0.0192770380    0.0003452804    
0.0800953830    0.0192869730    0.0003445751    
0.0803180440    0.0196877080    0.0003505616    
0.0805407050    0.0196074940    0.0003495214    
0.0807633660    0.0196457380    0.0003495373    
0.0809860270    0.0197663570    0.0003493140    
0.0812086880    0.0196264110    0.0003450672    
0.0814313490    0.0196711480    0.0003470359    
0.0816540100    0.0198925010    0.0003481884    
0.0818766710    0.0196834500    0.0003471449    
0.0820993320    0.0199106760    0.0003485065    
0.0823219930    0.0196508710    0.0003476533    
0.0825446540    0.0198088480    0.0003465119    
0.0827673150    0.0195734820    0.0003421331    
0.0829899760    0.0196349530    0.0003420599    
0.0832126370    0.0200457260    0.0003471674    
0.0834352980    0.0192917780    0.0003398146    
0.0836579590    0.0186935110    0.0003337595    
0.0838806200    0.0195122650    0.0003420573    
0.0841032810    0.0195609500    0.0003403577    
0.0843259420    0.0198938600    0.0003421848    
0.0845486030    0.0198997760    0.0003422359    
0.0847712640    0.0193032990    0.0003350136    
0.0849939250    0.0194230970    0.0003366368    
0.0852165860    0.0193102220    0.0003360969    
0.0854392470    0.0194627780    0.0003342265    
0.0856619080    0.0189584010    0.0003322968    
0.0858845690    0.0195393530    0.0003343114    
0.0861072300    0.0195954880    0.0003371025    
0.0863298910    0.0193851790    0.0003370444    
0.0865525520    0.0196277750    0.0003362182    
0.0867752130    0.0198109730    0.0003350581    
0.0869978740    0.0199462550    0.0003370570    
0.0872205350    0.0193785440    0.0003318030    
0.0874431960    0.0197308080    0.0003348054    
0.0876658570    0.0196421680    0.0003353352    
0.0878885180    0.0195602230    0.0003352087    
0.0881111790    0.0196762210    0.0003357697    
0.0883338400    0.0192989820    0.0003276667    
0.0885565010    0.0190086780    0.0003296027    
0.0887791620    0.0191480490    0.0003265190    
0.0890018230    0.0197824210    0.0003351028    
0.0892244840    0.0193883820    0.0003323126    
0.0894471450    0.0192249350    0.0003295111    
0.0896698060    0.0197079600    0.0003323665    
0.0898924670    0.0193083870    0.0003305049    
0.0901151280    0.0195467450    0.0003289467    
0.0903377890    0.0192279820    0.0003289840    
0.0905604500    0.0195371240    0.0003300962    
0.0907831110    0.0198784500    0.0003321389    
0.0910057720    0.0200389080    0.0003350070    
0.0912284330    0.0197575820    0.0003278843    
0.0914510940    0.0199558950    0.0003332004    
0.0916737550    0.0199234020    0.0003321028    
0.0918964160    0.0195982510    0.0003307515    
0.0921190770    0.0192564120    0.0003248900    
0.0923417380    0.0190856920    0.0003235793    
0.0925643990    0.0201551940    0.0003317081    
0.0927870600    0.0192200380    0.0003252499    
0.0930097210    0.0192240930    0.0003225138    
0.0932323820    0.0191563680    0.0003243118    
