# Diamond Light Source Ltd.
# Data extracted from: /dls/b21/data/2018/cm19678-3/processed/b21-386631_00117.dat
q(1/A)          Column          Error           
0.0035000000    2.1345553000    0.0249336040    
0.0037226610    1.8658671000    0.0228207550    
0.0039453220    1.6391028000    0.0194580530    
0.0041679830    1.3112318000    0.0142922570    
0.0043906440    0.9982490900    0.0119279510    
0.0046133050    0.7850616500    0.0101545840    
0.0048359660    0.6069965000    0.0084459990    
0.0050586270    0.4664114200    0.0072770265    
0.0052812880    0.4422159600    0.0066994729    
0.0055039490    0.3916448200    0.0059948756    
0.0057266100    0.3168144100    0.0052161564    
0.0059492710    0.2687211700    0.0048039569    
0.0061719320    0.2232902300    0.0042197887    
0.0063945930    0.2084768500    0.0041268387    
0.0066172539    0.1878519500    0.0036784250    
0.0068399149    0.1646766000    0.0033898141    
0.0070625759    0.1486019900    0.0031870940    
0.0072852369    0.1250204900    0.0028795560    
0.0075078979    0.1142721400    0.0027394649    
0.0077305589    0.1032612900    0.0025545329    
0.0079532199    0.0990672120    0.0024674447    
0.0081758809    0.0900257140    0.0023740351    
0.0083985419    0.0818005740    0.0021106751    
0.0086212029    0.0769535480    0.0020471873    
0.0088438639    0.0723461500    0.0019690128    
0.0090665249    0.0632878940    0.0017787044    
0.0092891859    0.0630659950    0.0018532797    
0.0095118469    0.0589789620    0.0017235293    
0.0097345079    0.0538748270    0.0015998504    
0.0099571689    0.0570075010    0.0016117710    
0.0101798300    0.0502176480    0.0015127445    
0.0104024910    0.0484752370    0.0014812392    
0.0106251520    0.0491239960    0.0014961816    
0.0108478130    0.0455513500    0.0014030752    
0.0110704740    0.0430128940    0.0012980681    
0.0112931350    0.0414139180    0.0012774531    
0.0115157960    0.0403481770    0.0012535569    
0.0117384570    0.0377808570    0.0012025779    
0.0119611180    0.0382289870    0.0012131602    
0.0121837790    0.0357638080    0.0011536712    
0.0124064400    0.0384835640    0.0011468486    
0.0126291010    0.0342268910    0.0010680270    
0.0128517620    0.0337281600    0.0010628645    
0.0130744230    0.0337247030    0.0010549277    
0.0132970840    0.0320559400    0.0010234674    
0.0135197450    0.0317158610    0.0010034454    
0.0137424060    0.0313328490    0.0009834830    
0.0139650670    0.0306017730    0.0009502923    
0.0141877280    0.0308261080    0.0009558770    
0.0144103890    0.0292855700    0.0009156213    
0.0146330500    0.0322218540    0.0009543289    
0.0148557110    0.0273836160    0.0008760795    
0.0150783720    0.0284766100    0.0008860090    
0.0153010330    0.0285635090    0.0008748487    
0.0155236940    0.0263714070    0.0008356100    
0.0157463550    0.0280990090    0.0008476024    
0.0159690160    0.0253741090    0.0008023998    
0.0161916770    0.0260423960    0.0008083180    
0.0164143380    0.0257507800    0.0008098690    
0.0166369990    0.0249768450    0.0007730139    
0.0168596600    0.0256668760    0.0007767150    
0.0170823210    0.0249240610    0.0007587664    
0.0173049820    0.0231791580    0.0007329893    
0.0175276430    0.0249961500    0.0007692033    
0.0177503040    0.0250192720    0.0007499410    
0.0179729650    0.0236440590    0.0007218088    
0.0181956260    0.0237425290    0.0007094438    
0.0184182870    0.0238762420    0.0007080856    
0.0186409480    0.0245196960    0.0007221051    
0.0188636090    0.0238762580    0.0007080860    
0.0190862700    0.0232364410    0.0006974420    
0.0193089310    0.0243953040    0.0007135082    
0.0195315920    0.0239326260    0.0006826756    
0.0197542530    0.0232212080    0.0006734322    
0.0199769140    0.0224204840    0.0006617197    
0.0201995750    0.0234458200    0.0006660852    
0.0204222360    0.0227528480    0.0006618004    
0.0206448970    0.0220889950    0.0006474399    
0.0208675580    0.0226995100    0.0006428109    
0.0210902190    0.0227685500    0.0006499996    
0.0213128800    0.0231840490    0.0006470037    
0.0215355410    0.0217711670    0.0006195099    
0.0217582020    0.0219474600    0.0006220132    
0.0219808630    0.0210810810    0.0006088121    
0.0222035240    0.0223927330    0.0006217805    
0.0224261850    0.0226742710    0.0006201084    
0.0226488460    0.0210487040    0.0005929801    
0.0228715070    0.0231217900    0.0006199518    
0.0230941680    0.0205785680    0.0005848639    
0.0233168290    0.0213160150    0.0005967339    
0.0235394900    0.0210114980    0.0005859176    
0.0237621510    0.0213187340    0.0005742973    
0.0239848120    0.0228412190    0.0005951383    
0.0242074730    0.0215461980    0.0005733942    
0.0244301340    0.0220695190    0.0005809780    
0.0246527950    0.0206418330    0.0005670748    
0.0248754560    0.0213321540    0.0005635230    
0.0250981170    0.0210834810    0.0005614780    
0.0253207780    0.0210395110    0.0005441455    
0.0255434390    0.0202978660    0.0005401732    
0.0257661000    0.0209791950    0.0005509406    
0.0259887610    0.0212437960    0.0005485125    
0.0262114220    0.0204115450    0.0005405254    
0.0264340830    0.0201662850    0.0005299582    
0.0266567440    0.0220086620    0.0005502165    
0.0268794050    0.0210926340    0.0005364461    
0.0271020660    0.0209357320    0.0005322835    
0.0273247270    0.0210059200    0.0005299728    
0.0275473880    0.0203497380    0.0005205916    
0.0277700490    0.0206757880    0.0005216437    
0.0279927100    0.0204200240    0.0005138841    
0.0282153710    0.0205015350    0.0005174121    
0.0284380320    0.0207808280    0.0005179048    
0.0286606930    0.0203251200    0.0005078107    
0.0288833540    0.0209118360    0.0005160664    
0.0291060150    0.0220289060    0.0005291681    
0.0293286760    0.0202698140    0.0005005274    
0.0295513370    0.0207134780    0.0005004657    
0.0297739980    0.0212956870    0.0005130374    
0.0299966590    0.0207296880    0.0004975284    
0.0302193200    0.0207359870    0.0005048556    
0.0304419810    0.0201091690    0.0004980814    
0.0306646420    0.0202832490    0.0004861140    
0.0308873030    0.0197619070    0.0004777535    
0.0311099640    0.0198530560    0.0004800974    
0.0313326250    0.0201422940    0.0004782248    
0.0315552860    0.0202716440    0.0004859755    
0.0317779470    0.0203419830    0.0004872419    
0.0320006080    0.0204424480    0.0004773460    
0.0322232690    0.0204790780    0.0004797735    
0.0324459300    0.0212374210    0.0004849282    
0.0326685910    0.0201300540    0.0004713381    
0.0328912520    0.0206635380    0.0004791243    
0.0331139130    0.0194584540    0.0004588952    
0.0333365740    0.0199118050    0.0004657175    
0.0335592350    0.0195093610    0.0004565545    
0.0337818960    0.0190729530    0.0004510599    
0.0340045570    0.0199056160    0.0004600687    
0.0342272170    0.0212469370    0.0004734418    
0.0344498780    0.0194271400    0.0004545060    
0.0346725390    0.0199331630    0.0004518609    
0.0348952000    0.0195794140    0.0004457933    
0.0351178610    0.0202609690    0.0004555616    
0.0353405220    0.0206553430    0.0004578785    
0.0355631830    0.0196941540    0.0004454141    
0.0357858440    0.0200366740    0.0004492709    
0.0360085050    0.0204822480    0.0004556113    
0.0362311660    0.0200971420    0.0004459430    
0.0364538270    0.0197855710    0.0004389214    
0.0366764880    0.0200582770    0.0004416152    
0.0368991490    0.0202319330    0.0004412869    
0.0371218100    0.0199919240    0.0004374066    
0.0373444710    0.0201656650    0.0004440872    
0.0375671320    0.0199704550    0.0004412889    
0.0377897930    0.0201805100    0.0004321199    
0.0380124540    0.0202752660    0.0004358509    
0.0382351150    0.0194414070    0.0004267943    
0.0384577760    0.0201248440    0.0004300416    
0.0386804370    0.0203771960    0.0004360317    
0.0389030980    0.0207038060    0.0004361839    
0.0391257590    0.0204055300    0.0004300908    
0.0393484200    0.0198992390    0.0004232923    
0.0395710810    0.0199528900    0.0004244335    
0.0397937420    0.0202959850    0.0004280672    
0.0400164030    0.0202976190    0.0004298260    
0.0402390640    0.0198935780    0.0004198602    
0.0404617250    0.0204126550    0.0004227936    
0.0406843860    0.0190925460    0.0004049432    
0.0409070470    0.0197729960    0.0004163890    
0.0411297080    0.0196072640    0.0004106290    
0.0413523690    0.0199332230    0.0004150954    
0.0415750300    0.0205018860    0.0004245507    
0.0417976910    0.0201809170    0.0004103203    
0.0420203520    0.0194334720    0.0004041629    
0.0422430130    0.0204193510    0.0004158563    
0.0424656740    0.0206585500    0.0004128409    
0.0426883350    0.0195726140    0.0004038381    
0.0429109960    0.0196531890    0.0004059329    
0.0431336570    0.0187854520    0.0003912787    
0.0433563180    0.0194840560    0.0004019254    
0.0435789790    0.0191818930    0.0003925313    
0.0438016400    0.0204467980    0.0004074717    
0.0440243010    0.0194770510    0.0003936566    
0.0442469620    0.0193327240    0.0003945454    
0.0444696230    0.0189305070    0.0003890195    
0.0446922840    0.0204711950    0.0004033390    
0.0449149450    0.0194711040    0.0003881048    
0.0451376060    0.0195031160    0.0003932208    
0.0453602670    0.0196319750    0.0003903818    
0.0455829280    0.0196485570    0.0003900950    
0.0458055890    0.0196119770    0.0003920044    
0.0460282500    0.0198377710    0.0003895004    
0.0462509110    0.0196899570    0.0003856331    
0.0464735720    0.0192055930    0.0003810753    
0.0466962330    0.0203725230    0.0003942659    
0.0469188940    0.0196350500    0.0003859667    
0.0471415550    0.0196226350    0.0003878264    
0.0473642160    0.0197849060    0.0003839739    
0.0475868770    0.0197658910    0.0003818827    
0.0478095380    0.0188326600    0.0003711274    
0.0480321990    0.0194588600    0.0003780736    
0.0482548600    0.0200324200    0.0003819338    
0.0484775210    0.0199345750    0.0003847829    
0.0487001820    0.0197734810    0.0003776151    
0.0489228430    0.0199179180    0.0003787882    
0.0491455040    0.0197214990    0.0003743089    
0.0493681650    0.0194476210    0.0003748950    
0.0495908260    0.0195391990    0.0003694541    
0.0498134870    0.0193505410    0.0003711662    
0.0500361480    0.0199281340    0.0003756683    
0.0502588090    0.0199950470    0.0003706602    
0.0504814700    0.0196115460    0.0003718873    
0.0507041310    0.0204768410    0.0003754849    
0.0509267920    0.0197163380    0.0003699705    
0.0511494530    0.0197008810    0.0003673594    
0.0513721140    0.0197078130    0.0003706598    
0.0515947750    0.0200914360    0.0003692879    
0.0518174360    0.0190252630    0.0003571914    
0.0520400970    0.0198800170    0.0003625954    
0.0522627580    0.0195399940    0.0003625362    
0.0524854190    0.0194625350    0.0003647587    
0.0527080800    0.0188903350    0.0003621391    
0.0529307410    0.0189840970    0.0003647417    
0.0531534020    0.0196670290    0.0003698928    
0.0533760630    0.0195243340    0.0003697022    
0.0535987240    0.0189887500    0.0003628939    
0.0538213850    0.0197009860    0.0003739196    
0.0540440460    0.0193532630    0.0003688511    
0.0542667070    0.0196066800    0.0003738167    
0.0544893680    0.0195134230    0.0003731254    
0.0547120290    0.0195566180    0.0003709791    
0.0549346900    0.0200914640    0.0003762156    
0.0551573510    0.0196009330    0.0003759690    
0.0553800120    0.0200276540    0.0003768086    
0.0556026730    0.0195298100    0.0003798108    
0.0558253340    0.0202112480    0.0003896155    
0.0560479950    0.0200009690    0.0003875836    
0.0562706560    0.0192487430    0.0003839014    
0.0564933170    0.0198649420    0.0003933845    
0.0567159780    0.0195587490    0.0003856609    
0.0569386390    0.0189690200    0.0003857596    
0.0571613000    0.0198959190    0.0003865654    
0.0573839610    0.0196629240    0.0003811045    
0.0576066220    0.0196679560    0.0003822084    
0.0578292830    0.0192650110    0.0003770212    
0.0580519440    0.0196377750    0.0003821273    
0.0582746050    0.0196050010    0.0003801247    
0.0584972660    0.0196965630    0.0003795529    
0.0587199270    0.0204798400    0.0003836899    
0.0589425880    0.0196939130    0.0003740550    
0.0591652490    0.0199048080    0.0003782653    
0.0593879100    0.0189870320    0.0003666981    
0.0596105710    0.0196325070    0.0003724857    
0.0598332320    0.0193873010    0.0003733162    
0.0600558930    0.0195950870    0.0003729185    
0.0602785540    0.0195182700    0.0003717934    
0.0605012150    0.0194854750    0.0003706983    
0.0607238760    0.0190913130    0.0003642558    
0.0609465370    0.0196472440    0.0003724303    
0.0611691980    0.0199999390    0.0003763538    
0.0613918590    0.0191707130    0.0003644464    
0.0616145200    0.0196632650    0.0003718000    
0.0618371810    0.0200509050    0.0003717596    
0.0620598420    0.0199748520    0.0003714364    
0.0622825030    0.0196435320    0.0003739760    
0.0625051640    0.0195178390    0.0003675422    
0.0627278250    0.0196167510    0.0003677136    
0.0629504860    0.0196178060    0.0003647340    
0.0631731470    0.0195502420    0.0003686101    
0.0633958080    0.0194314430    0.0003696035    
0.0636184690    0.0191597750    0.0003721222    
0.0638411300    0.0193748620    0.0003728004    
0.0640637910    0.0199393410    0.0003808520    
0.0642864520    0.0205050120    0.0003853808    
0.0645091130    0.0190380700    0.0003745939    
0.0647317740    0.0191096190    0.0003757109    
0.0649544350    0.0188612200    0.0003728504    
0.0651770960    0.0194798150    0.0003768483    
0.0653997570    0.0200995180    0.0003819655    
0.0656224180    0.0195673450    0.0003776945    
0.0658450790    0.0192071950    0.0003688239    
0.0660677400    0.0191567510    0.0003699069    
0.0662904010    0.0194193850    0.0003768801    
0.0665130620    0.0192512750    0.0003736175    
0.0667357230    0.0197541500    0.0003851949    
0.0669583840    0.0194878890    0.0003813100    
0.0671810450    0.0192806670    0.0003771832    
0.0674037060    0.0197181880    0.0003879009    
0.0676263670    0.0199493640    0.0003873115    
0.0678490280    0.0200997800    0.0003863914    
0.0680716890    0.0202341010    0.0003885430    
0.0682943500    0.0194283740    0.0003765585    
0.0685170110    0.0196565260    0.0003749034    
0.0687396720    0.0194739790    0.0003721671    
0.0689623330    0.0208561220    0.0003839273    
0.0691849940    0.0197129760    0.0003758434    
0.0694076550    0.0199925800    0.0003782974    
0.0696303160    0.0187754770    0.0003636992    
0.0698529770    0.0193773830    0.0003687086    
0.0700756380    0.0191770660    0.0003620893    
0.0702982990    0.0188983800    0.0003633632    
0.0705209600    0.0200587610    0.0003716498    
0.0707436210    0.0196839080    0.0003664700    
0.0709662820    0.0191848970    0.0003661080    
0.0711889430    0.0201478630    0.0003705756    
0.0714116040    0.0191762670    0.0003622680    
0.0716342650    0.0194485250    0.0003633493    
0.0718569260    0.0196894700    0.0003641207    
0.0720795870    0.0198694510    0.0003672607    
0.0723022480    0.0200458080    0.0003694491    
0.0725249090    0.0194688480    0.0003597332    
0.0727475700    0.0197217180    0.0003651544    
0.0729702310    0.0196412630    0.0003615024    
0.0731928920    0.0193022710    0.0003598015    
0.0734155530    0.0191985970    0.0003581180    
0.0736382140    0.0198036780    0.0003613834    
0.0738608750    0.0201138230    0.0003665551    
0.0740835360    0.0196817290    0.0003616963    
0.0743061970    0.0201134380    0.0003604929    
0.0745288580    0.0194015080    0.0003576961    
0.0747515190    0.0193325630    0.0003577651    
0.0749741800    0.0193142480    0.0003542855    
0.0751968410    0.0192556700    0.0003565254    
0.0754195020    0.0193177610    0.0003550075    
0.0756421630    0.0191636720    0.0003506984    
0.0758648240    0.0194622790    0.0003542697    
0.0760874850    0.0197399480    0.0003566167    
0.0763101460    0.0195220410    0.0003543026    
0.0765328070    0.0197267250    0.0003597995    
0.0767554680    0.0193822320    0.0003542239    
0.0769781290    0.0190385220    0.0003490517    
0.0772007900    0.0190870070    0.0003466928    
0.0774234510    0.0192410660    0.0003500691    
0.0776461120    0.0195605750    0.0003526289    
0.0778687730    0.0195641670    0.0003514962    
0.0780914340    0.0197038270    0.0003552691    
0.0783140950    0.0189904870    0.0003432452    
0.0785367560    0.0193643810    0.0003521961    
0.0787594170    0.0193146360    0.0003485919    
0.0789820780    0.0197150100    0.0003503818    
0.0792047390    0.0196999730    0.0003513933    
0.0794274000    0.0193931820    0.0003501236    
0.0796500610    0.0201507620    0.0003534134    
0.0798727220    0.0189071340    0.0003420180    
0.0800953830    0.0192883150    0.0003446541    
0.0803180440    0.0191146200    0.0003454888    
0.0805407050    0.0191289480    0.0003452969    
0.0807633660    0.0196471560    0.0003496179    
0.0809860270    0.0194837940    0.0003468757    
0.0812086880    0.0198525370    0.0003471169    
0.0814313490    0.0194828060    0.0003454377    
0.0816540100    0.0197478150    0.0003469873    
0.0818766710    0.0192439970    0.0003433145    
0.0820993320    0.0188993090    0.0003396060    
0.0823219930    0.0190309180    0.0003421919    
0.0825446540    0.0198044240    0.0003465406    
0.0827673150    0.0192759800    0.0003395891    
0.0829899760    0.0198631570    0.0003441088    
0.0832126370    0.0196204520    0.0003435319    
0.0834352980    0.0200298150    0.0003463210    
0.0836579590    0.0197320960    0.0003429724    
0.0838806200    0.0196878180    0.0003436595    
0.0841032810    0.0193315770    0.0003384221    
0.0843259420    0.0197131780    0.0003406936    
0.0845486030    0.0197132080    0.0003406941    
0.0847712640    0.0195085670    0.0003368557    
0.0849939250    0.0195065290    0.0003374246    
0.0852165860    0.0202950290    0.0003446277    
0.0854392470    0.0193555110    0.0003333690    
0.0856619080    0.0191930130    0.0003344116    
0.0858845690    0.0192780100    0.0003321327    
0.0861072300    0.0190693750    0.0003326110    
0.0863298910    0.0192285710    0.0003357454    
0.0865525520    0.0189324980    0.0003302738    
0.0867752130    0.0195635750    0.0003330242    
0.0869978740    0.0193215460    0.0003318012    
0.0872205350    0.0196929830    0.0003345491    
0.0874431960    0.0192383410    0.0003306651    
0.0876658570    0.0194035400    0.0003333568    
0.0878885180    0.0195735770    0.0003353883    
0.0881111790    0.0193915380    0.0003333967    
0.0883338400    0.0195903250    0.0003301949    
0.0885565010    0.0188331140    0.0003281409    
0.0887791620    0.0195342600    0.0003298596    
0.0890018230    0.0199150440    0.0003362896    
0.0892244840    0.0195212780    0.0003335144    
0.0894471450    0.0195431590    0.0003322917    
0.0896698060    0.0196090840    0.0003315962    
0.0898924670    0.0194630430    0.0003318904    
0.0901151280    0.0192829890    0.0003267834    
0.0903377890    0.0189989580    0.0003270825    
0.0905604500    0.0192043760    0.0003273368    
0.0907831110    0.0194975610    0.0003290054    
0.0910057720    0.0199458510    0.0003342932    
0.0912284330    0.0189977360    0.0003215801    
0.0914510940    0.0191176910    0.0003261911    
0.0916737550    0.0191502970    0.0003256589    
0.0918964160    0.0188129260    0.0003241200    
0.0921190770    0.0201741790    0.0003326067    
0.0923417380    0.0190656740    0.0003234724    
0.0925643990    0.0194639890    0.0003260341    
0.0927870600    0.0195744000    0.0003282983    
0.0930097210    0.0192099180    0.0003224575    
0.0932323820    0.0192791620    0.0003254128    
