# Diamond Light Source Ltd.
# Data extracted from: /dls/b21/data/2018/cm19678-3/processed/b21-386631_00129.dat
q(1/A)          Column          Error           
0.0035000000    2.0759044000    0.0244596730    
0.0037226610    1.8772747000    0.0227703230    
0.0039453220    1.6048070000    0.0191524050    
0.0041679830    1.2988974000    0.0141502510    
0.0043906440    0.9797636800    0.0117550010    
0.0046133050    0.8012809900    0.0102051240    
0.0048359660    0.6025050700    0.0083705484    
0.0050586270    0.4568118600    0.0071639687    
0.0052812880    0.4340730900    0.0066026836    
0.0055039490    0.3800097000    0.0058741760    
0.0057266100    0.3230170100    0.0052393385    
0.0059492710    0.2700731900    0.0047907612    
0.0061719320    0.2327903400    0.0042860175    
0.0063945930    0.2029808800    0.0040507158    
0.0066172539    0.1753373600    0.0035351425    
0.0068399149    0.1690985600    0.0034170043    
0.0070625759    0.1503612100    0.0031890849    
0.0072852369    0.1287656800    0.0029070373    
0.0075078979    0.1180152700    0.0027693656    
0.0077305589    0.1004297200    0.0025060487    
0.0079532199    0.0971791130    0.0024309977    
0.0081758809    0.0952166300    0.0024287112    
0.0083985419    0.0869264690    0.0021643867    
0.0086212029    0.0780883280    0.0020514075    
0.0088438639    0.0743995960    0.0019862858    
0.0090665249    0.0626750670    0.0017607857    
0.0092891859    0.0650466920    0.0018722834    
0.0095118469    0.0593585450    0.0017199957    
0.0097345079    0.0582002340    0.0016541101    
0.0099571689    0.0531642570    0.0015483276    
0.0101798300    0.0531642670    0.0015483279    
0.0104024910    0.0465795260    0.0014443698    
0.0106251520    0.0456338060    0.0014344864    
0.0108478130    0.0472984630    0.0014222288    
0.0110704740    0.0439195100    0.0013047957    
0.0112931350    0.0440608930    0.0013107325    
0.0115157960    0.0423538710    0.0012775981    
0.0117384570    0.0395066500    0.0012232861    
0.0119611180    0.0378289280    0.0012004648    
0.0121837790    0.0380778270    0.0011841641    
0.0124064400    0.0356458320    0.0010979649    
0.0126291010    0.0348250850    0.0010716679    
0.0128517620    0.0353306500    0.0010821140    
0.0130744230    0.0326534060    0.0010325914    
0.0132970840    0.0315264720    0.0010096552    
0.0135197450    0.0306928230    0.0009819504    
0.0137424060    0.0305467560    0.0009659732    
0.0139650670    0.0303983360    0.0009421595    
0.0141877280    0.0304448590    0.0009449640    
0.0144103890    0.0295173270    0.0009144146    
0.0146330500    0.0281927510    0.0008879882    
0.0148557110    0.0290384990    0.0008974305    
0.0150783720    0.0279058250    0.0008724831    
0.0153010330    0.0284236860    0.0008681265    
0.0155236940    0.0281914550    0.0008594317    
0.0157463550    0.0269953510    0.0008264313    
0.0159690160    0.0263137860    0.0008128356    
0.0161916770    0.0266139680    0.0008128534    
0.0164143380    0.0251284460    0.0007958259    
0.0166369990    0.0247864880    0.0007660227    
0.0168596600    0.0251656920    0.0007650596    
0.0170823210    0.0250289560    0.0007563724    
0.0173049820    0.0234641350    0.0007336125    
0.0175276430    0.0240084600    0.0007498983    
0.0177503040    0.0253580350    0.0007510402    
0.0179729650    0.0238763360    0.0007215404    
0.0181956260    0.0238087210    0.0007067050    
0.0184182870    0.0235432640    0.0006994420    
0.0186409480    0.0250627540    0.0007262279    
0.0188636090    0.0249562920    0.0007201261    
0.0190862700    0.0229932770    0.0006901435    
0.0193089310    0.0228390540    0.0006867530    
0.0195315920    0.0228535890    0.0006636087    
0.0197542530    0.0229202260    0.0006655436    
0.0199769140    0.0208330620    0.0006345177    
0.0201995750    0.0232004640    0.0006591147    
0.0204222360    0.0227052240    0.0006576392    
0.0206448970    0.0217076130    0.0006384592    
0.0208675580    0.0225520290    0.0006373580    
0.0210902190    0.0213000220    0.0006253902    
0.0213128800    0.0217264660    0.0006230492    
0.0215355410    0.0225550880    0.0006272566    
0.0217582020    0.0227644250    0.0006301609    
0.0219808630    0.0209996580    0.0006044475    
0.0222035240    0.0213383490    0.0006037812    
0.0224261850    0.0213797490    0.0005989877    
0.0226488460    0.0215227150    0.0005964741    
0.0228715070    0.0209389060    0.0005868671    
0.0230941680    0.0214817140    0.0005944254    
0.0233168290    0.0221178400    0.0006046648    
0.0235394900    0.0205814370    0.0005768481    
0.0237621510    0.0220754060    0.0005813345    
0.0239848120    0.0220497950    0.0005816693    
0.0242074730    0.0213207210    0.0005673937    
0.0244301340    0.0217628950    0.0005739013    
0.0246527950    0.0208728760    0.0005672480    
0.0248754560    0.0214624510    0.0005622760    
0.0250981170    0.0207444760    0.0005540239    
0.0253207780    0.0208054110    0.0005382710    
0.0255434390    0.0215221610    0.0005533073    
0.0257661000    0.0206880670    0.0005442344    
0.0259887610    0.0208252840    0.0005402335    
0.0262114220    0.0210902780    0.0005465564    
0.0264340830    0.0214987490    0.0005443157    
0.0266567440    0.0209480460    0.0005339790    
0.0268794050    0.0207233980    0.0005289404    
0.0271020660    0.0206496860    0.0005258614    
0.0273247270    0.0208522530    0.0005252607    
0.0275473880    0.0209933860    0.0005259865    
0.0277700490    0.0205636060    0.0005174974    
0.0279927100    0.0202319270    0.0005088284    
0.0282153710    0.0208684650    0.0005192832    
0.0284380320    0.0204228650    0.0005107313    
0.0286606930    0.0205894960    0.0005084214    
0.0288833540    0.0213987280    0.0005193009    
0.0291060150    0.0212826630    0.0005173992    
0.0293286760    0.0210605790    0.0005075207    
0.0295513370    0.0206761970    0.0004973920    
0.0297739980    0.0207426140    0.0005036752    
0.0299966590    0.0203000660    0.0004897629    
0.0302193200    0.0206771080    0.0005014935    
0.0304419810    0.0200208090    0.0004943786    
0.0306646420    0.0201516880    0.0004819930    
0.0308873030    0.0204122810    0.0004830041    
0.0311099640    0.0202771640    0.0004826528    
0.0313326250    0.0199427440    0.0004733537    
0.0315552860    0.0200249200    0.0004804751    
0.0317779470    0.0209721520    0.0004921359    
0.0320006080    0.0206917710    0.0004777286    
0.0322232690    0.0195974330    0.0004668703    
0.0324459300    0.0202043710    0.0004705057    
0.0326685910    0.0206183230    0.0004745176    
0.0328912520    0.0200295580    0.0004692423    
0.0331139130    0.0204970720    0.0004685122    
0.0333365740    0.0200160140    0.0004644849    
0.0335592350    0.0200981300    0.0004609614    
0.0337818960    0.0200766940    0.0004603487    
0.0340045570    0.0198551390    0.0004570745    
0.0342272170    0.0206383410    0.0004641640    
0.0344498780    0.0204128330    0.0004634495    
0.0346725390    0.0202820440    0.0004534070    
0.0348952000    0.0197461410    0.0004453387    
0.0351178610    0.0195928240    0.0004456369    
0.0353405220    0.0200273930    0.0004484994    
0.0355631830    0.0202057780    0.0004487957    
0.0357858440    0.0198668680    0.0004450161    
0.0360085050    0.0194656140    0.0004418301    
0.0362311660    0.0197399550    0.0004396437    
0.0364538270    0.0205516640    0.0004449914    
0.0366764880    0.0202813210    0.0004417341    
0.0368991490    0.0195439910    0.0004314442    
0.0371218100    0.0197921820    0.0004329328    
0.0373444710    0.0203707610    0.0004439982    
0.0375671320    0.0196649770    0.0004356035    
0.0377897930    0.0195481470    0.0004230646    
0.0380124540    0.0198313070    0.0004287913    
0.0382351150    0.0206935520    0.0004380139    
0.0384577760    0.0191595010    0.0004173995    
0.0386804370    0.0206255810    0.0004363798    
0.0389030980    0.0198415220    0.0004247639    
0.0391257590    0.0202547820    0.0004262512    
0.0393484200    0.0193702390    0.0004154370    
0.0395710810    0.0199048980    0.0004216988    
0.0397937420    0.0201014600    0.0004237760    
0.0400164030    0.0192385670    0.0004162671    
0.0402390640    0.0202553520    0.0004214381    
0.0404617250    0.0200257330    0.0004165704    
0.0406843860    0.0193771750    0.0004058103    
0.0409070470    0.0197916710    0.0004144001    
0.0411297080    0.0199977560    0.0004125222    
0.0413523690    0.0196904120    0.0004103951    
0.0415750300    0.0198871590    0.0004159438    
0.0417976910    0.0209521160    0.0004158935    
0.0420203520    0.0195960760    0.0004037211    
0.0422430130    0.0205576530    0.0004150733    
0.0424656740    0.0204178710    0.0004082758    
0.0426883350    0.0200356460    0.0004064435    
0.0429109960    0.0193894450    0.0004010846    
0.0431336570    0.0200888780    0.0004025027    
0.0433563180    0.0195344930    0.0004003340    
0.0435789790    0.0202131860    0.0004008313    
0.0438016400    0.0195096520    0.0003959362    
0.0440243010    0.0199739290    0.0003965548    
0.0442469620    0.0198395350    0.0003975867    
0.0444696230    0.0193177910    0.0003909171    
0.0446922840    0.0200210560    0.0003967873    
0.0449149450    0.0196883620    0.0003882166    
0.0451376060    0.0199580110    0.0003956933    
0.0453602670    0.0206632520    0.0003984030    
0.0455829280    0.0197571530    0.0003891194    
0.0458055890    0.0206317780    0.0003999579    
0.0460282500    0.0195242270    0.0003843829    
0.0462509110    0.0195661170    0.0003824017    
0.0464735720    0.0199323940    0.0003861823    
0.0466962330    0.0193665470    0.0003823917    
0.0469188940    0.0196172620    0.0003837679    
0.0471415550    0.0198723810    0.0003882391    
0.0473642160    0.0192902770    0.0003771548    
0.0475868770    0.0190260810    0.0003727023    
0.0478095380    0.0189105900    0.0003699435    
0.0480321990    0.0195241750    0.0003767209    
0.0482548600    0.0198516070    0.0003782116    
0.0484775210    0.0194907810    0.0003784796    
0.0487001820    0.0199590280    0.0003773924    
0.0489228430    0.0203937890    0.0003812756    
0.0491455040    0.0197541350    0.0003726532    
0.0493681650    0.0197876030    0.0003761739    
0.0495908260    0.0197494860    0.0003694883    
0.0498134870    0.0192818950    0.0003685635    
0.0500361480    0.0201891040    0.0003761364    
0.0502588090    0.0192214660    0.0003615127    
0.0504814700    0.0195109880    0.0003689867    
0.0507041310    0.0193904620    0.0003634718    
0.0509267920    0.0202725500    0.0003731846    
0.0511494530    0.0197048460    0.0003654690    
0.0513721140    0.0191704550    0.0003636538    
0.0515947750    0.0198207330    0.0003648674    
0.0518174360    0.0196755680    0.0003613391    
0.0520400970    0.0199402900    0.0003612395    
0.0522627580    0.0198879550    0.0003638311    
0.0524854190    0.0190018090    0.0003585247    
0.0527080800    0.0193521500    0.0003646161    
0.0529307410    0.0197354520    0.0003699386    
0.0531534020    0.0195300580    0.0003666687    
0.0533760630    0.0195416870    0.0003679260    
0.0535987240    0.0199841450    0.0003703308    
0.0538213850    0.0193543660    0.0003686713    
0.0540440460    0.0193316000    0.0003667107    
0.0542667070    0.0198669670    0.0003743158    
0.0544893680    0.0199799240    0.0003755784    
0.0547120290    0.0195051620    0.0003685471    
0.0549346900    0.0203343240    0.0003764970    
0.0551573510    0.0200023780    0.0003778071    
0.0553800120    0.0193340160    0.0003682837    
0.0556026730    0.0198590040    0.0003809892    
0.0558253340    0.0194571990    0.0003802730    
0.0560479950    0.0192565520    0.0003783074    
0.0562706560    0.0195018990    0.0003843905    
0.0564933170    0.0194720530    0.0003874316    
0.0567159780    0.0193239710    0.0003813282    
0.0569386390    0.0185919680    0.0003799029    
0.0571613000    0.0192194880    0.0003779441    
0.0573839610    0.0191428590    0.0003740581    
0.0576066220    0.0200574650    0.0003839497    
0.0578292830    0.0196621040    0.0003788888    
0.0580519440    0.0190790900    0.0003746764    
0.0582746050    0.0201218630    0.0003830825    
0.0584972660    0.0197654660    0.0003782215    
0.0587199270    0.0195328630    0.0003727483    
0.0589425880    0.0193612760    0.0003689368    
0.0591652490    0.0196182630    0.0003735626    
0.0593879100    0.0189074720    0.0003640093    
0.0596105710    0.0198816140    0.0003728749    
0.0598332320    0.0195827590    0.0003732250    
0.0600558930    0.0194040740    0.0003691497    
0.0602785540    0.0194611830    0.0003693017    
0.0605012150    0.0199863900    0.0003734632    
0.0607238760    0.0202188160    0.0003728911    
0.0609465370    0.0194975270    0.0003690622    
0.0611691980    0.0197275710    0.0003718214    
0.0613918590    0.0205126590    0.0003750085    
0.0616145200    0.0192766220    0.0003661952    
0.0618371810    0.0193636370    0.0003634161    
0.0620598420    0.0195949530    0.0003659573    
0.0622825030    0.0198536390    0.0003739983    
0.0625051640    0.0197998520    0.0003682459    
0.0627278250    0.0192136680    0.0003620069    
0.0629504860    0.0196138150    0.0003627836    
0.0631731470    0.0198614450    0.0003695832    
0.0633958080    0.0195133190    0.0003684382    
0.0636184690    0.0191881280    0.0003704438    
0.0638411300    0.0197754510    0.0003746587    
0.0640637910    0.0194211510    0.0003738987    
0.0642864520    0.0194877010    0.0003737283    
0.0645091130    0.0195900600    0.0003779921    
0.0647317740    0.0190850680    0.0003734997    
0.0649544350    0.0198818420    0.0003807971    
0.0651770960    0.0192326790    0.0003724858    
0.0653997570    0.0195515890    0.0003747469    
0.0656224180    0.0198892040    0.0003787904    
0.0658450790    0.0191743920    0.0003665756    
0.0660677400    0.0199387260    0.0003754014    
0.0662904010    0.0196938550    0.0003775430    
0.0665130620    0.0195951200    0.0003749618    
0.0667357230    0.0203947300    0.0003893372    
0.0669583840    0.0190255530    0.0003747832    
0.0671810450    0.0193636580    0.0003760111    
0.0674037060    0.0197761270    0.0003864324    
0.0676263670    0.0195471360    0.0003813758    
0.0678490280    0.0194337320    0.0003779423    
0.0680716890    0.0191364100    0.0003758746    
0.0682943500    0.0191528400    0.0003719173    
0.0685170110    0.0193093130    0.0003696281    
0.0687396720    0.0190942360    0.0003665873    
0.0689623330    0.0192741310    0.0003671430    
0.0691849940    0.0198541310    0.0003752078    
0.0694076550    0.0194008690    0.0003707022    
0.0696303160    0.0203497510    0.0003766535    
0.0698529770    0.0194384100    0.0003673514    
0.0700756380    0.0195446580    0.0003636255    
0.0702982990    0.0197030480    0.0003690719    
0.0705209600    0.0190720670    0.0003604926    
0.0707436210    0.0197344750    0.0003650154    
0.0709662820    0.0192537530    0.0003648403    
0.0711889430    0.0196537470    0.0003640832    
0.0714116040    0.0192464780    0.0003610266    
0.0716342650    0.0192315650    0.0003594214    
0.0718569260    0.0197832710    0.0003630722    
0.0720795870    0.0197018250    0.0003637897    
0.0723022480    0.0193509120    0.0003610848    
0.0725249090    0.0198899610    0.0003616954    
0.0727475700    0.0199769590    0.0003655817    
0.0729702310    0.0193698820    0.0003571130    
0.0731928920    0.0198502180    0.0003629586    
0.0734155530    0.0195926050    0.0003598762    
0.0736382140    0.0200597560    0.0003618043    
0.0738608750    0.0197579120    0.0003613916    
0.0740835360    0.0203768710    0.0003660975    
0.0743061970    0.0198518070    0.0003562618    
0.0745288580    0.0193942450    0.0003557529    
0.0747515190    0.0195429930    0.0003578199    
0.0749741800    0.0192150200    0.0003515204    
0.0751968410    0.0196355210    0.0003581360    
0.0754195020    0.0190123120    0.0003503421    
0.0756421630    0.0187472040    0.0003450471    
0.0758648240    0.0189778350    0.0003479975    
0.0760874850    0.0191253660    0.0003491798    
0.0763101460    0.0197631500    0.0003546136    
0.0765328070    0.0195397710    0.0003562119    
0.0767554680    0.0193075200    0.0003516858    
0.0769781290    0.0192699000    0.0003493240    
0.0772007900    0.0197471940    0.0003507876    
0.0774234510    0.0197770990    0.0003530499    
0.0776461120    0.0196452410    0.0003515373    
0.0778687730    0.0191407170    0.0003458476    
0.0780914340    0.0194469210    0.0003510938    
0.0783140950    0.0192890220    0.0003441178    
0.0785367560    0.0192568160    0.0003493740    
0.0787594170    0.0190938350    0.0003447754    
0.0789820780    0.0198352790    0.0003496052    
0.0792047390    0.0195744480    0.0003484344    
0.0794274000    0.0187961730    0.0003428840    
0.0796500610    0.0194676120    0.0003455487    
0.0798727220    0.0197928950    0.0003481020    
0.0800953830    0.0199396300    0.0003485864    
0.0803180440    0.0191864750    0.0003443217    
0.0805407050    0.0195023670    0.0003468218    
0.0807633660    0.0190660200    0.0003426016    
0.0809860270    0.0190293530    0.0003410081    
0.0812086880    0.0195426860    0.0003425906    
0.0814313490    0.0194910450    0.0003436981    
0.0816540100    0.0198307460    0.0003458910    
0.0818766710    0.0194426170    0.0003432713    
0.0820993320    0.0198850960    0.0003465228    
0.0823219930    0.0194710570    0.0003443105    
0.0825446540    0.0201192060    0.0003474514    
0.0827673150    0.0198912220    0.0003431562    
0.0829899760    0.0191066920    0.0003357222    
0.0832126370    0.0197365310    0.0003427390    
0.0834352980    0.0191980470    0.0003372753    
0.0836579590    0.0195845930    0.0003398956    
0.0838806200    0.0195827000    0.0003409427    
0.0841032810    0.0195748250    0.0003387581    
0.0843259420    0.0200895270    0.0003421260    
0.0845486030    0.0188252210    0.0003311857    
0.0847712640    0.0195403950    0.0003353617    
0.0849939250    0.0195969580    0.0003364316    
0.0852165860    0.0191503200    0.0003330113    
0.0854392470    0.0198120360    0.0003355082    
0.0856619080    0.0194072920    0.0003345091    
0.0858845690    0.0193707080    0.0003311837    
0.0861072300    0.0200868550    0.0003395783    
0.0863298910    0.0194392210    0.0003358085    
0.0865525520    0.0194014210    0.0003325849    
0.0867752130    0.0196617660    0.0003321074    
0.0869978740    0.0199256220    0.0003351804    
0.0872205350    0.0195375160    0.0003314778    
0.0874431960    0.0191213750    0.0003279289    
0.0876658570    0.0195745210    0.0003330658    
0.0878885180    0.0189479310    0.0003282535    
0.0881111790    0.0199543390    0.0003364259    
0.0883338400    0.0195450250    0.0003280826    
0.0885565010    0.0195525550    0.0003325957    
0.0887791620    0.0196054280    0.0003287262    
0.0890018230    0.0195492990    0.0003314393    
0.0892244840    0.0191985870    0.0003290112    
0.0894471450    0.0191876920    0.0003275285    
0.0896698060    0.0191486380    0.0003259608    
0.0898924670    0.0195057790    0.0003305115    
0.0901151280    0.0204018660    0.0003343670    
0.0903377890    0.0190564530    0.0003258585    
0.0905604500    0.0191800800    0.0003254135    
0.0907831110    0.0195572160    0.0003277797    
0.0910057720    0.0185118680    0.0003203628    
0.0912284330    0.0189012720    0.0003190798    
0.0914510940    0.0197216960    0.0003295658    
0.0916737550    0.0195252940    0.0003271069    
0.0918964160    0.0193730720    0.0003271844    
0.0921190770    0.0193770290    0.0003242592    
0.0923417380    0.0194743910    0.0003252061    
0.0925643990    0.0189198430    0.0003197580    
0.0927870600    0.0190971310    0.0003225701    
0.0930097210    0.0193784630    0.0003221700    
0.0932323820    0.0196481020    0.0003267883    
