# Diamond Light Source Ltd.
# Data extracted from: /dls/b21/data/2018/cm19678-3/processed/b21-386631_00133.dat
q(1/A)          Column          Error           
0.0035000000    2.1520509000    0.0249079300    
0.0037226610    1.8689907000    0.0227233970    
0.0039453220    1.6713600000    0.0195484040    
0.0041679830    1.2978949000    0.0141468860    
0.0043906440    0.9745523200    0.0117254360    
0.0046133050    0.7730462100    0.0100251990    
0.0048359660    0.5932613900    0.0083073211    
0.0050586270    0.4598692900    0.0071889688    
0.0052812880    0.4214430200    0.0065068813    
0.0055039490    0.3910219800    0.0059595655    
0.0057266100    0.3158021900    0.0051812641    
0.0059492710    0.2693032200    0.0047846366    
0.0061719320    0.2268603000    0.0042317024    
0.0063945930    0.2001301000    0.0040227664    
0.0066172539    0.1780273400    0.0035626851    
0.0068399149    0.1717733200    0.0034444336    
0.0070625759    0.1447901200    0.0031299113    
0.0072852369    0.1249962100    0.0028645960    
0.0075078979    0.1179202600    0.0027686611    
0.0077305589    0.1036497000    0.0025462836    
0.0079532199    0.0982420640    0.0024446192    
0.0081758809    0.0956786480    0.0024349575    
0.0083985419    0.0861436440    0.0021549384    
0.0086212029    0.0760630170    0.0020249301    
0.0088438639    0.0730425020    0.0019683788    
0.0090665249    0.0667016960    0.0018167365    
0.0092891859    0.0656050570    0.0018805809    
0.0095118469    0.0610711880    0.0017448911    
0.0097345079    0.0566186320    0.0016317218    
0.0099571689    0.0520072690    0.0015316142    
0.0101798300    0.0498421880    0.0014993946    
0.0104024910    0.0510286690    0.0015120020    
0.0106251520    0.0469103110    0.0014546270    
0.0108478130    0.0448313660    0.0013848455    
0.0110704740    0.0405978510    0.0012546706    
0.0112931350    0.0430988740    0.0012965366    
0.0115157960    0.0384343350    0.0012172276    
0.0117384570    0.0408065990    0.0012434335    
0.0119611180    0.0387547140    0.0012152456    
0.0121837790    0.0361736150    0.0011543464    
0.0124064400    0.0364344860    0.0011102091    
0.0126291010    0.0337797960    0.0010556186    
0.0128517620    0.0342470800    0.0010655489    
0.0130744230    0.0341002670    0.0010553768    
0.0132970840    0.0308889350    0.0009995424    
0.0135197450    0.0315189690    0.0009952256    
0.0137424060    0.0297002540    0.0009526361    
0.0139650670    0.0304657720    0.0009433439    
0.0141877280    0.0314807540    0.0009610484    
0.0144103890    0.0289310260    0.0009054218    
0.0146330500    0.0299636830    0.0009155888    
0.0148557110    0.0289916260    0.0008968389    
0.0150783720    0.0269045010    0.0008568138    
0.0153010330    0.0269733790    0.0008458140    
0.0155236940    0.0269942480    0.0008411097    
0.0157463550    0.0259657410    0.0008106381    
0.0159690160    0.0259197340    0.0008068461    
0.0161916770    0.0260506840    0.0008043247    
0.0164143380    0.0259678800    0.0008091292    
0.0166369990    0.0259542010    0.0007839753    
0.0168596600    0.0232886600    0.0007360841    
0.0170823210    0.0258137650    0.0007682532    
0.0173049820    0.0242970570    0.0007466304    
0.0175276430    0.0247184770    0.0007610190    
0.0177503040    0.0253878070    0.0007515924    
0.0179729650    0.0228364740    0.0007057578    
0.0181956260    0.0231233420    0.0006965620    
0.0184182870    0.0250883920    0.0007221363    
0.0186409480    0.0233230630    0.0007006735    
0.0188636090    0.0230929760    0.0006928239    
0.0190862700    0.0226685640    0.0006853546    
0.0193089310    0.0227012340    0.0006847793    
0.0195315920    0.0233807970    0.0006713190    
0.0197542530    0.0222117630    0.0006552741    
0.0199769140    0.0230816830    0.0006679828    
0.0201995750    0.0215215820    0.0006349129    
0.0204222360    0.0221022420    0.0006489442    
0.0206448970    0.0222775650    0.0006468825    
0.0208675580    0.0218560100    0.0006275386    
0.0210902190    0.0222430840    0.0006391796    
0.0213128800    0.0220188700    0.0006273208    
0.0215355410    0.0222651420    0.0006233043    
0.0217582020    0.0227537270    0.0006301062    
0.0219808630    0.0216846190    0.0006143173    
0.0222035240    0.0222845960    0.0006171148    
0.0224261850    0.0209160660    0.0005925445    
0.0226488460    0.0211983910    0.0005920507    
0.0228715070    0.0208628490    0.0005858872    
0.0230941680    0.0220475000    0.0006022918    
0.0233168290    0.0220251880    0.0006034864    
0.0235394900    0.0221724430    0.0005988180    
0.0237621510    0.0211937750    0.0005696922    
0.0239848120    0.0211814490    0.0005701854    
0.0242074730    0.0213572530    0.0005679638    
0.0244301340    0.0212697760    0.0005674463    
0.0246527950    0.0213570960    0.0005738750    
0.0248754560    0.0198627080    0.0005409953    
0.0250981170    0.0210466440    0.0005581270    
0.0253207780    0.0213548570    0.0005454131    
0.0255434390    0.0208455500    0.0005446212    
0.0257661000    0.0209806280    0.0005481503    
0.0259887610    0.0201445550    0.0005314095    
0.0262114220    0.0204872990    0.0005387665    
0.0264340830    0.0205263660    0.0005319425    
0.0266567440    0.0202462530    0.0005250361    
0.0268794050    0.0208645900    0.0005308180    
0.0271020660    0.0209505110    0.0005297564    
0.0273247270    0.0205540310    0.0005215684    
0.0275473880    0.0207095990    0.0005224968    
0.0277700490    0.0207520840    0.0005199407    
0.0279927100    0.0210443730    0.0005190212    
0.0282153710    0.0206549220    0.0005166961    
0.0284380320    0.0205566840    0.0005124778    
0.0286606930    0.0212109590    0.0005161138    
0.0288833540    0.0205982880    0.0005095715    
0.0291060150    0.0207353620    0.0005107790    
0.0293286760    0.0203939600    0.0004994980    
0.0295513370    0.0203711370    0.0004937823    
0.0297739980    0.0212014220    0.0005092907    
0.0299966590    0.0209561650    0.0004976883    
0.0302193200    0.0206589080    0.0005013471    
0.0304419810    0.0201000160    0.0004954291    
0.0306646420    0.0198578370    0.0004785368    
0.0308873030    0.0205783900    0.0004850373    
0.0311099640    0.0209267240    0.0004903953    
0.0313326250    0.0199936140    0.0004740273    
0.0315552860    0.0204806020    0.0004859832    
0.0317779470    0.0206664700    0.0004886086    
0.0320006080    0.0213047230    0.0004848247    
0.0322232690    0.0202819050    0.0004750239    
0.0324459300    0.0198158020    0.0004660284    
0.0326685910    0.0206244390    0.0004746584    
0.0328912520    0.0197495910    0.0004660204    
0.0331139130    0.0199354050    0.0004621169    
0.0333365740    0.0203022800    0.0004678640    
0.0335592350    0.0199454580    0.0004592754    
0.0337818960    0.0195652720    0.0004545150    
0.0340045570    0.0199136540    0.0004578154    
0.0342272170    0.0197568660    0.0004542108    
0.0344498780    0.0204083630    0.0004634675    
0.0346725390    0.0201663920    0.0004521795    
0.0348952000    0.0201036350    0.0004494186    
0.0351178610    0.0204604480    0.0004554645    
0.0353405220    0.0200936140    0.0004493069    
0.0355631830    0.0199824320    0.0004463746    
0.0357858440    0.0201918410    0.0004487076    
0.0360085050    0.0203140440    0.0004514232    
0.0362311660    0.0210582790    0.0004541545    
0.0364538270    0.0196999820    0.0004357379    
0.0366764880    0.0202777130    0.0004417603    
0.0368991490    0.0205596700    0.0004425786    
0.0371218100    0.0203190540    0.0004387224    
0.0373444710    0.0200089560    0.0004401029    
0.0375671320    0.0196611580    0.0004356258    
0.0377897930    0.0201034710    0.0004290953    
0.0380124540    0.0205327420    0.0004363733    
0.0382351150    0.0198928460    0.0004295199    
0.0384577760    0.0195199260    0.0004213697    
0.0386804370    0.0206871110    0.0004370950    
0.0389030980    0.0200929990    0.0004275106    
0.0391257590    0.0197672810    0.0004211528    
0.0393484200    0.0207217860    0.0004297498    
0.0395710810    0.0198571830    0.0004212555    
0.0397937420    0.0195801610    0.0004183069    
0.0400164030    0.0193253590    0.0004172669    
0.0402390640    0.0195596670    0.0004141990    
0.0404617250    0.0198496460    0.0004147964    
0.0406843860    0.0205986060    0.0004184669    
0.0409070470    0.0200058460    0.0004166980    
0.0411297080    0.0198504680    0.0004110612    
0.0413523690    0.0196620270    0.0004101600    
0.0415750300    0.0201889300    0.0004191499    
0.0417976910    0.0194058610    0.0004003124    
0.0420203520    0.0196684480    0.0004045259    
0.0422430130    0.0194320320    0.0004036096    
0.0424656740    0.0197052920    0.0004011476    
0.0426883350    0.0199508660    0.0004056428    
0.0429109960    0.0191628190    0.0003987929    
0.0431336570    0.0197156890    0.0003988057    
0.0433563180    0.0193269120    0.0003982603    
0.0435789790    0.0191299050    0.0003900004    
0.0438016400    0.0198128320    0.0003990599    
0.0440243010    0.0198695980    0.0003955765    
0.0442469620    0.0203236230    0.0004024677    
0.0444696230    0.0193314330    0.0003911131    
0.0446922840    0.0192325220    0.0003889527    
0.0449149450    0.0198014010    0.0003893872    
0.0451376060    0.0199639300    0.0003958107    
0.0453602670    0.0195706000    0.0003877838    
0.0455829280    0.0201999760    0.0003935143    
0.0458055890    0.0196917030    0.0003907976    
0.0460282500    0.0193786230    0.0003830037    
0.0462509110    0.0201849440    0.0003884594    
0.0464735720    0.0193769800    0.0003808203    
0.0466962330    0.0196366300    0.0003851060    
0.0469188940    0.0189171610    0.0003769136    
0.0471415550    0.0195065060    0.0003847056    
0.0473642160    0.0196943100    0.0003811405    
0.0475868770    0.0193603610    0.0003760180    
0.0478095380    0.0192202490    0.0003730154    
0.0480321990    0.0201989000    0.0003832319    
0.0482548600    0.0196124300    0.0003759821    
0.0484775210    0.0199964740    0.0003834149    
0.0487001820    0.0192725630    0.0003709007    
0.0489228430    0.0196012420    0.0003738490    
0.0491455040    0.0192185280    0.0003676210    
0.0493681650    0.0195073360    0.0003735557    
0.0495908260    0.0194718400    0.0003669363    
0.0498134870    0.0195554000    0.0003712233    
0.0500361480    0.0199147020    0.0003736270    
0.0502588090    0.0198324790    0.0003672681    
0.0504814700    0.0193422690    0.0003674423    
0.0507041310    0.0198460200    0.0003677712    
0.0509267920    0.0191996960    0.0003632295    
0.0511494530    0.0188088950    0.0003571166    
0.0513721140    0.0191416390    0.0003634343    
0.0515947750    0.0195377120    0.0003623068    
0.0518174360    0.0196283010    0.0003609583    
0.0520400970    0.0192457640    0.0003549454    
0.0522627580    0.0192214040    0.0003577352    
0.0524854190    0.0196232070    0.0003643938    
0.0527080800    0.0197014800    0.0003679468    
0.0529307410    0.0198245440    0.0003708276    
0.0531534020    0.0196735730    0.0003680681    
0.0533760630    0.0196029170    0.0003685566    
0.0535987240    0.0196331060    0.0003671183    
0.0538213850    0.0197324170    0.0003723098    
0.0540440460    0.0190102900    0.0003637043    
0.0542667070    0.0196964940    0.0003727616    
0.0544893680    0.0195056250    0.0003711488    
0.0547120290    0.0201099980    0.0003742731    
0.0549346900    0.0191688850    0.0003656028    
0.0551573510    0.0200368640    0.0003781887    
0.0553800120    0.0195572880    0.0003704590    
0.0556026730    0.0197259790    0.0003797673    
0.0558253340    0.0198049480    0.0003837131    
0.0560479950    0.0194778580    0.0003805315    
0.0562706560    0.0192272690    0.0003817309    
0.0564933170    0.0195086720    0.0003878532    
0.0567159780    0.0202179060    0.0003901065    
0.0569386390    0.0196380090    0.0003905018    
0.0571613000    0.0199091470    0.0003847223    
0.0573839610    0.0196457120    0.0003789954    
0.0576066220    0.0196002430    0.0003796045    
0.0578292830    0.0201061370    0.0003832000    
0.0580519440    0.0191657100    0.0003755817    
0.0582746050    0.0195879770    0.0003780223    
0.0584972660    0.0196048170    0.0003767372    
0.0587199270    0.0199015370    0.0003763054    
0.0589425880    0.0195146980    0.0003704506    
0.0591652490    0.0195742740    0.0003731989    
0.0593879100    0.0204973480    0.0003790609    
0.0596105710    0.0201183540    0.0003751440    
0.0598332320    0.0196454900    0.0003738778    
0.0600558930    0.0198734730    0.0003736434    
0.0602785540    0.0201749720    0.0003760690    
0.0605012150    0.0199643960    0.0003733130    
0.0607238760    0.0192892440    0.0003642723    
0.0609465370    0.0195941530    0.0003700305    
0.0611691980    0.0195651800    0.0003703428    
0.0613918590    0.0200044030    0.0003703884    
0.0616145200    0.0200269120    0.0003733091    
0.0618371810    0.0198674300    0.0003681680    
0.0620598420    0.0196417850    0.0003664487    
0.0622825030    0.0194648740    0.0003703734    
0.0625051640    0.0195453940    0.0003659262    
0.0627278250    0.0196764840    0.0003663953    
0.0629504860    0.0194451160    0.0003612737    
0.0631731470    0.0201287480    0.0003721171    
0.0633958080    0.0191920480    0.0003654468    
0.0636184690    0.0199664360    0.0003779381    
0.0638411300    0.0192913980    0.0003700998    
0.0640637910    0.0193765080    0.0003735241    
0.0642864520    0.0197730870    0.0003765107    
0.0645091130    0.0187787680    0.0003701373    
0.0647317740    0.0188713800    0.0003714579    
0.0649544350    0.0194062310    0.0003762707    
0.0651770960    0.0195486800    0.0003755891    
0.0653997570    0.0193705800    0.0003730634    
0.0656224180    0.0201548870    0.0003813686    
0.0658450790    0.0196217260    0.0003708820    
0.0660677400    0.0201850220    0.0003777689    
0.0662904010    0.0195404190    0.0003761252    
0.0665130620    0.0196081090    0.0003751417    
0.0667357230    0.0192558370    0.0003783664    
0.0669583840    0.0194595270    0.0003790897    
0.0671810450    0.0192671500    0.0003751285    
0.0674037060    0.0192910300    0.0003817201    
0.0676263670    0.0193519710    0.0003795234    
0.0678490280    0.0193292120    0.0003769805    
0.0680716890    0.0202055360    0.0003862890    
0.0682943500    0.0194691600    0.0003750316    
0.0685170110    0.0199874210    0.0003761183    
0.0687396720    0.0187338130    0.0003631648    
0.0689623330    0.0195176980    0.0003695103    
0.0691849940    0.0193847980    0.0003708015    
0.0694076550    0.0200868120    0.0003772545    
0.0696303160    0.0192818610    0.0003666919    
0.0698529770    0.0202427750    0.0003749305    
0.0700756380    0.0194827830    0.0003631033    
0.0702982990    0.0192663060    0.0003650126    
0.0705209600    0.0196979710    0.0003664144    
0.0707436210    0.0191257650    0.0003593951    
0.0709662820    0.0197504590    0.0003695712    
0.0711889430    0.0199834130    0.0003671784    
0.0714116040    0.0194757340    0.0003632243    
0.0716342650    0.0191499190    0.0003587109    
0.0718569260    0.0200824110    0.0003658611    
0.0720795870    0.0192306000    0.0003594662    
0.0723022480    0.0198890950    0.0003661259    
0.0725249090    0.0197247980    0.0003602440    
0.0727475700    0.0195412000    0.0003616261    
0.0729702310    0.0192109810    0.0003556979    
0.0731928920    0.0193781250    0.0003586697    
0.0734155530    0.0192215240    0.0003565047    
0.0736382140    0.0195500290    0.0003572309    
0.0738608750    0.0199819730    0.0003634889    
0.0740835360    0.0197644530    0.0003606076    
0.0743061970    0.0200175800    0.0003577992    
0.0745288580    0.0198765110    0.0003602023    
0.0747515190    0.0197191780    0.0003594825    
0.0749741800    0.0193686700    0.0003529754    
0.0751968410    0.0197916280    0.0003596101    
0.0754195020    0.0195022790    0.0003548803    
0.0756421630    0.0201693860    0.0003579487    
0.0758648240    0.0199537010    0.0003568856    
0.0760874850    0.0200684600    0.0003577385    
0.0763101460    0.0192661940    0.0003501787    
0.0765328070    0.0205718870    0.0003655528    
0.0767554680    0.0196464550    0.0003548118    
0.0769781290    0.0198203750    0.0003543309    
0.0772007900    0.0198964150    0.0003521627    
0.0774234510    0.0194173140    0.0003498757    
0.0776461120    0.0197957920    0.0003529340    
0.0778687730    0.0193964290    0.0003482017    
0.0780914340    0.0189581300    0.0003467048    
0.0783140950    0.0198290030    0.0003489529    
0.0785367560    0.0194147010    0.0003508554    
0.0787594170    0.0194482340    0.0003480120    
0.0789820780    0.0195021550    0.0003467084    
0.0792047390    0.0194747830    0.0003475978    
0.0794274000    0.0197340150    0.0003513861    
0.0796500610    0.0195899560    0.0003466842    
0.0798727220    0.0185556010    0.0003370961    
0.0800953830    0.0195615070    0.0003453166    
0.0803180440    0.0192416140    0.0003448672    
0.0805407050    0.0191811650    0.0003440049    
0.0807633660    0.0193118410    0.0003448543    
0.0809860270    0.0193956480    0.0003443256    
0.0812086880    0.0188155650    0.0003362067    
0.0814313490    0.0193998270    0.0003429437    
0.0816540100    0.0194383270    0.0003425023    
0.0818766710    0.0194847580    0.0003436941    
0.0820993320    0.0190090980    0.0003388544    
0.0823219930    0.0188982520    0.0003392585    
0.0825446540    0.0191768360    0.0003392669    
0.0827673150    0.0197727650    0.0003421836    
0.0829899760    0.0199148530    0.0003427995    
0.0832126370    0.0194030260    0.0003398813    
0.0834352980    0.0192748670    0.0003379995    
0.0836579590    0.0194900900    0.0003391248    
0.0838806200    0.0192916230    0.0003384495    
0.0841032810    0.0189179740    0.0003330753    
0.0843259420    0.0199730950    0.0003411837    
0.0845486030    0.0197866230    0.0003395876    
0.0847712640    0.0198340580    0.0003379224    
0.0849939250    0.0201400700    0.0003411122    
0.0852165860    0.0198395230    0.0003390010    
0.0854392470    0.0199543130    0.0003367607    
0.0856619080    0.0193438390    0.0003340113    
0.0858845690    0.0190536070    0.0003285105    
0.0861072300    0.0199607370    0.0003385608    
0.0863298910    0.0193695510    0.0003352559    
0.0865525520    0.0195839680    0.0003341955    
0.0867752130    0.0197461560    0.0003328687    
0.0869978740    0.0192209000    0.0003292486    
0.0872205350    0.0189920020    0.0003268658    
0.0874431960    0.0195939720    0.0003320058    
0.0876658570    0.0198127520    0.0003351361    
0.0878885180    0.0199603870    0.0003369592    
0.0881111790    0.0191091950    0.0003292732    
0.0883338400    0.0195948920    0.0003285496    
0.0885565010    0.0201073010    0.0003373309    
0.0887791620    0.0194844340    0.0003277589    
0.0890018230    0.0194876470    0.0003309653    
0.0892244840    0.0194862820    0.0003315164    
0.0894471450    0.0189808680    0.0003258068    
0.0896698060    0.0194595870    0.0003286455    
0.0898924670    0.0186040500    0.0003228294    
0.0901151280    0.0196021250    0.0003277966    
0.0903377890    0.0190342360    0.0003257168    
0.0905604500    0.0193790630    0.0003271456    
0.0907831110    0.0201125400    0.0003324500    
0.0910057720    0.0189721130    0.0003243689    
0.0912284330    0.0194403010    0.0003236456    
0.0914510940    0.0191601240    0.0003248879    
0.0916737550    0.0195639750    0.0003274793    
0.0918964160    0.0194562010    0.0003279342    
0.0921190770    0.0190082560    0.0003212064    
0.0923417380    0.0191053400    0.0003221577    
0.0925643990    0.0198930800    0.0003279277    
0.0927870600    0.0197895150    0.0003284143    
0.0930097210    0.0190841780    0.0003197617    
0.0932323820    0.0197572280    0.0003277431    
