# Diamond Light Source Ltd.
# Data extracted from: /dls/b21/data/2018/cm19678-3/processed/b21-386631_00130.dat
q(1/A)          Column          Error           
0.0035000000    2.0556267000    0.0243393030    
0.0037226610    1.8931983000    0.0228661140    
0.0039453220    1.6447241000    0.0193886460    
0.0041679830    1.2860378000    0.0140796740    
0.0043906440    0.9682910500    0.0116856810    
0.0046133050    0.7831752700    0.0100889140    
0.0048359660    0.6010792400    0.0083604271    
0.0050586270    0.4621812900    0.0072057671    
0.0052812880    0.4356580400    0.0066145600    
0.0055039490    0.3792641400    0.0058682626    
0.0057266100    0.3260599100    0.0052638258    
0.0059492710    0.2668304000    0.0047617926    
0.0061719320    0.2200744000    0.0041672089    
0.0063945930    0.1973123500    0.0039936535    
0.0066172539    0.1870170800    0.0036508952    
0.0068399149    0.1644640500    0.0033697687    
0.0070625759    0.1441988000    0.0031229716    
0.0072852369    0.1265278800    0.0028815934    
0.0075078979    0.1136554500    0.0027176615    
0.0077305589    0.1001745300    0.0025027996    
0.0079532199    0.0986944560    0.0024498162    
0.0081758809    0.0910614070    0.0023750660    
0.0083985419    0.0835271090    0.0021215907    
0.0086212029    0.0783538300    0.0020548401    
0.0088438639    0.0735474210    0.0019748277    
0.0090665249    0.0666290880    0.0018154323    
0.0092891859    0.0634267540    0.0018487758    
0.0095118469    0.0614486920    0.0017499720    
0.0097345079    0.0578682330    0.0016493438    
0.0099571689    0.0513579580    0.0015217590    
0.0101798300    0.0493739900    0.0014920768    
0.0104024910    0.0508766060    0.0015094856    
0.0106251520    0.0455864130    0.0014337051    
0.0108478130    0.0457566010    0.0013988201    
0.0110704740    0.0463980580    0.0013410740    
0.0112931350    0.0424210910    0.0012860782    
0.0115157960    0.0415424640    0.0012652690    
0.0117384570    0.0392774010    0.0012197009    
0.0119611180    0.0361128040    0.0011728893    
0.0121837790    0.0356087050    0.0011450988    
0.0124064400    0.0355763980    0.0010968673    
0.0126291010    0.0351201170    0.0010761707    
0.0128517620    0.0342683390    0.0010656946    
0.0130744230    0.0332721410    0.0010423022    
0.0132970840    0.0342732040    0.0010526931    
0.0135197450    0.0306912740    0.0009819009    
0.0137424060    0.0314310260    0.0009798303    
0.0139650670    0.0304844010    0.0009434685    
0.0141877280    0.0297101010    0.0009334679    
0.0144103890    0.0301390120    0.0009239707    
0.0146330500    0.0290023880    0.0009006258    
0.0148557110    0.0278444910    0.0008787643    
0.0150783720    0.0288045590    0.0008863990    
0.0153010330    0.0274412590    0.0008529702    
0.0155236940    0.0258321300    0.0008226626    
0.0157463550    0.0273987720    0.0008325626    
0.0159690160    0.0259358480    0.0008069568    
0.0161916770    0.0256444420    0.0007978901    
0.0164143380    0.0247239330    0.0007893744    
0.0166369990    0.0243591300    0.0007593711    
0.0168596600    0.0261877450    0.0007804209    
0.0170823210    0.0245019970    0.0007483488    
0.0173049820    0.0251143020    0.0007589515    
0.0175276430    0.0248738520    0.0007632746    
0.0177503040    0.0241778890    0.0007333370    
0.0179729650    0.0259028820    0.0007515188    
0.0181956260    0.0244787450    0.0007165619    
0.0184182870    0.0238121960    0.0007034078    
0.0186409480    0.0234833100    0.0007029545    
0.0188636090    0.0242070050    0.0007092153    
0.0190862700    0.0227642670    0.0006866807    
0.0193089310    0.0228585500    0.0006870287    
0.0195315920    0.0232185370    0.0006688694    
0.0197542530    0.0230736660    0.0006677508    
0.0199769140    0.0224746090    0.0006590256    
0.0201995750    0.0231431210    0.0006582831    
0.0204222360    0.0228755020    0.0006600839    
0.0206448970    0.0238471260    0.0006691665    
0.0208675580    0.0222266760    0.0006327278    
0.0210902190    0.0225842280    0.0006439508    
0.0213128800    0.0222613570    0.0006306561    
0.0215355410    0.0229900270    0.0006332596    
0.0217582020    0.0217166880    0.0006154729    
0.0219808630    0.0217988760    0.0006158268    
0.0222035240    0.0210468530    0.0005996279    
0.0224261850    0.0208416860    0.0005913874    
0.0226488460    0.0214720400    0.0005957564    
0.0228715070    0.0218424690    0.0005993806    
0.0230941680    0.0211023340    0.0005891382    
0.0233168290    0.0211910610    0.0005918460    
0.0235394900    0.0217120780    0.0005924659    
0.0237621510    0.0200689300    0.0005542719    
0.0239848120    0.0209132590    0.0005664659    
0.0242074730    0.0211535570    0.0005651508    
0.0244301340    0.0204603270    0.0005564475    
0.0246527950    0.0208409930    0.0005668003    
0.0248754560    0.0214613680    0.0005622476    
0.0250981170    0.0216015740    0.0005653390    
0.0253207780    0.0208600630    0.0005389639    
0.0255434390    0.0216348680    0.0005547402    
0.0257661000    0.0213312560    0.0005526158    
0.0259887610    0.0213147100    0.0005465310    
0.0262114220    0.0210183970    0.0005456104    
0.0264340830    0.0216905910    0.0005467251    
0.0266567440    0.0200895100    0.0005229091    
0.0268794050    0.0209383500    0.0005316631    
0.0271020660    0.0211708860    0.0005324430    
0.0273247270    0.0213671880    0.0005316932    
0.0275473880    0.0208737260    0.0005244721    
0.0277700490    0.0208620860    0.0005212265    
0.0279927100    0.0206531830    0.0005140853    
0.0282153710    0.0210483060    0.0005215028    
0.0284380320    0.0200897720    0.0005065364    
0.0286606930    0.0202243930    0.0005038807    
0.0288833540    0.0206919540    0.0005106401    
0.0291060150    0.0204388790    0.0005070262    
0.0293286760    0.0196041840    0.0004896458    
0.0295513370    0.0203760340    0.0004937559    
0.0297739980    0.0204480540    0.0005000735    
0.0299966590    0.0200036540    0.0004861618    
0.0302193200    0.0201652440    0.0004952349    
0.0304419810    0.0194826820    0.0004876770    
0.0306646420    0.0201391430    0.0004818308    
0.0308873030    0.0215540980    0.0004963168    
0.0311099640    0.0200578710    0.0004800237    
0.0313326250    0.0200091460    0.0004741291    
0.0315552860    0.0208078040    0.0004897649    
0.0317779470    0.0199202300    0.0004796228    
0.0320006080    0.0201282390    0.0004711664    
0.0322232690    0.0200857990    0.0004726397    
0.0324459300    0.0200280510    0.0004684364    
0.0326685910    0.0198856310    0.0004659984    
0.0328912520    0.0195888420    0.0004640395    
0.0331139130    0.0202925770    0.0004661574    
0.0333365740    0.0191311970    0.0004540911    
0.0335592350    0.0201182590    0.0004611806    
0.0337818960    0.0207300930    0.0004677680    
0.0340045570    0.0203381280    0.0004625887    
0.0342272170    0.0200631720    0.0004576389    
0.0344498780    0.0206432770    0.0004660464    
0.0346725390    0.0197945190    0.0004479132    
0.0348952000    0.0204381330    0.0004530634    
0.0351178610    0.0198553570    0.0004486013    
0.0353405220    0.0196246490    0.0004439557    
0.0355631830    0.0199854660    0.0004463310    
0.0357858440    0.0201250280    0.0004478869    
0.0360085050    0.0203170230    0.0004513780    
0.0362311660    0.0206984910    0.0004501800    
0.0364538270    0.0199051080    0.0004379246    
0.0366764880    0.0196164740    0.0004344225    
0.0368991490    0.0196858630    0.0004329963    
0.0371218100    0.0195165690    0.0004298971    
0.0373444710    0.0201374890    0.0004414376    
0.0375671320    0.0198569580    0.0004377136    
0.0377897930    0.0202521400    0.0004306043    
0.0380124540    0.0200064520    0.0004306697    
0.0382351150    0.0208130280    0.0004392655    
0.0384577760    0.0195222460    0.0004213216    
0.0386804370    0.0199229000    0.0004288712    
0.0389030980    0.0197132220    0.0004233777    
0.0391257590    0.0206574000    0.0004304559    
0.0393484200    0.0205542260    0.0004279345    
0.0395710810    0.0201719000    0.0004245070    
0.0397937420    0.0201808470    0.0004246013    
0.0400164030    0.0195798380    0.0004199323    
0.0402390640    0.0195791850    0.0004143337    
0.0404617250    0.0204319760    0.0004207639    
0.0406843860    0.0205574660    0.0004179763    
0.0409070470    0.0194609730    0.0004109130    
0.0411297080    0.0199712190    0.0004122380    
0.0413523690    0.0198262690    0.0004117980    
0.0415750300    0.0197817660    0.0004148297    
0.0417976910    0.0198531500    0.0004048293    
0.0420203520    0.0205598700    0.0004135196    
0.0422430130    0.0200202830    0.0004096021    
0.0424656740    0.0196739650    0.0004007591    
0.0426883350    0.0194739950    0.0004006961    
0.0429109960    0.0194382450    0.0004015789    
0.0431336570    0.0197652980    0.0003992379    
0.0433563180    0.0191151080    0.0003960033    
0.0435789790    0.0196160540    0.0003948563    
0.0438016400    0.0197015050    0.0003978681    
0.0440243010    0.0193903450    0.0003907089    
0.0442469620    0.0195437450    0.0003946017    
0.0444696230    0.0192535340    0.0003902565    
0.0446922840    0.0201379960    0.0003979344    
0.0449149450    0.0193046430    0.0003844052    
0.0451376060    0.0192117540    0.0003882153    
0.0453602670    0.0193487380    0.0003855126    
0.0455829280    0.0198787690    0.0003903054    
0.0458055890    0.0191576670    0.0003853952    
0.0460282500    0.0200832110    0.0003898367    
0.0462509110    0.0199612150    0.0003862336    
0.0464735720    0.0198939790    0.0003858002    
0.0466962330    0.0197053160    0.0003857120    
0.0469188940    0.0192484200    0.0003801334    
0.0471415550    0.0204174620    0.0003935177    
0.0473642160    0.0196506090    0.0003806514    
0.0475868770    0.0201201970    0.0003832592    
0.0478095380    0.0197635730    0.0003781853    
0.0480321990    0.0192905980    0.0003744512    
0.0482548600    0.0194687240    0.0003745371    
0.0484775210    0.0196955720    0.0003804532    
0.0487001820    0.0193729090    0.0003718005    
0.0489228430    0.0194233730    0.0003720844    
0.0491455040    0.0196898720    0.0003720372    
0.0493681650    0.0198223600    0.0003764946    
0.0495908260    0.0194996450    0.0003671345    
0.0498134870    0.0197740400    0.0003732280    
0.0500361480    0.0191860390    0.0003666643    
0.0502588090    0.0197644080    0.0003665737    
0.0504814700    0.0199216950    0.0003728406    
0.0507041310    0.0197165020    0.0003665056    
0.0509267920    0.0198524950    0.0003692888    
0.0511494530    0.0192768340    0.0003614689    
0.0513721140    0.0196454490    0.0003681222    
0.0515947750    0.0193697420    0.0003606834    
0.0518174360    0.0199333630    0.0003636894    
0.0520400970    0.0197298790    0.0003593195    
0.0522627580    0.0194809590    0.0003600800    
0.0524854190    0.0196028700    0.0003641417    
0.0527080800    0.0202648070    0.0003731053    
0.0529307410    0.0198592700    0.0003710879    
0.0531534020    0.0198181880    0.0003693543    
0.0533760630    0.0193328950    0.0003659460    
0.0535987240    0.0201958690    0.0003722780    
0.0538213850    0.0197606810    0.0003725117    
0.0540440460    0.0191567250    0.0003650390    
0.0542667070    0.0197037640    0.0003727657    
0.0544893680    0.0196965280    0.0003728959    
0.0547120290    0.0198453790    0.0003717380    
0.0549346900    0.0195525890    0.0003691797    
0.0551573510    0.0198087050    0.0003759641    
0.0553800120    0.0196136360    0.0003709279    
0.0556026730    0.0196387380    0.0003788609    
0.0558253340    0.0202737050    0.0003881602    
0.0560479950    0.0189954700    0.0003757246    
0.0562706560    0.0194857620    0.0003842217    
0.0564933170    0.0198256500    0.0003909237    
0.0567159780    0.0193229960    0.0003813089    
0.0569386390    0.0203375770    0.0003973274    
0.0571613000    0.0194860610    0.0003805465    
0.0573839610    0.0196096600    0.0003785818    
0.0576066220    0.0200711510    0.0003840709    
0.0578292830    0.0196830150    0.0003790807    
0.0580519440    0.0194092170    0.0003778945    
0.0582746050    0.0189831700    0.0003720760    
0.0584972660    0.0190841820    0.0003716366    
0.0587199270    0.0187067870    0.0003647719    
0.0589425880    0.0195571360    0.0003707889    
0.0591652490    0.0195034670    0.0003724587    
0.0593879100    0.0190817080    0.0003656734    
0.0596105710    0.0195729260    0.0003699596    
0.0598332320    0.0199160760    0.0003763785    
0.0600558930    0.0190028130    0.0003653036    
0.0602785540    0.0195442930    0.0003700801    
0.0605012150    0.0193713060    0.0003676624    
0.0607238760    0.0195094860    0.0003662825    
0.0609465370    0.0193498470    0.0003676526    
0.0611691980    0.0188716410    0.0003636566    
0.0613918590    0.0197849420    0.0003682872    
0.0616145200    0.0195052040    0.0003683507    
0.0618371810    0.0193285580    0.0003630777    
0.0620598420    0.0193821010    0.0003639550    
0.0622825030    0.0195990190    0.0003715829    
0.0625051640    0.0187167990    0.0003580237    
0.0627278250    0.0193559240    0.0003633354    
0.0629504860    0.0198476690    0.0003649307    
0.0631731470    0.0195509830    0.0003666740    
0.0633958080    0.0192688650    0.0003661139    
0.0636184690    0.0203242290    0.0003812432    
0.0638411300    0.0191285530    0.0003684705    
0.0640637910    0.0189235100    0.0003690680    
0.0642864520    0.0195512200    0.0003743274    
0.0645091130    0.0193484010    0.0003756440    
0.0647317740    0.0192668330    0.0003752646    
0.0649544350    0.0189035700    0.0003713012    
0.0651770960    0.0195996070    0.0003760127    
0.0653997570    0.0199671840    0.0003786992    
0.0656224180    0.0195996520    0.0003760136    
0.0658450790    0.0197480670    0.0003720095    
0.0660677400    0.0196126100    0.0003723093    
0.0662904010    0.0196856240    0.0003774546    
0.0665130620    0.0200676610    0.0003794465    
0.0667357230    0.0198437250    0.0003840321    
0.0669583840    0.0194970710    0.0003793894    
0.0671810450    0.0197861490    0.0003800814    
0.0674037060    0.0197449260    0.0003861177    
0.0676263670    0.0192187690    0.0003781493    
0.0678490280    0.0193592540    0.0003772078    
0.0680716890    0.0199327550    0.0003836061    
0.0682943500    0.0194551840    0.0003748319    
0.0685170110    0.0199097340    0.0003753215    
0.0687396720    0.0197477790    0.0003727987    
0.0689623330    0.0198745710    0.0003728084    
0.0691849940    0.0193213490    0.0003701299    
0.0694076550    0.0196973690    0.0003735147    
0.0696303160    0.0199931970    0.0003733298    
0.0698529770    0.0196387450    0.0003692302    
0.0700756380    0.0193813150    0.0003620937    
0.0702982990    0.0194186200    0.0003663891    
0.0705209600    0.0200045590    0.0003691909    
0.0707436210    0.0191461330    0.0003595241    
0.0709662820    0.0196053450    0.0003681471    
0.0711889430    0.0195111260    0.0003627506    
0.0714116040    0.0183922580    0.0003529150    
0.0716342650    0.0199157230    0.0003657495    
0.0718569260    0.0188228090    0.0003541402    
0.0720795870    0.0194724550    0.0003616568    
0.0723022480    0.0192421370    0.0003600594    
0.0725249090    0.0196850690    0.0003598186    
0.0727475700    0.0202502350    0.0003680644    
0.0729702310    0.0191450630    0.0003550255    
0.0731928920    0.0190263130    0.0003553373    
0.0734155530    0.0199749880    0.0003633618    
0.0736382140    0.0194910430    0.0003566297    
0.0738608750    0.0197503040    0.0003613129    
0.0740835360    0.0197773270    0.0003606624    
0.0743061970    0.0190069060    0.0003485892    
0.0745288580    0.0193997910    0.0003557948    
0.0747515190    0.0195878650    0.0003582214    
0.0749741800    0.0192011900    0.0003513850    
0.0751968410    0.0199937780    0.0003613792    
0.0754195020    0.0192502050    0.0003525182    
0.0756421630    0.0194447980    0.0003513993    
0.0758648240    0.0197744930    0.0003552177    
0.0760874850    0.0197618810    0.0003549339    
0.0763101460    0.0195903630    0.0003530512    
0.0765328070    0.0192790460    0.0003538184    
0.0767554680    0.0191207820    0.0003499721    
0.0769781290    0.0190409680    0.0003472340    
0.0772007900    0.0198770500    0.0003519302    
0.0774234510    0.0197887050    0.0003531446    
0.0776461120    0.0197008610    0.0003520257    
0.0778687730    0.0195459160    0.0003494803    
0.0780914340    0.0201368160    0.0003572582    
0.0783140950    0.0198528170    0.0003491018    
0.0785367560    0.0200925040    0.0003568654    
0.0787594170    0.0201822920    0.0003544573    
0.0789820780    0.0195385200    0.0003469713    
0.0792047390    0.0200696180    0.0003528051    
0.0794274000    0.0199085530    0.0003528754    
0.0796500610    0.0189637110    0.0003410386    
0.0798727220    0.0193266360    0.0003439687    
0.0800953830    0.0197558120    0.0003469672    
0.0803180440    0.0194697360    0.0003468453    
0.0805407050    0.0198344230    0.0003497531    
0.0807633660    0.0194590400    0.0003461060    
0.0809860270    0.0190100610    0.0003408266    
0.0812086880    0.0198119450    0.0003449340    
0.0814313490    0.0194537000    0.0003433600    
0.0816540100    0.0187438450    0.0003362700    
0.0818766710    0.0191992210    0.0003411073    
0.0820993320    0.0197270980    0.0003451347    
0.0823219930    0.0197379550    0.0003466536    
0.0825446540    0.0198661890    0.0003452510    
0.0827673150    0.0193515250    0.0003384603    
0.0829899760    0.0191824100    0.0003363782    
0.0832126370    0.0198902770    0.0003440627    
0.0834352980    0.0199910320    0.0003441618    
0.0836579590    0.0195659090    0.0003397248    
0.0838806200    0.0190059530    0.0003358760    
0.0841032810    0.0192514170    0.0003359395    
0.0843259420    0.0189873740    0.0003326004    
0.0845486030    0.0200186300    0.0003415134    
0.0847712640    0.0195854520    0.0003357396    
0.0849939250    0.0196826000    0.0003371574    
0.0852165860    0.0196241800    0.0003370977    
0.0854392470    0.0197258140    0.0003347689    
0.0856619080    0.0190315620    0.0003312468    
0.0858845690    0.0197604090    0.0003344901    
0.0861072300    0.0197758570    0.0003369308    
0.0863298910    0.0193048230    0.0003346372    
0.0865525520    0.0192351140    0.0003311481    
0.0867752130    0.0190886200    0.0003272228    
0.0869978740    0.0193890080    0.0003306279    
0.0872205350    0.0197558520    0.0003333164    
0.0874431960    0.0189854430    0.0003267529    
0.0876658570    0.0196528700    0.0003337232    
0.0878885180    0.0194701210    0.0003327375    
0.0881111790    0.0194882460    0.0003324652    
0.0883338400    0.0197422870    0.0003297258    
0.0885565010    0.0197552300    0.0003343066    
0.0887791620    0.0196044380    0.0003287097    
0.0890018230    0.0199079250    0.0003344571    
0.0892244840    0.0191863410    0.0003288980    
0.0894471450    0.0193376670    0.0003287977    
0.0896698060    0.0196414830    0.0003301206    
0.0898924670    0.0195215940    0.0003306371    
0.0901151280    0.0199898600    0.0003309652    
0.0903377890    0.0190777780    0.0003260325    
0.0905604500    0.0190797380    0.0003245529    
0.0907831110    0.0198089220    0.0003298739    
0.0910057720    0.0196363370    0.0003299409    
0.0912284330    0.0197351860    0.0003260344    
0.0914510940    0.0199960530    0.0003318418    
0.0916737550    0.0191955240    0.0003243246    
0.0918964160    0.0191952810    0.0003256714    
0.0921190770    0.0191644390    0.0003224674    
0.0923417380    0.0196091680    0.0003263213    
0.0925643990    0.0193295810    0.0003231938    
0.0927870600    0.0193794770    0.0003249377    
0.0930097210    0.0190186420    0.0003191569    
0.0932323820    0.0197558080    0.0003276745    
