# Diamond Light Source Ltd.
# Data extracted from: /dls/b21/data/2018/cm19678-3/processed/b21-386631_00126.dat
q(1/A)          Column          Error           
0.0035000000    2.1073023000    0.0247064500    
0.0037226610    1.8954135000    0.0229380880    
0.0039453220    1.6090512000    0.0192263480    
0.0041679830    1.3045640000    0.0142170450    
0.0043906440    0.9735409500    0.0117473280    
0.0046133050    0.7945076300    0.0101876700    
0.0048359660    0.5976168100    0.0083576641    
0.0050586270    0.4631968000    0.0072321549    
0.0052812880    0.4419302800    0.0066790683    
0.0055039490    0.3941688700    0.0059977827    
0.0057266100    0.3161160300    0.0051962133    
0.0059492710    0.2658074000    0.0047648284    
0.0061719320    0.2198548600    0.0041757977    
0.0063945930    0.2062866000    0.0040939230    
0.0066172539    0.1833915100    0.0036245930    
0.0068399149    0.1644054100    0.0033777972    
0.0070625759    0.1430348900    0.0031183088    
0.0072852369    0.1284961000    0.0029113572    
0.0075078979    0.1190718100    0.0027887887    
0.0077305589    0.0989913370    0.0024943472    
0.0079532199    0.0960834520    0.0024233845    
0.0081758809    0.0896605360    0.0023627626    
0.0083985419    0.0854179740    0.0021509654    
0.0086212029    0.0744766850    0.0020084868    
0.0088438639    0.0720592100    0.0019597522    
0.0090665249    0.0640871570    0.0017850260    
0.0092891859    0.0643478860    0.0018669215    
0.0095118469    0.0621646030    0.0017646447    
0.0097345079    0.0579760410    0.0016551077    
0.0099571689    0.0562895070    0.0015972270    
0.0101798300    0.0529357130    0.0015489141    
0.0104024910    0.0482565650    0.0014738694    
0.0106251520    0.0474064860    0.0014657906    
0.0108478130    0.0467219910    0.0014171198    
0.0110704740    0.0440256640    0.0013096845    
0.0112931350    0.0425994800    0.0012920804    
0.0115157960    0.0436922500    0.0013009178    
0.0117384570    0.0396311370    0.0012283190    
0.0119611180    0.0380976140    0.0012077755    
0.0121837790    0.0357173180    0.0011497811    
0.0124064400    0.0368126020    0.0011186192    
0.0126291010    0.0343390220    0.0010668615    
0.0128517620    0.0342109220    0.0010675287    
0.0130744230    0.0339022650    0.0010548205    
0.0132970840    0.0311665890    0.0010064216    
0.0135197450    0.0309118410    0.0009879467    
0.0137424060    0.0332808400    0.0010108335    
0.0139650670    0.0309342500    0.0009528385    
0.0141877280    0.0309237390    0.0009547821    
0.0144103890    0.0301797110    0.0009269624    
0.0146330500    0.0305285830    0.0009263855    
0.0148557110    0.0279036790    0.0008819509    
0.0150783720    0.0281297900    0.0008781987    
0.0153010330    0.0280350440    0.0008643574    
0.0155236940    0.0260962900    0.0008289760    
0.0157463550    0.0253778610    0.0008033221    
0.0159690160    0.0274316230    0.0008320257    
0.0161916770    0.0246281560    0.0007839228    
0.0164143380    0.0267253150    0.0008228044    
0.0166369990    0.0254596250    0.0007783234    
0.0168596600    0.0241012850    0.0007506040    
0.0170823210    0.0252479550    0.0007616008    
0.0173049820    0.0260730250    0.0007752827    
0.0175276430    0.0254251840    0.0007736637    
0.0177503040    0.0238324040    0.0007299435    
0.0179729650    0.0234496980    0.0007168782    
0.0181956260    0.0235922960    0.0007052696    
0.0184182870    0.0230153850    0.0006933100    
0.0186409480    0.0243863180    0.0007181772    
0.0188636090    0.0238090350    0.0007051628    
0.0190862700    0.0235889010    0.0007007978    
0.0193089310    0.0238475030    0.0007035304    
0.0195315920    0.0231826870    0.0006700646    
0.0197542530    0.0227841120    0.0006652473    
0.0199769140    0.0227646970    0.0006649639    
0.0201995750    0.0223772710    0.0006489574    
0.0204222360    0.0224950680    0.0006562486    
0.0206448970    0.0238750710    0.0006712733    
0.0208675580    0.0219242790    0.0006300184    
0.0210902190    0.0220172160    0.0006374442    
0.0213128800    0.0221780000    0.0006310865    
0.0215355410    0.0232482050    0.0006384364    
0.0217582020    0.0212494990    0.0006103759    
0.0219808630    0.0216658710    0.0006155176    
0.0222035240    0.0216527650    0.0006097556    
0.0224261850    0.0222473290    0.0006125696    
0.0226488460    0.0213661830    0.0005958082    
0.0228715070    0.0218553080    0.0006010924    
0.0230941680    0.0218387850    0.0006008652    
0.0233168290    0.0220972460    0.0006059159    
0.0235394900    0.0214334460    0.0005901598    
0.0237621510    0.0216028200    0.0005765366    
0.0239848120    0.0215757250    0.0005768415    
0.0242074730    0.0215807580    0.0005722910    
0.0244301340    0.0208542780    0.0005632179    
0.0246527950    0.0220014790    0.0005838586    
0.0248754560    0.0219563840    0.0005701515    
0.0250981170    0.0206564940    0.0005542497    
0.0253207780    0.0209250650    0.0005411856    
0.0255434390    0.0205877720    0.0005425354    
0.0257661000    0.0209514140    0.0005490762    
0.0259887610    0.0211423240    0.0005457106    
0.0262114220    0.0202435700    0.0005368306    
0.0264340830    0.0210815790    0.0005403757    
0.0266567440    0.0196863680    0.0005189616    
0.0268794050    0.0220905680    0.0005474944    
0.0271020660    0.0204719020    0.0005249206    
0.0273247270    0.0203464250    0.0005201665    
0.0275473880    0.0212192060    0.0005301489    
0.0277700490    0.0201575510    0.0005136619    
0.0279927100    0.0214150710    0.0005248224    
0.0282153710    0.0207406710    0.0005190036    
0.0284380320    0.0202826740    0.0005102660    
0.0286606930    0.0209211860    0.0005137999    
0.0288833540    0.0209880780    0.0005155982    
0.0291060150    0.0206574910    0.0005110361    
0.0293286760    0.0197907820    0.0004932306    
0.0295513370    0.0208172760    0.0005003517    
0.0297739980    0.0204300090    0.0005011330    
0.0299966590    0.0203556510    0.0004916767    
0.0302193200    0.0195840850    0.0004892964    
0.0304419810    0.0210304470    0.0005079759    
0.0306646420    0.0202308500    0.0004841635    
0.0308873030    0.0200219960    0.0004795774    
0.0311099640    0.0205879810    0.0004875712    
0.0313326250    0.0201456510    0.0004769621    
0.0315552860    0.0204626360    0.0004869296    
0.0317779470    0.0203590100    0.0004861182    
0.0320006080    0.0195109040    0.0004650729    
0.0322232690    0.0203117860    0.0004765085    
0.0324459300    0.0197893900    0.0004668296    
0.0326685910    0.0198668880    0.0004669717    
0.0328912520    0.0210593900    0.0004823745    
0.0331139130    0.0212254410    0.0004779729    
0.0333365740    0.0202259960    0.0004680990    
0.0335592350    0.0203489590    0.0004650052    
0.0337818960    0.0198922020    0.0004593907    
0.0340045570    0.0208866140    0.0004699855    
0.0342272170    0.0195260500    0.0004526278    
0.0344498780    0.0202521080    0.0004627920    
0.0346725390    0.0194783620    0.0004454598    
0.0348952000    0.0205328660    0.0004552753    
0.0351178610    0.0201609440    0.0004531980    
0.0353405220    0.0208761160    0.0004590653    
0.0355631830    0.0194066850    0.0004409472    
0.0357858440    0.0201380800    0.0004491796    
0.0360085050    0.0198164550    0.0004469245    
0.0362311660    0.0205783030    0.0004500208    
0.0364538270    0.0201137260    0.0004413410    
0.0366764880    0.0201232270    0.0004411249    
0.0368991490    0.0194326420    0.0004313043    
0.0371218100    0.0194453450    0.0004302110    
0.0373444710    0.0192778540    0.0004330189    
0.0375671320    0.0201042770    0.0004415591    
0.0377897930    0.0199971150    0.0004289804    
0.0380124540    0.0192331380    0.0004233458    
0.0382351150    0.0200718050    0.0004324776    
0.0384577760    0.0204357860    0.0004321708    
0.0386804370    0.0190878590    0.0004208623    
0.0389030980    0.0202530250    0.0004302343    
0.0391257590    0.0201322470    0.0004260376    
0.0393484200    0.0198447260    0.0004215608    
0.0395710810    0.0200329200    0.0004241256    
0.0397937420    0.0194313170    0.0004177088    
0.0400164030    0.0202686800    0.0004283497    
0.0402390640    0.0204639710    0.0004246771    
0.0404617250    0.0193435840    0.0004104523    
0.0406843860    0.0192364050    0.0004053589    
0.0409070470    0.0197003220    0.0004144911    
0.0411297080    0.0200907580    0.0004145289    
0.0413523690    0.0202288550    0.0004170233    
0.0415750300    0.0201105650    0.0004193343    
0.0417976910    0.0200047620    0.0004074129    
0.0420203520    0.0202807740    0.0004117552    
0.0422430130    0.0193648820    0.0004038735    
0.0424656740    0.0203164260    0.0004082931    
0.0426883350    0.0197727660    0.0004047923    
0.0429109960    0.0199799040    0.0004081784    
0.0431336570    0.0200044690    0.0004026748    
0.0433563180    0.0202026690    0.0004081555    
0.0435789790    0.0194690090    0.0003943811    
0.0438016400    0.0196652610    0.0003985201    
0.0440243010    0.0199487540    0.0003973099    
0.0442469620    0.0189713010    0.0003897755    
0.0444696230    0.0190899090    0.0003895900    
0.0446922840    0.0196643160    0.0003942336    
0.0449149450    0.0199037510    0.0003913242    
0.0451376060    0.0188450780    0.0003854775    
0.0453602670    0.0194943020    0.0003879511    
0.0455829280    0.0202118080    0.0003945693    
0.0458055890    0.0193260620    0.0003880767    
0.0460282500    0.0196157710    0.0003862600    
0.0462509110    0.0194551530    0.0003822828    
0.0464735720    0.0192966450    0.0003809373    
0.0466962330    0.0190626970    0.0003803422    
0.0469188940    0.0194603310    0.0003831992    
0.0471415550    0.0199199360    0.0003896891    
0.0473642160    0.0197365750    0.0003824602    
0.0475868770    0.0194822610    0.0003781004    
0.0478095380    0.0195448910    0.0003770504    
0.0480321990    0.0198498040    0.0003808127    
0.0482548600    0.0192571630    0.0003734506    
0.0484775210    0.0199886480    0.0003842550    
0.0487001820    0.0194651010    0.0003736386    
0.0489228430    0.0189856660    0.0003688102    
0.0491455040    0.0197414030    0.0003734778    
0.0493681650    0.0193993340    0.0003734095    
0.0495908260    0.0199817870    0.0003725975    
0.0498134870    0.0202294960    0.0003784687    
0.0500361480    0.0196647810    0.0003721615    
0.0502588090    0.0192917430    0.0003630915    
0.0504814700    0.0203184460    0.0003774994    
0.0507041310    0.0196669760    0.0003669825    
0.0509267920    0.0194226640    0.0003662047    
0.0511494530    0.0198389780    0.0003676407    
0.0513721140    0.0198502110    0.0003709834    
0.0515947750    0.0194488380    0.0003623448    
0.0518174360    0.0192485850    0.0003583032    
0.0520400970    0.0196403280    0.0003594213    
0.0522627580    0.0199287450    0.0003651276    
0.0524854190    0.0202541310    0.0003710892    
0.0527080800    0.0197887540    0.0003696412    
0.0529307410    0.0198287060    0.0003717519    
0.0531534020    0.0192279350    0.0003647442    
0.0533760630    0.0189655730    0.0003633812    
0.0535987240    0.0196924710    0.0003685506    
0.0538213850    0.0201443660    0.0003770740    
0.0540440460    0.0202547860    0.0003763166    
0.0542667070    0.0195496450    0.0003722560    
0.0544893680    0.0191518250    0.0003686453    
0.0547120290    0.0199611650    0.0003737758    
0.0549346900    0.0200872700    0.0003751518    
0.0551573510    0.0198529260    0.0003773475    
0.0553800120    0.0195591160    0.0003713607    
0.0556026730    0.0197321190    0.0003807332    
0.0558253340    0.0197054060    0.0003836613    
0.0560479950    0.0190555500    0.0003772821    
0.0562706560    0.0199359940    0.0003896306    
0.0564933170    0.0200435530    0.0003940728    
0.0567159780    0.0206548940    0.0003952411    
0.0569386390    0.0205199120    0.0004001268    
0.0571613000    0.0193917890    0.0003805972    
0.0573839610    0.0197690090    0.0003810904    
0.0576066220    0.0194649380    0.0003791951    
0.0578292830    0.0198573520    0.0003817310    
0.0580519440    0.0200634140    0.0003851944    
0.0582746050    0.0205539080    0.0003881552    
0.0584972660    0.0200040510    0.0003814623    
0.0587199270    0.0195462650    0.0003738217    
0.0589425880    0.0192405540    0.0003687175    
0.0591652490    0.0195820530    0.0003741642    
0.0593879100    0.0192500140    0.0003682233    
0.0596105710    0.0193007950    0.0003683197    
0.0598332320    0.0191960490    0.0003704586    
0.0600558930    0.0196720180    0.0003726322    
0.0602785540    0.0207926390    0.0003826938    
0.0605012150    0.0195898990    0.0003706779    
0.0607238760    0.0196095500    0.0003681611    
0.0609465370    0.0200950560    0.0003756249    
0.0611691980    0.0196234900    0.0003717797    
0.0613918590    0.0200380140    0.0003715844    
0.0616145200    0.0202065490    0.0003758748    
0.0618371810    0.0194276950    0.0003649399    
0.0620598420    0.0193853410    0.0003649177    
0.0622825030    0.0195933270    0.0003724806    
0.0625051640    0.0196044090    0.0003673531    
0.0627278250    0.0194072150    0.0003647483    
0.0629504860    0.0193762080    0.0003614939    
0.0631731470    0.0199830440    0.0003716530    
0.0633958080    0.0195424940    0.0003696486    
0.0636184690    0.0194868370    0.0003742627    
0.0638411300    0.0199900240    0.0003776411    
0.0640637910    0.0199683420    0.0003800909    
0.0642864520    0.0190175790    0.0003701291    
0.0645091130    0.0191470920    0.0003746418    
0.0647317740    0.0198358360    0.0003817409    
0.0649544350    0.0188685790    0.0003719075    
0.0651770960    0.0191708330    0.0003728295    
0.0653997570    0.0194559580    0.0003747773    
0.0656224180    0.0198524440    0.0003793999    
0.0658450790    0.0201874560    0.0003770887    
0.0660677400    0.0197132040    0.0003742189    
0.0662904010    0.0195319850    0.0003769417    
0.0665130620    0.0194133810    0.0003741654    
0.0667357230    0.0200426170    0.0003869404    
0.0669583840    0.0196786950    0.0003821286    
0.0671810450    0.0194546540    0.0003778493    
0.0674037060    0.0195046770    0.0003847443    
0.0676263670    0.0186143500    0.0003731087    
0.0678490280    0.0200126070    0.0003845025    
0.0680716890    0.0193523170    0.0003789476    
0.0682943500    0.0193226910    0.0003745101    
0.0685170110    0.0202465320    0.0003794521    
0.0687396720    0.0190002100    0.0003666109    
0.0689623330    0.0203349890    0.0003780678    
0.0691849940    0.0192779140    0.0003706606    
0.0694076550    0.0191932680    0.0003696485    
0.0696303160    0.0195351920    0.0003699741    
0.0698529770    0.0193277970    0.0003672337    
0.0700756380    0.0193379320    0.0003626146    
0.0702982990    0.0196085490    0.0003691195    
0.0705209600    0.0197373450    0.0003676561    
0.0707436210    0.0192171910    0.0003611131    
0.0709662820    0.0203382140    0.0003759252    
0.0711889430    0.0199298050    0.0003675610    
0.0714116040    0.0193986700    0.0003633704    
0.0716342650    0.0198423350    0.0003660100    
0.0718569260    0.0192743000    0.0003592801    
0.0720795870    0.0194710580    0.0003625701    
0.0723022480    0.0193408300    0.0003619062    
0.0725249090    0.0202025120    0.0003654506    
0.0727475700    0.0189420210    0.0003568888    
0.0729702310    0.0195741270    0.0003599012    
0.0731928920    0.0194507470    0.0003601990    
0.0734155530    0.0194197080    0.0003591934    
0.0736382140    0.0197746580    0.0003601350    
0.0738608750    0.0197851670    0.0003625579    
0.0740835360    0.0194490620    0.0003585728    
0.0743061970    0.0193485800    0.0003526093    
0.0745288580    0.0194992930    0.0003576197    
0.0747515190    0.0195237140    0.0003585503    
0.0749741800    0.0198684520    0.0003583539    
0.0751968410    0.0192691010    0.0003556783    
0.0754195020    0.0199523770    0.0003598091    
0.0756421630    0.0195828280    0.0003535475    
0.0758648240    0.0192666200    0.0003515245    
0.0760874850    0.0194916050    0.0003534012    
0.0763101460    0.0195821240    0.0003538810    
0.0765328070    0.0193061350    0.0003549738    
0.0767554680    0.0193411850    0.0003528849    
0.0769781290    0.0198642040    0.0003555693    
0.0772007900    0.0199288960    0.0003532915    
0.0774234510    0.0195291380    0.0003517194    
0.0776461120    0.0191823080    0.0003482516    
0.0778687730    0.0195393950    0.0003503169    
0.0780914340    0.0199597820    0.0003565953    
0.0783140950    0.0189674000    0.0003421022    
0.0785367560    0.0200108050    0.0003570513    
0.0787594170    0.0196976320    0.0003510724    
0.0789820780    0.0193724250    0.0003463782    
0.0792047390    0.0194993070    0.0003486469    
0.0794274000    0.0195831660    0.0003508762    
0.0796500610    0.0191781040    0.0003438394    
0.0798727220    0.0196657390    0.0003478619    
0.0800953830    0.0198693900    0.0003488543    
0.0803180440    0.0194950700    0.0003479599    
0.0805407050    0.0199113590    0.0003513283    
0.0807633660    0.0194412830    0.0003468341    
0.0809860270    0.0199121580    0.0003497130    
0.0812086880    0.0197204010    0.0003450176    
0.0814313490    0.0194560160    0.0003442599    
0.0816540100    0.0194766740    0.0003436584    
0.0818766710    0.0192367800    0.0003423153    
0.0820993320    0.0194641220    0.0003437046    
0.0823219930    0.0192211290    0.0003429612    
0.0825446540    0.0195037090    0.0003429629    
0.0827673150    0.0195757310    0.0003412872    
0.0829899760    0.0198855450    0.0003433650    
0.0832126370    0.0194120280    0.0003407717    
0.0834352980    0.0197719740    0.0003431476    
0.0836579590    0.0192986690    0.0003382610    
0.0838806200    0.0195807230    0.0003417901    
0.0841032810    0.0190967910    0.0003354447    
0.0843259420    0.0189617850    0.0003332275    
0.0845486030    0.0196938160    0.0003395990    
0.0847712640    0.0192578260    0.0003337723    
0.0849939250    0.0198822380    0.0003397309    
0.0852165860    0.0191835490    0.0003341453    
0.0854392470    0.0192559350    0.0003316048    
0.0856619080    0.0196854920    0.0003377524    
0.0858845690    0.0194520060    0.0003327196    
0.0861072300    0.0188848670    0.0003300965    
0.0863298910    0.0192464150    0.0003349863    
0.0865525520    0.0189956880    0.0003299235    
0.0867752130    0.0189666400    0.0003270110    
0.0869978740    0.0194487870    0.0003319853    
0.0872205350    0.0198176130    0.0003346920    
0.0874431960    0.0193824020    0.0003309968    
0.0876658570    0.0189904090    0.0003288906    
0.0878885180    0.0199929330    0.0003380388    
0.0881111790    0.0194798850    0.0003332452    
0.0883338400    0.0198656870    0.0003316018    
0.0885565010    0.0191059640    0.0003296092    
0.0887791620    0.0195720350    0.0003292791    
0.0890018230    0.0197558840    0.0003340308    
0.0892244840    0.0195964330    0.0003332457    
0.0894471450    0.0191615100    0.0003281350    
0.0896698060    0.0193797260    0.0003287534    
0.0898924670    0.0192558540    0.0003292200    
0.0901151280    0.0192607140    0.0003257051    
0.0903377890    0.0199428780    0.0003341965    
0.0905604500    0.0199211750    0.0003324817    
0.0907831110    0.0196454910    0.0003293517    
0.0910057720    0.0194082870    0.0003288596    
0.0912284330    0.0193870570    0.0003239737    
0.0914510940    0.0200377250    0.0003330383    
0.0916737550    0.0200540610    0.0003323472    
0.0918964160    0.0199435230    0.0003328083    
0.0921190770    0.0193281790    0.0003246714    
0.0923417380    0.0193112910    0.0003246627    
0.0925643990    0.0199447220    0.0003291369    
0.0927870600    0.0193364940    0.0003254085    
0.0930097210    0.0193530560    0.0003227752    
0.0932323820    0.0191469770    0.0003234121    
