# Diamond Light Source Ltd.
# Data extracted from: /dls/b21/data/2018/cm19678-3/processed/b21-386631_00125.dat
q(1/A)          Column          Error           
0.0035000000    2.0928175000    0.0246606650    
0.0037226610    1.9231866000    0.0231423860    
0.0039453220    1.6411531000    0.0194481640    
0.0041679830    1.3090400000    0.0142641310    
0.0043906440    0.9507683200    0.0116276380    
0.0046133050    0.7805320500    0.0101137770    
0.0048359660    0.5963589800    0.0083621814    
0.0050586270    0.4571991800    0.0071966414    
0.0052812880    0.4273412800    0.0065783749    
0.0055039490    0.3856309500    0.0059419323    
0.0057266100    0.3222664900    0.0052548883    
0.0059492710    0.2675986100    0.0047884820    
0.0061719320    0.2338443100    0.0043134724    
0.0063945930    0.2028698900    0.0040663537    
0.0066172539    0.1831146500    0.0036276332    
0.0068399149    0.1702910700    0.0034432111    
0.0070625759    0.1519482900    0.0032191279    
0.0072852369    0.1309577500    0.0029438000    
0.0075078979    0.1178793800    0.0027792156    
0.0077305589    0.0998748640    0.0025094504    
0.0079532199    0.1006210900    0.0024839036    
0.0081758809    0.0868236480    0.0023287916    
0.0083985419    0.0814523460    0.0021037919    
0.0086212029    0.0758555650    0.0020302277    
0.0088438639    0.0753369770    0.0020070246    
0.0090665249    0.0648902990    0.0017990413    
0.0092891859    0.0649880370    0.0018791776    
0.0095118469    0.0651772080    0.0018097799    
0.0097345079    0.0572605240    0.0016474864    
0.0099571689    0.0552871000    0.0015854663    
0.0101798300    0.0520135310    0.0015378123    
0.0104024910    0.0487719110    0.0014840820    
0.0106251520    0.0453754570    0.0014363350    
0.0108478130    0.0442839790    0.0013818516    
0.0110704740    0.0434236100    0.0013027734    
0.0112931350    0.0426961750    0.0012956093    
0.0115157960    0.0404899670    0.0012543351    
0.0117384570    0.0381536140    0.0012071269    
0.0119611180    0.0382192500    0.0012116317    
0.0121837790    0.0374279850    0.0011788707    
0.0124064400    0.0382600300    0.0011422177    
0.0126291010    0.0366765160    0.0011043337    
0.0128517620    0.0340193880    0.0010662342    
0.0130744230    0.0322326100    0.0010301587    
0.0132970840    0.0315921250    0.0010148853    
0.0135197450    0.0318341040    0.0010041754    
0.0137424060    0.0316315030    0.0009870397    
0.0139650670    0.0304441540    0.0009467682    
0.0141877280    0.0298986830    0.0009403217    
0.0144103890    0.0283338290    0.0008996000    
0.0146330500    0.0283981920    0.0008949030    
0.0148557110    0.0283563110    0.0008904935    
0.0150783720    0.0289347180    0.0008920956    
0.0153010330    0.0263868200    0.0008399017    
0.0155236940    0.0270778000    0.0008457684    
0.0157463550    0.0266068320    0.0008238554    
0.0159690160    0.0267850220    0.0008234727    
0.0161916770    0.0268345260    0.0008195898    
0.0164143380    0.0259211900    0.0008116240    
0.0166369990    0.0261854020    0.0007905984    
0.0168596600    0.0240140760    0.0007504399    
0.0170823210    0.0247523930    0.0007552923    
0.0173049820    0.0252774560    0.0007645806    
0.0175276430    0.0238531710    0.0007505600    
0.0177503040    0.0234150740    0.0007246784    
0.0179729650    0.0246898030    0.0007367629    
0.0181956260    0.0227158390    0.0006931491    
0.0184182870    0.0232983860    0.0006986722    
0.0186409480    0.0224060470    0.0006894984    
0.0188636090    0.0230888830    0.0006955240    
0.0190862700    0.0236851010    0.0007033455    
0.0193089310    0.0241110340    0.0007085354    
0.0195315920    0.0236647160    0.0006780749    
0.0197542530    0.0224671400    0.0006616573    
0.0199769140    0.0233440100    0.0006744458    
0.0201995750    0.0230151270    0.0006591914    
0.0204222360    0.0230662420    0.0006655878    
0.0206448970    0.0232128790    0.0006629546    
0.0208675580    0.0232474620    0.0006497863    
0.0210902190    0.0217912840    0.0006351767    
0.0213128800    0.0223028550    0.0006338699    
0.0215355410    0.0220736430    0.0006230920    
0.0217582020    0.0220032970    0.0006220984    
0.0219808630    0.0235243710    0.0006423972    
0.0222035240    0.0208950520    0.0005999472    
0.0224261850    0.0213369610    0.0006008624    
0.0226488460    0.0221344350    0.0006073925    
0.0228715070    0.0211621870    0.0005924275    
0.0230941680    0.0215934000    0.0005984330    
0.0233168290    0.0214677610    0.0005981758    
0.0235394900    0.0212899560    0.0005891192    
0.0237621510    0.0226133740    0.0005908082    
0.0239848120    0.0214125390    0.0005755726    
0.0242074730    0.0217562340    0.0005755295    
0.0244301340    0.0213786470    0.0005711644    
0.0246527950    0.0206883560    0.0005670704    
0.0248754560    0.0210610630    0.0005592966    
0.0250981170    0.0213937980    0.0005649543    
0.0253207780    0.0203600110    0.0005346801    
0.0255434390    0.0212989250    0.0005527064    
0.0257661000    0.0212925850    0.0005544117    
0.0259887610    0.0206728680    0.0005404787    
0.0262114220    0.0213935920    0.0005527488    
0.0264340830    0.0202734740    0.0005307629    
0.0266567440    0.0210118550    0.0005370031    
0.0268794050    0.0203778650    0.0005266812    
0.0271020660    0.0211043680    0.0005338176    
0.0273247270    0.0216787590    0.0005377838    
0.0275473880    0.0206092790    0.0005233074    
0.0277700490    0.0201037290    0.0005137940    
0.0279927100    0.0208124900    0.0005182113    
0.0282153710    0.0208590060    0.0005213123    
0.0284380320    0.0212617780    0.0005232703    
0.0286606930    0.0208107620    0.0005132596    
0.0288833540    0.0203053900    0.0005079523    
0.0291060150    0.0207361280    0.0005128245    
0.0293286760    0.0197429840    0.0004934204    
0.0295513370    0.0207389660    0.0005002063    
0.0297739980    0.0198909850    0.0004952667    
0.0299966590    0.0201942760    0.0004905050    
0.0302193200    0.0200881090    0.0004963432    
0.0304419810    0.0201621090    0.0004981717    
0.0306646420    0.0204349300    0.0004873755    
0.0308873030    0.0202818260    0.0004834491    
0.0311099640    0.0206768810    0.0004894022    
0.0313326250    0.0208217080    0.0004856726    
0.0315552860    0.0199235200    0.0004812388    
0.0317779470    0.0199582410    0.0004820775    
0.0320006080    0.0201070120    0.0004728772    
0.0322232690    0.0204327090    0.0004786871    
0.0324459300    0.0198746680    0.0004685806    
0.0326685910    0.0201505420    0.0004710437    
0.0328912520    0.0209936160    0.0004823889    
0.0331139130    0.0195763630    0.0004597620    
0.0333365740    0.0206274810    0.0004734761    
0.0335592350    0.0204032690    0.0004663680    
0.0337818960    0.0211690200    0.0004746608    
0.0340045570    0.0199029830    0.0004595172    
0.0342272170    0.0200304730    0.0004591682    
0.0344498780    0.0199348350    0.0004598850    
0.0346725390    0.0204092470    0.0004567073    
0.0348952000    0.0203857540    0.0004543650    
0.0351178610    0.0211553310    0.0004649804    
0.0353405220    0.0198692990    0.0004485729    
0.0355631830    0.0195390020    0.0004431536    
0.0357858440    0.0196093710    0.0004439510    
0.0360085050    0.0191415660    0.0004399488    
0.0362311660    0.0205057860    0.0004499437    
0.0364538270    0.0202362340    0.0004433891    
0.0366764880    0.0201874750    0.0004425333    
0.0368991490    0.0198404040    0.0004365011    
0.0371218100    0.0199753030    0.0004367295    
0.0373444710    0.0200712180    0.0004425441    
0.0375671320    0.0214332510    0.0004566472    
0.0377897930    0.0203933110    0.0004339002    
0.0380124540    0.0201358770    0.0004338581    
0.0382351150    0.0202106750    0.0004346633    
0.0384577760    0.0199967590    0.0004281853    
0.0386804370    0.0200052390    0.0004315445    
0.0389030980    0.0198959310    0.0004271048    
0.0391257590    0.0213723190    0.0004396629    
0.0393484200    0.0198721500    0.0004225249    
0.0395710810    0.0202590240    0.0004271927    
0.0397937420    0.0197635980    0.0004219371    
0.0400164030    0.0194434100    0.0004202078    
0.0402390640    0.0201668180    0.0004222549    
0.0404617250    0.0200693710    0.0004187485    
0.0406843860    0.0204289560    0.0004184013    
0.0409070470    0.0197894660    0.0004160905    
0.0411297080    0.0206010740    0.0004204301    
0.0413523690    0.0190946360    0.0004058098    
0.0415750300    0.0195344430    0.0004139434    
0.0417976910    0.0190115120    0.0003978035    
0.0420203520    0.0196242910    0.0004056823    
0.0422430130    0.0199168140    0.0004102419    
0.0424656740    0.0200767250    0.0004065247    
0.0426883350    0.0202931350    0.0004107384    
0.0429109960    0.0209137050    0.0004182741    
0.0431336570    0.0196942930    0.0004001781    
0.0433563180    0.0195722970    0.0004023782    
0.0435789790    0.0201883520    0.0004022414    
0.0438016400    0.0199873070    0.0004024109    
0.0440243010    0.0203537930    0.0004019633    
0.0442469620    0.0195460290    0.0003962666    
0.0444696230    0.0195815730    0.0003952045    
0.0446922840    0.0190372860    0.0003885160    
0.0449149450    0.0191568760    0.0003845243    
0.0451376060    0.0194510460    0.0003922507    
0.0453602670    0.0193396780    0.0003870259    
0.0455829280    0.0192022500    0.0003852023    
0.0458055890    0.0195910240    0.0003913512    
0.0460282500    0.0197928530    0.0003886185    
0.0462509110    0.0196227680    0.0003845385    
0.0464735720    0.0202258300    0.0003906231    
0.0466962330    0.0194889780    0.0003851848    
0.0469188940    0.0196208710    0.0003853903    
0.0471415550    0.0198535240    0.0003896595    
0.0473642160    0.0194724460    0.0003804983    
0.0475868770    0.0203100470    0.0003866652    
0.0478095380    0.0201326840    0.0003832885    
0.0480321990    0.0200304450    0.0003831517    
0.0482548600    0.0195220770    0.0003766103    
0.0484775210    0.0196004350    0.0003811122    
0.0487001820    0.0200093140    0.0003794300    
0.0489228430    0.0194990810    0.0003743598    
0.0491455040    0.0201801070    0.0003782071    
0.0493681650    0.0196199040    0.0003761254    
0.0495908260    0.0204289320    0.0003773443    
0.0498134870    0.0192427980    0.0003697121    
0.0500361480    0.0191481740    0.0003678263    
0.0502588090    0.0197715280    0.0003681651    
0.0504814700    0.0189479720    0.0003651275    
0.0507041310    0.0200938620    0.0003715356    
0.0509267920    0.0200526620    0.0003726900    
0.0511494530    0.0191231760    0.0003615232    
0.0513721140    0.0201570310    0.0003744358    
0.0515947750    0.0195312510    0.0003636909    
0.0518174360    0.0193702590    0.0003600072    
0.0520400970    0.0200791480    0.0003639941    
0.0522627580    0.0202406830    0.0003685611    
0.0524854190    0.0193161580    0.0003629728    
0.0527080800    0.0202121240    0.0003741703    
0.0529307410    0.0198920140    0.0003729388    
0.0531534020    0.0198654370    0.0003713328    
0.0533760630    0.0197804650    0.0003716977    
0.0535987240    0.0198452980    0.0003705681    
0.0538213850    0.0203857030    0.0003799311    
0.0540440460    0.0196531280    0.0003712766    
0.0542667070    0.0193418460    0.0003708630    
0.0544893680    0.0195546630    0.0003730964    
0.0547120290    0.0187189240    0.0003625357    
0.0549346900    0.0190338340    0.0003657648    
0.0551573510    0.0198803360    0.0003782102    
0.0553800120    0.0194235090    0.0003706615    
0.0556026730    0.0191171030    0.0003753506    
0.0558253340    0.0197008770    0.0003842291    
0.0560479950    0.0195285420    0.0003825451    
0.0562706560    0.0198163020    0.0003890789    
0.0564933170    0.0196489680    0.0003907970    
0.0567159780    0.0194310040    0.0003839640    
0.0569386390    0.0204210570    0.0003997985    
0.0571613000    0.0196860080    0.0003840852    
0.0573839610    0.0190877780    0.0003750641    
0.0576066220    0.0196827090    0.0003819186    
0.0578292830    0.0201784110    0.0003854184    
0.0580519440    0.0190072180    0.0003755165    
0.0582746050    0.0191488090    0.0003752505    
0.0584972660    0.0194622330    0.0003768610    
0.0587199270    0.0199385910    0.0003781569    
0.0589425880    0.0194437550    0.0003712507    
0.0591652490    0.0195083020    0.0003740546    
0.0593879100    0.0194245310    0.0003704786    
0.0596105710    0.0188970430    0.0003650282    
0.0598332320    0.0190565160    0.0003696985    
0.0600558930    0.0201596880    0.0003778245    
0.0602785540    0.0193256890    0.0003695356    
0.0605012150    0.0197509530    0.0003727922    
0.0607238760    0.0193601230    0.0003663957    
0.0609465370    0.0195816270    0.0003713867    
0.0611691980    0.0195094910    0.0003712895    
0.0613918590    0.0195351530    0.0003674775    
0.0616145200    0.0199273680    0.0003738646    
0.0618371810    0.0195309860    0.0003664924    
0.0620598420    0.0196539730    0.0003680235    
0.0622825030    0.0201815560    0.0003786335    
0.0625051640    0.0193631570    0.0003656682    
0.0627278250    0.0197442630    0.0003684888    
0.0629504860    0.0199658020    0.0003675379    
0.0631731470    0.0194088970    0.0003668592    
0.0633958080    0.0192752180    0.0003676977    
0.0636184690    0.0187630530    0.0003678323    
0.0638411300    0.0199751200    0.0003781024    
0.0640637910    0.0194659710    0.0003758778    
0.0642864520    0.0200972520    0.0003810976    
0.0645091130    0.0195759160    0.0003794181    
0.0647317740    0.0192358620    0.0003765229    
0.0649544350    0.0202745780    0.0003861299    
0.0651770960    0.0194720780    0.0003763467    
0.0653997570    0.0195760150    0.0003765315    
0.0656224180    0.0194284790    0.0003759256    
0.0658450790    0.0195311520    0.0003715000    
0.0660677400    0.0194697020    0.0003724937    
0.0662904010    0.0199811250    0.0003818592    
0.0665130620    0.0188966000    0.0003697406    
0.0667357230    0.0191173900    0.0003785065    
0.0669583840    0.0200318410    0.0003861571    
0.0671810450    0.0186333230    0.0003703772    
0.0674037060    0.0201912660    0.0003920819    
0.0676263670    0.0192289680    0.0003798234    
0.0678490280    0.0193946870    0.0003791237    
0.0680716890    0.0193173320    0.0003792088    
0.0682943500    0.0197994510    0.0003797070    
0.0685170110    0.0195121400    0.0003731008    
0.0687396720    0.0200259810    0.0003769774    
0.0689623330    0.0194409130    0.0003702527    
0.0691849940    0.0194109590    0.0003725307    
0.0694076550    0.0198616090    0.0003766292    
0.0696303160    0.0197873530    0.0003729482    
0.0698529770    0.0190955140    0.0003656025    
0.0700756380    0.0195770260    0.0003654313    
0.0702982990    0.0197896560    0.0003714117    
0.0705209600    0.0197179180    0.0003680613    
0.0707436210    0.0192036660    0.0003615619    
0.0709662820    0.0197548770    0.0003710859    
0.0711889430    0.0197554190    0.0003665331    
0.0714116040    0.0195562020    0.0003654248    
0.0716342650    0.0190387500    0.0003590939    
0.0718569260    0.0197523850    0.0003642889    
0.0720795870    0.0193503550    0.0003620210    
0.0723022480    0.0196063900    0.0003649635    
0.0725249090    0.0192722330    0.0003575067    
0.0727475700    0.0195219140    0.0003628884    
0.0729702310    0.0194573830    0.0003593987    
0.0731928920    0.0191515000    0.0003579876    
0.0734155530    0.0201948630    0.0003668762    
0.0736382140    0.0196798820    0.0003598440    
0.0738608750    0.0200549510    0.0003656036    
0.0740835360    0.0202141440    0.0003661406    
0.0743061970    0.0198873950    0.0003580555    
0.0745288580    0.0196997240    0.0003600263    
0.0747515190    0.0197511920    0.0003612083    
0.0749741800    0.0198022060    0.0003583266    
0.0751968410    0.0197916600    0.0003610439    
0.0754195020    0.0194237350    0.0003555767    
0.0756421630    0.0189601980    0.0003484365    
0.0758648240    0.0197527870    0.0003564997    
0.0760874850    0.0205758830    0.0003636768    
0.0763101460    0.0192019670    0.0003509881    
0.0765328070    0.0197017020    0.0003591639    
0.0767554680    0.0197129700    0.0003568287    
0.0769781290    0.0193593600    0.0003515818    
0.0772007900    0.0197097890    0.0003519044    
0.0774234510    0.0191784350    0.0003491030    
0.0776461120    0.0194782300    0.0003514873    
0.0778687730    0.0195072680    0.0003505871    
0.0780914340    0.0196080830    0.0003540034    
0.0783140950    0.0195107760    0.0003475213    
0.0785367560    0.0196337030    0.0003542351    
0.0787594170    0.0192457940    0.0003475760    
0.0789820780    0.0195896020    0.0003488700    
0.0792047390    0.0196678760    0.0003507092    
0.0794274000    0.0192925100    0.0003488181    
0.0796500610    0.0197588150    0.0003495630    
0.0798727220    0.0200248260    0.0003515834    
0.0800953830    0.0194351220    0.0003455713    
0.0803180440    0.0188844270    0.0003430132    
0.0805407050    0.0196764260    0.0003498066    
0.0807633660    0.0194785250    0.0003477199    
0.0809860270    0.0192918020    0.0003447714    
0.0812086880    0.0195471990    0.0003440470    
0.0814313490    0.0197747910    0.0003476223    
0.0816540100    0.0200924190    0.0003496052    
0.0818766710    0.0195304130    0.0003454682    
0.0820993320    0.0202447260    0.0003510881    
0.0823219930    0.0199946180    0.0003503517    
0.0825446540    0.0198019330    0.0003461263    
0.0827673150    0.0192442730    0.0003389253    
0.0829899760    0.0202761660    0.0003472741    
0.0832126370    0.0188378750    0.0003362298    
0.0834352980    0.0197395110    0.0003434127    
0.0836579590    0.0198599060    0.0003436916    
0.0838806200    0.0191823840    0.0003388352    
0.0841032810    0.0195538040    0.0003399762    
0.0843259420    0.0190458240    0.0003344978    
0.0845486030    0.0194100860    0.0003376816    
0.0847712640    0.0194701980    0.0003361430    
0.0849939250    0.0194856560    0.0003368620    
0.0852165860    0.0195776110    0.0003380982    
0.0854392470    0.0196324970    0.0003353656    
0.0856619080    0.0196843950    0.0003382818    
0.0858845690    0.0197481890    0.0003357778    
0.0861072300    0.0193156140    0.0003343724    
0.0863298910    0.0199512650    0.0003416092    
0.0865525520    0.0200508300    0.0003395034    
0.0867752130    0.0194231240    0.0003314507    
0.0869978740    0.0192721130    0.0003310011    
0.0872205350    0.0187694610    0.0003262404    
0.0874431960    0.0189055840    0.0003274216    
0.0876658570    0.0191653240    0.0003309289    
0.0878885180    0.0193859130    0.0003333985    
0.0881111790    0.0199081000    0.0003374254    
0.0883338400    0.0193849360    0.0003280873    
0.0885565010    0.0190129450    0.0003293303    
0.0887791620    0.0191621400    0.0003263325    
0.0890018230    0.0194960090    0.0003323559    
0.0892244840    0.0189369950    0.0003281132    
0.0894471450    0.0190592110    0.0003277799    
0.0896698060    0.0193241120    0.0003288050    
0.0898924670    0.0195657880    0.0003323883    
0.0901151280    0.0195598000    0.0003287477    
0.0903377890    0.0196806930    0.0003325219    
0.0905604500    0.0194448000    0.0003290063    
0.0907831110    0.0195808140    0.0003293336    
0.0910057720    0.0201242930    0.0003354049    
0.0912284330    0.0189818760    0.0003210817    
0.0914510940    0.0195575110    0.0003295482    
0.0916737550    0.0197036820    0.0003299565    
0.0918964160    0.0190099030    0.0003254433    
0.0921190770    0.0197236320    0.0003284992    
0.0923417380    0.0193127150    0.0003251926    
0.0925643990    0.0195997320    0.0003267984    
0.0927870600    0.0193103320    0.0003257070    
0.0930097210    0.0196146650    0.0003254678    
0.0932323820    0.0190491830    0.0003230996    
