# Diamond Light Source Ltd.
# Data extracted from: /dls/b21/data/2018/cm19678-3/processed/b21-386631_00127.dat
q(1/A)          Column          Error           
0.0035000000    2.1374916000    0.0248394450    
0.0037226610    1.9319692000    0.0231178840    
0.0039453220    1.6139808000    0.0192222310    
0.0041679830    1.2936923000    0.0141330180    
0.0043906440    0.9602639200    0.0116466230    
0.0046133050    0.7766411900    0.0100549240    
0.0048359660    0.5849371900    0.0082541220    
0.0050586270    0.4605715900    0.0071990680    
0.0052812880    0.4229894300    0.0065229871    
0.0055039490    0.3940699600    0.0059865826    
0.0057266100    0.3217397600    0.0052330977    
0.0059492710    0.2671802200    0.0047687949    
0.0061719320    0.2247801400    0.0042149570    
0.0063945930    0.2056494500    0.0040804747    
0.0066172539    0.1811111700    0.0035957129    
0.0068399149    0.1709562600    0.0034384347    
0.0070625759    0.1477533800    0.0031638042    
0.0072852369    0.1266683900    0.0028855419    
0.0075078979    0.1127342000    0.0027088298    
0.0077305589    0.1005257200    0.0025092253    
0.0079532199    0.1015353300    0.0024868487    
0.0081758809    0.0895345560    0.0023569888    
0.0083985419    0.0806945630    0.0020870059    
0.0086212029    0.0768622580    0.0020368458    
0.0088438639    0.0728706140    0.0019673217    
0.0090665249    0.0653008770    0.0017987107    
0.0092891859    0.0651494310    0.0018752406    
0.0095118469    0.0619981160    0.0017592100    
0.0097345079    0.0580567310    0.0016533738    
0.0099571689    0.0526610980    0.0015421998    
0.0101798300    0.0501319290    0.0015047104    
0.0104024910    0.0473259780    0.0014570463    
0.0106251520    0.0473769480    0.0014627811    
0.0108478130    0.0471161720    0.0014206060    
0.0110704740    0.0439500540    0.0013062798    
0.0112931350    0.0424902380    0.0012881745    
0.0115157960    0.0417259780    0.0012690937    
0.0117384570    0.0404416180    0.0012386537    
0.0119611180    0.0365150700    0.0011803646    
0.0121837790    0.0375478270    0.0011768224    
0.0124064400    0.0363457210    0.0011095667    
0.0126291010    0.0371922170    0.0011083652    
0.0128517620    0.0334943080    0.0010544486    
0.0130744230    0.0347653950    0.0010663028    
0.0132970840    0.0315114960    0.0010102122    
0.0135197450    0.0311188810    0.0009895228    
0.0137424060    0.0322165390    0.0009928067    
0.0139650670    0.0295104380    0.0009290307    
0.0141877280    0.0305516990    0.0009473679    
0.0144103890    0.0296490650    0.0009171764    
0.0146330500    0.0292737680    0.0009055668    
0.0148557110    0.0271676300    0.0008687250    
0.0150783720    0.0286056170    0.0008840523    
0.0153010330    0.0289731540    0.0008771692    
0.0155236940    0.0267926930    0.0008385008    
0.0157463550    0.0267592480    0.0008234589    
0.0159690160    0.0255254560    0.0008011992    
0.0161916770    0.0241197050    0.0007744371    
0.0164143380    0.0260516710    0.0008109531    
0.0166369990    0.0271493370    0.0008023364    
0.0168596600    0.0269758790    0.0007927227    
0.0170823210    0.0257324030    0.0007675332    
0.0173049820    0.0247187550    0.0007535646    
0.0175276430    0.0242340600    0.0007540081    
0.0177503040    0.0245514850    0.0007395831    
0.0179729650    0.0243071560    0.0007285956    
0.0181956260    0.0249388450    0.0007238540    
0.0184182870    0.0231433890    0.0006940241    
0.0186409480    0.0220883730    0.0006823121    
0.0188636090    0.0224357820    0.0006833321    
0.0190862700    0.0241914470    0.0007084555    
0.0193089310    0.0227096650    0.0006853455    
0.0195315920    0.0232949830    0.0006705154    
0.0197542530    0.0237500310    0.0006780190    
0.0199769140    0.0221241200    0.0006543994    
0.0201995750    0.0230870710    0.0006580211    
0.0204222360    0.0233134300    0.0006669151    
0.0206448970    0.0224754070    0.0006501650    
0.0208675580    0.0223350710    0.0006347855    
0.0210902190    0.0232831200    0.0006543714    
0.0213128800    0.0227987140    0.0006387422    
0.0215355410    0.0218219650    0.0006174654    
0.0217582020    0.0218918590    0.0006184536    
0.0219808630    0.0219041120    0.0006178144    
0.0222035240    0.0209271580    0.0005984075    
0.0224261850    0.0211613960    0.0005963915    
0.0226488460    0.0214739270    0.0005962680    
0.0228715070    0.0217462770    0.0005985466    
0.0230941680    0.0211696800    0.0005905582    
0.0233168290    0.0215567360    0.0005974169    
0.0235394900    0.0212778660    0.0005869896    
0.0237621510    0.0195803180    0.0005479290    
0.0239848120    0.0214545110    0.0005742168    
0.0242074730    0.0216266200    0.0005719007    
0.0244301340    0.0218427430    0.0005754071    
0.0246527950    0.0209212840    0.0005683537    
0.0248754560    0.0209947190    0.0005565544    
0.0250981170    0.0208809790    0.0005562825    
0.0253207780    0.0220377990    0.0005544210    
0.0255434390    0.0207440590    0.0005436421    
0.0257661000    0.0200037630    0.0005355803    
0.0259887610    0.0217424740    0.0005524376    
0.0262114220    0.0209959120    0.0005457627    
0.0264340830    0.0210634030    0.0005392017    
0.0266567440    0.0209811330    0.0005348224    
0.0268794050    0.0201882100    0.0005224779    
0.0271020660    0.0212724580    0.0005341535    
0.0273247270    0.0201828310    0.0005171686    
0.0275473880    0.0205909660    0.0005213321    
0.0277700490    0.0200612910    0.0005115413    
0.0279927100    0.0208278360    0.0005166750    
0.0282153710    0.0211343840    0.0005229937    
0.0284380320    0.0215936500    0.0005255812    
0.0286606930    0.0203453800    0.0005057973    
0.0288833540    0.0208771490    0.0005133380    
0.0291060150    0.0198926740    0.0005006130    
0.0293286760    0.0209713480    0.0005068442    
0.0295513370    0.0200736870    0.0004904782    
0.0297739980    0.0206283800    0.0005026829    
0.0299966590    0.0192078260    0.0004767810    
0.0302193200    0.0199910160    0.0004934925    
0.0304419810    0.0201747020    0.0004966668    
0.0306646420    0.0202066100    0.0004830304    
0.0308873030    0.0205360990    0.0004848492    
0.0311099640    0.0195612610    0.0004744303    
0.0313326250    0.0199404840    0.0004737005    
0.0315552860    0.0202874820    0.0004839965    
0.0317779470    0.0197213640    0.0004776115    
0.0320006080    0.0204703680    0.0004755410    
0.0322232690    0.0206866710    0.0004800480    
0.0324459300    0.0194241980    0.0004616964    
0.0326685910    0.0205415100    0.0004740068    
0.0328912520    0.0199510880    0.0004686919    
0.0331139130    0.0207761430    0.0004720632    
0.0333365740    0.0194322740    0.0004580231    
0.0335592350    0.0196639540    0.0004563152    
0.0337818960    0.0196009370    0.0004552207    
0.0340045570    0.0201815830    0.0004611804    
0.0342272170    0.0197717480    0.0004546731    
0.0344498780    0.0201289140    0.0004605785    
0.0346725390    0.0200298240    0.0004509346    
0.0348952000    0.0200891790    0.0004495450    
0.0351178610    0.0204765360    0.0004559356    
0.0353405220    0.0201898010    0.0004506697    
0.0355631830    0.0198882500    0.0004456069    
0.0357858440    0.0204174180    0.0004514963    
0.0360085050    0.0210733440    0.0004600772    
0.0362311660    0.0203497530    0.0004467351    
0.0364538270    0.0200630080    0.0004400163    
0.0366764880    0.0198604480    0.0004374718    
0.0368991490    0.0193077570    0.0004291673    
0.0371218100    0.0197475640    0.0004327860    
0.0373444710    0.0204901690    0.0004456491    
0.0375671320    0.0199666400    0.0004392784    
0.0377897930    0.0200558890    0.0004288620    
0.0380124540    0.0202062090    0.0004331670    
0.0382351150    0.0203640840    0.0004348561    
0.0384577760    0.0202553540    0.0004295092    
0.0386804370    0.0203530030    0.0004338289    
0.0389030980    0.0204739660    0.0004318211    
0.0391257590    0.0195141150    0.0004187154    
0.0393484200    0.0189189360    0.0004108930    
0.0395710810    0.0195784140    0.0004185563    
0.0397937420    0.0204374450    0.0004276402    
0.0400164030    0.0206581950    0.0004316926    
0.0402390640    0.0196989230    0.0004159373    
0.0404617250    0.0198751020    0.0004153284    
0.0406843860    0.0197142200    0.0004096475    
0.0409070470    0.0193015040    0.0004095594    
0.0411297080    0.0194582930    0.0004072413    
0.0413523690    0.0197472140    0.0004113110    
0.0415750300    0.0195613260    0.0004128479    
0.0417976910    0.0192819180    0.0003992877    
0.0420203520    0.0196270270    0.0004043588    
0.0422430130    0.0199941600    0.0004096682    
0.0424656740    0.0193135480    0.0003973948    
0.0426883350    0.0201085830    0.0004075041    
0.0429109960    0.0197275340    0.0004048857    
0.0431336570    0.0199348300    0.0004012730    
0.0433563180    0.0191627010    0.0003968190    
0.0435789790    0.0197515230    0.0003965402    
0.0438016400    0.0206027990    0.0004071986    
0.0440243010    0.0199029660    0.0003961623    
0.0442469620    0.0207087990    0.0004065240    
0.0444696230    0.0196176890    0.0003942507    
0.0446922840    0.0195249760    0.0003921500    
0.0449149450    0.0196811240    0.0003884516    
0.0451376060    0.0200838240    0.0003972519    
0.0453602670    0.0193187280    0.0003855273    
0.0455829280    0.0197883580    0.0003897340    
0.0458055890    0.0202683180    0.0003967322    
0.0460282500    0.0193807370    0.0003832701    
0.0462509110    0.0189233260    0.0003763648    
0.0464735720    0.0201662140    0.0003887474    
0.0466962330    0.0196391270    0.0003853774    
0.0469188940    0.0194076260    0.0003820132    
0.0471415550    0.0195011350    0.0003848992    
0.0473642160    0.0196013980    0.0003804842    
0.0475868770    0.0202188050    0.0003845102    
0.0478095380    0.0197812910    0.0003786630    
0.0480321990    0.0197006200    0.0003787180    
0.0482548600    0.0195509780    0.0003756332    
0.0484775210    0.0195436490    0.0003792918    
0.0487001820    0.0198476100    0.0003766346    
0.0489228430    0.0193408020    0.0003715951    
0.0491455040    0.0191446010    0.0003671485    
0.0493681650    0.0199119710    0.0003776520    
0.0495908260    0.0201199350    0.0003732319    
0.0498134870    0.0198697760    0.0003744352    
0.0500361480    0.0196875680    0.0003717283    
0.0502588090    0.0197693840    0.0003669185    
0.0504814700    0.0197654600    0.0003716783    
0.0507041310    0.0198714720    0.0003682429    
0.0509267920    0.0192793640    0.0003642157    
0.0511494530    0.0196545000    0.0003652899    
0.0513721140    0.0193458280    0.0003656018    
0.0515947750    0.0199798570    0.0003666183    
0.0518174360    0.0202715910    0.0003670607    
0.0520400970    0.0198341390    0.0003605611    
0.0522627580    0.0198793690    0.0003640397    
0.0524854190    0.0197703290    0.0003659917    
0.0527080800    0.0200088530    0.0003710436    
0.0529307410    0.0197805150    0.0003706531    
0.0531534020    0.0199401260    0.0003707906    
0.0533760630    0.0191007570    0.0003640386    
0.0535987240    0.0201806730    0.0003724411    
0.0538213850    0.0196803520    0.0003720566    
0.0540440460    0.0197104990    0.0003705793    
0.0542667070    0.0195522260    0.0003716321    
0.0544893680    0.0199619830    0.0003757061    
0.0547120290    0.0192360600    0.0003662849    
0.0549346900    0.0193959460    0.0003679975    
0.0551573510    0.0189475770    0.0003680008    
0.0553800120    0.0198212650    0.0003731899    
0.0556026730    0.0198684090    0.0003813802    
0.0558253340    0.0193539420    0.0003795620    
0.0560479950    0.0201802270    0.0003875799    
0.0562706560    0.0192443400    0.0003821452    
0.0564933170    0.0190009540    0.0003830184    
0.0567159780    0.0194223240    0.0003825991    
0.0569386390    0.0200519490    0.0003948489    
0.0571613000    0.0194731610    0.0003807304    
0.0573839610    0.0192609440    0.0003755062    
0.0576066220    0.0191321690    0.0003752849    
0.0578292830    0.0201977380    0.0003843182    
0.0580519440    0.0194703320    0.0003787974    
0.0582746050    0.0193574340    0.0003760320    
0.0584972660    0.0196227120    0.0003771507    
0.0587199270    0.0199769320    0.0003772592    
0.0589425880    0.0192651130    0.0003683100    
0.0591652490    0.0192431550    0.0003702661    
0.0593879100    0.0193514580    0.0003685491    
0.0596105710    0.0191005260    0.0003657655    
0.0598332320    0.0191648470    0.0003695126    
0.0600558930    0.0195613330    0.0003709351    
0.0602785540    0.0193655780    0.0003686843    
0.0605012150    0.0189415740    0.0003638576    
0.0607238760    0.0193139820    0.0003647395    
0.0609465370    0.0191085090    0.0003656503    
0.0611691980    0.0204606390    0.0003789657    
0.0613918590    0.0193639910    0.0003646450    
0.0616145200    0.0196972520    0.0003704612    
0.0618371810    0.0194557030    0.0003645666    
0.0620598420    0.0197628120    0.0003678115    
0.0622825030    0.0195815710    0.0003717201    
0.0625051640    0.0197007930    0.0003676135    
0.0627278250    0.0197905270    0.0003676911    
0.0629504860    0.0194162880    0.0003612372    
0.0631731470    0.0199272560    0.0003704873    
0.0633958080    0.0191121480    0.0003649191    
0.0636184690    0.0190465220    0.0003693656    
0.0638411300    0.0201123880    0.0003781353    
0.0640637910    0.0199420870    0.0003791792    
0.0642864520    0.0199420160    0.0003783580    
0.0645091130    0.0197597950    0.0003799258    
0.0647317740    0.0198180320    0.0003809048    
0.0649544350    0.0198036700    0.0003803478    
0.0651770960    0.0188801070    0.0003693472    
0.0653997570    0.0199997310    0.0003793165    
0.0656224180    0.0198266870    0.0003784932    
0.0658450790    0.0194152550    0.0003691620    
0.0660677400    0.0196375000    0.0003728490    
0.0662904010    0.0194204970    0.0003752096    
0.0665130620    0.0195757650    0.0003750725    
0.0667357230    0.0193177540    0.0003792171    
0.0669583840    0.0198024470    0.0003826604    
0.0671810450    0.0197598960    0.0003801386    
0.0674037060    0.0196107260    0.0003851168    
0.0676263670    0.0194438630    0.0003806673    
0.0678490280    0.0198987690    0.0003827394    
0.0680716890    0.0195289680    0.0003800101    
0.0682943500    0.0199498360    0.0003798763    
0.0685170110    0.0197154100    0.0003737896    
0.0687396720    0.0198152140    0.0003737389    
0.0689623330    0.0189753600    0.0003645738    
0.0691849940    0.0197860630    0.0003748598    
0.0694076550    0.0194102290    0.0003710843    
0.0696303160    0.0199908740    0.0003736122    
0.0698529770    0.0194204390    0.0003674714    
0.0700756380    0.0193722520    0.0003623039    
0.0702982990    0.0192979390    0.0003655464    
0.0705209600    0.0200508170    0.0003699186    
0.0707436210    0.0195627820    0.0003637110    
0.0709662820    0.0192703150    0.0003652853    
0.0711889430    0.0195429300    0.0003633419    
0.0714116040    0.0190326940    0.0003592994    
0.0716342650    0.0195579680    0.0003627448    
0.0718569260    0.0195876100    0.0003615575    
0.0720795870    0.0198809570    0.0003657283    
0.0723022480    0.0198943570    0.0003664090    
0.0725249090    0.0195261110    0.0003586548    
0.0727475700    0.0200085120    0.0003661592    
0.0729702310    0.0194070710    0.0003577378    
0.0731928920    0.0194893900    0.0003599285    
0.0734155530    0.0197228600    0.0003613555    
0.0736382140    0.0201306550    0.0003627292    
0.0738608750    0.0191601570    0.0003561638    
0.0740835360    0.0197568620    0.0003607694    
0.0743061970    0.0193900850    0.0003523723    
0.0745288580    0.0194444850    0.0003564946    
0.0747515190    0.0199872550    0.0003621498    
0.0749741800    0.0201148900    0.0003599413    
0.0751968410    0.0193263290    0.0003555856    
0.0754195020    0.0196954060    0.0003568617    
0.0756421630    0.0197818070    0.0003547201    
0.0758648240    0.0198834220    0.0003564849    
0.0760874850    0.0198834860    0.0003563143    
0.0763101460    0.0200301640    0.0003572830    
0.0765328070    0.0199413630    0.0003601378    
0.0767554680    0.0194150080    0.0003529418    
0.0769781290    0.0201565780    0.0003575525    
0.0772007900    0.0197222130    0.0003508424    
0.0774234510    0.0189435360    0.0003458024    
0.0776461120    0.0188446120    0.0003445712    
0.0778687730    0.0196403650    0.0003506090    
0.0780914340    0.0192554350    0.0003496368    
0.0783140950    0.0196269280    0.0003473929    
0.0785367560    0.0192491400    0.0003495801    
0.0787594170    0.0193172910    0.0003470608    
0.0789820780    0.0196567720    0.0003483032    
0.0792047390    0.0195867280    0.0003488188    
0.0794274000    0.0196528210    0.0003508873    
0.0796500610    0.0192096320    0.0003435224    
0.0798727220    0.0199161340    0.0003494596    
0.0800953830    0.0196781480    0.0003465666    
0.0803180440    0.0194643380    0.0003470798    
0.0805407050    0.0192119420    0.0003445015    
0.0807633660    0.0190468060    0.0003426993    
0.0809860270    0.0190043240    0.0003410528    
0.0812086880    0.0201329700    0.0003480006    
0.0814313490    0.0191090560    0.0003405821    
0.0816540100    0.0196747470    0.0003447998    
0.0818766710    0.0195400990    0.0003444025    
0.0820993320    0.0192633060    0.0003413313    
0.0823219930    0.0196542640    0.0003461997    
0.0825446540    0.0193997540    0.0003414519    
0.0827673150    0.0200768030    0.0003450254    
0.0829899760    0.0198576780    0.0003425265    
0.0832126370    0.0199167370    0.0003445720    
0.0834352980    0.0196972100    0.0003419016    
0.0836579590    0.0197159670    0.0003413029    
0.0838806200    0.0191617850    0.0003375249    
0.0841032810    0.0191360040    0.0003352039    
0.0843259420    0.0202204640    0.0003435101    
0.0845486030    0.0192226000    0.0003349271    
0.0847712640    0.0193406690    0.0003339068    
0.0849939250    0.0196105560    0.0003368139    
0.0852165860    0.0193255670    0.0003347956    
0.0854392470    0.0193425500    0.0003317708    
0.0856619080    0.0201771180    0.0003413482    
0.0858845690    0.0196848660    0.0003341221    
0.0861072300    0.0193366080    0.0003334394    
0.0863298910    0.0198592060    0.0003396846    
0.0865525520    0.0194549060    0.0003333060    
0.0867752130    0.0195411220    0.0003313483    
0.0869978740    0.0193697880    0.0003307332    
0.0872205350    0.0194050230    0.0003306127    
0.0874431960    0.0191008810    0.0003280118    
0.0876658570    0.0199460080    0.0003364768    
0.0878885180    0.0197012040    0.0003349789    
0.0881111790    0.0198097450    0.0003354694    
0.0883338400    0.0191291080    0.0003248293    
0.0885565010    0.0197477660    0.0003345158    
0.0887791620    0.0197578440    0.0003302621    
0.0890018230    0.0196139450    0.0003322489    
0.0892244840    0.0192853820    0.0003300144    
0.0894471450    0.0192067990    0.0003279502    
0.0896698060    0.0198791250    0.0003323822    
0.0898924670    0.0195141510    0.0003308434    
0.0901151280    0.0191552440    0.0003242463    
0.0903377890    0.0191535220    0.0003269452    
0.0905604500    0.0187624640    0.0003221054    
0.0907831110    0.0194285400    0.0003269575    
0.0910057720    0.0192407710    0.0003268668    
0.0912284330    0.0194760230    0.0003241505    
0.0914510940    0.0196976860    0.0003296251    
0.0916737550    0.0194463600    0.0003267027    
0.0918964160    0.0201452830    0.0003339048    
0.0921190770    0.0201685040    0.0003310764    
0.0923417380    0.0198043080    0.0003282081    
0.0925643990    0.0196046580    0.0003257505    
0.0927870600    0.0190672660    0.0003225722    
0.0930097210    0.0196129250    0.0003243689    
0.0932323820    0.0195811480    0.0003264885    
