# Diamond Light Source Ltd.
# Data extracted from: /dls/b21/data/2018/cm19678-3/processed/b21-386631_00142.dat
q(1/A)          Column          Error           
0.0035000000    2.0897093000    0.0245508590    
0.0037226610    1.9227538000    0.0230538730    
0.0039453220    1.6086303000    0.0191830130    
0.0041679830    1.3002638000    0.0141634550    
0.0043906440    0.9856429800    0.0117950180    
0.0046133050    0.7711049700    0.0100151950    
0.0048359660    0.6056726400    0.0083959397    
0.0050586270    0.4647174200    0.0072286342    
0.0052812880    0.4324163100    0.0065927538    
0.0055039490    0.3870440700    0.0059307087    
0.0057266100    0.3239604900    0.0052491208    
0.0059492710    0.2689323200    0.0047825780    
0.0061719320    0.2195539700    0.0041640783    
0.0063945930    0.1949750400    0.0039716456    
0.0066172539    0.1846108400    0.0036289005    
0.0068399149    0.1714476200    0.0034420571    
0.0070625759    0.1437819700    0.0031198029    
0.0072852369    0.1269657300    0.0028878231    
0.0075078979    0.1167455600    0.0027555491    
0.0077305589    0.1017006300    0.0025228822    
0.0079532199    0.1003013800    0.0024707472    
0.0081758809    0.0936201730    0.0024092450    
0.0083985419    0.0863500420    0.0021580768    
0.0086212029    0.0761023920    0.0020259783    
0.0088438639    0.0701082740    0.0019289362    
0.0090665249    0.0677263760    0.0018311115    
0.0092891859    0.0633737440    0.0018488021    
0.0095118469    0.0636965540    0.0017824628    
0.0097345079    0.0570243390    0.0016379813    
0.0099571689    0.0542004020    0.0015639793    
0.0101798300    0.0505900590    0.0015109928    
0.0104024910    0.0466622850    0.0014462409    
0.0106251520    0.0470248540    0.0014567787    
0.0108478130    0.0439557700    0.0013716101    
0.0110704740    0.0425974370    0.0012855302    
0.0112931350    0.0410139050    0.0012651143    
0.0115157960    0.0409227070    0.0012563385    
0.0117384570    0.0385911070    0.0012095208    
0.0119611180    0.0366396850    0.0011819253    
0.0121837790    0.0360817730    0.0011531785    
0.0124064400    0.0365210410    0.0011118147    
0.0126291010    0.0349854680    0.0010745701    
0.0128517620    0.0342979780    0.0010666164    
0.0130744230    0.0351636790    0.0010719837    
0.0132970840    0.0324906220    0.0010253949    
0.0135197450    0.0317553710    0.0009992094    
0.0137424060    0.0317333560    0.0009849571    
0.0139650670    0.0312121640    0.0009550767    
0.0141877280    0.0293248400    0.0009277969    
0.0144103890    0.0297398200    0.0009182281    
0.0146330500    0.0286915720    0.0008961741    
0.0148557110    0.0300614200    0.0009134721    
0.0150783720    0.0290751780    0.0008909382    
0.0153010330    0.0298267180    0.0008896564    
0.0155236940    0.0264575690    0.0008329220    
0.0157463550    0.0268147700    0.0008239979    
0.0159690160    0.0255813450    0.0008017694    
0.0161916770    0.0257163150    0.0007993529    
0.0164143380    0.0257543010    0.0008060034    
0.0166369990    0.0251146850    0.0007713914    
0.0168596600    0.0256284590    0.0007723761    
0.0170823210    0.0250035880    0.0007562968    
0.0173049820    0.0235291550    0.0007349273    
0.0175276430    0.0247547140    0.0007617737    
0.0177503040    0.0236422510    0.0007254819    
0.0179729650    0.0247032190    0.0007342270    
0.0181956260    0.0228623910    0.0006927997    
0.0184182870    0.0229801360    0.0006913078    
0.0186409480    0.0249357410    0.0007246803    
0.0188636090    0.0242071450    0.0007095240    
0.0190862700    0.0244632110    0.0007121516    
0.0193089310    0.0232296600    0.0006928827    
0.0195315920    0.0232579050    0.0006697257    
0.0197542530    0.0235771580    0.0006752889    
0.0199769140    0.0235771670    0.0006752891    
0.0201995750    0.0225634450    0.0006502677    
0.0204222360    0.0224568270    0.0006542982    
0.0206448970    0.0217252920    0.0006389792    
0.0208675580    0.0225343400    0.0006373674    
0.0210902190    0.0224016150    0.0006416194    
0.0213128800    0.0219587410    0.0006266258    
0.0215355410    0.0220497110    0.0006204421    
0.0217582020    0.0215958060    0.0006140229    
0.0219808630    0.0223923400    0.0006244231    
0.0222035240    0.0214241200    0.0006052398    
0.0224261850    0.0213635710    0.0005990048    
0.0226488460    0.0215071560    0.0005965012    
0.0228715070    0.0223881410    0.0006070837    
0.0230941680    0.0217955230    0.0005989951    
0.0233168290    0.0213582860    0.0005944335    
0.0235394900    0.0206143800    0.0005775447    
0.0237621510    0.0217103510    0.0005767425    
0.0239848120    0.0212691970    0.0005715131    
0.0242074730    0.0211869650    0.0005658414    
0.0244301340    0.0218563520    0.0005753664    
0.0246527950    0.0203653140    0.0005605368    
0.0248754560    0.0218042670    0.0005669665    
0.0250981170    0.0205244360    0.0005513021    
0.0253207780    0.0210871650    0.0005421241    
0.0255434390    0.0205858490    0.0005413581    
0.0257661000    0.0209055170    0.0005473099    
0.0259887610    0.0207300390    0.0005392161    
0.0262114220    0.0204979040    0.0005390454    
0.0264340830    0.0204818220    0.0005315026    
0.0266567440    0.0206654110    0.0005305805    
0.0268794050    0.0204700440    0.0005259112    
0.0271020660    0.0208407350    0.0005285035    
0.0273247270    0.0200747210    0.0005155846    
0.0275473880    0.0208654020    0.0005245942    
0.0277700490    0.0205151840    0.0005170982    
0.0279927100    0.0205942020    0.0005135727    
0.0282153710    0.0210277150    0.0005214730    
0.0284380320    0.0202733230    0.0005090651    
0.0286606930    0.0201413670    0.0005030628    
0.0288833540    0.0209747150    0.0005143396    
0.0291060150    0.0204062020    0.0005068398    
0.0293286760    0.0201841930    0.0004970511    
0.0295513370    0.0207169860    0.0004980851    
0.0297739980    0.0204045390    0.0004997571    
0.0299966590    0.0198435700    0.0004844220    
0.0302193200    0.0206696020    0.0005016066    
0.0304419810    0.0210145350    0.0005067054    
0.0306646420    0.0198796540    0.0004789235    
0.0308873030    0.0198798640    0.0004768574    
0.0311099640    0.0206731070    0.0004875407    
0.0313326250    0.0203975210    0.0004789153    
0.0315552860    0.0205488930    0.0004869187    
0.0317779470    0.0193364460    0.0004727469    
0.0320006080    0.0200463000    0.0004704097    
0.0322232690    0.0198137570    0.0004696311    
0.0324459300    0.0191681150    0.0004584676    
0.0326685910    0.0199574790    0.0004670413    
0.0328912520    0.0201118830    0.0004703971    
0.0331139130    0.0195170150    0.0004573603    
0.0333365740    0.0199460160    0.0004638608    
0.0335592350    0.0208551690    0.0004697539    
0.0337818960    0.0202726360    0.0004627780    
0.0340045570    0.0194922070    0.0004530622    
0.0342272170    0.0201432110    0.0004587491    
0.0344498780    0.0197133740    0.0004556255    
0.0346725390    0.0200956780    0.0004515028    
0.0348952000    0.0198727940    0.0004469466    
0.0351178610    0.0202478660    0.0004532095    
0.0353405220    0.0196014150    0.0004438846    
0.0355631830    0.0205215270    0.0004524729    
0.0357858440    0.0202521760    0.0004494938    
0.0360085050    0.0198628660    0.0004464975    
0.0362311660    0.0201970140    0.0004448854    
0.0364538270    0.0200862550    0.0004401030    
0.0366764880    0.0198741650    0.0004374557    
0.0368991490    0.0196742940    0.0004330562    
0.0371218100    0.0200547200    0.0004359722    
0.0373444710    0.0197384420    0.0004372308    
0.0375671320    0.0202217850    0.0004419073    
0.0377897930    0.0201780220    0.0004300015    
0.0380124540    0.0199031310    0.0004297419    
0.0382351150    0.0202742980    0.0004337307    
0.0384577760    0.0190294940    0.0004161503    
0.0386804370    0.0199216520    0.0004290431    
0.0389030980    0.0196392650    0.0004227655    
0.0391257590    0.0192478390    0.0004156900    
0.0393484200    0.0201261430    0.0004236379    
0.0395710810    0.0193756930    0.0004162246    
0.0397937420    0.0199568880    0.0004224212    
0.0400164030    0.0199753680    0.0004243360    
0.0402390640    0.0203245020    0.0004223287    
0.0404617250    0.0193135560    0.0004092627    
0.0406843860    0.0195205420    0.0004074746    
0.0409070470    0.0194951730    0.0004114517    
0.0411297080    0.0200225590    0.0004129460    
0.0413523690    0.0194410700    0.0004079544    
0.0415750300    0.0204867000    0.0004223389    
0.0417976910    0.0195894110    0.0004023052    
0.0420203520    0.0205110590    0.0004132071    
0.0422430130    0.0202472850    0.0004120958    
0.0424656740    0.0194703770    0.0003988525    
0.0426883350    0.0185666330    0.0003914190    
0.0429109960    0.0195131820    0.0004025262    
0.0431336570    0.0198792470    0.0004005601    
0.0433563180    0.0198624210    0.0004038446    
0.0435789790    0.0200387270    0.0003992602    
0.0438016400    0.0190349900    0.0003912493    
0.0440243010    0.0200453530    0.0003974250    
0.0442469620    0.0197918990    0.0003972708    
0.0444696230    0.0195235330    0.0003931533    
0.0446922840    0.0192346080    0.0003890745    
0.0449149450    0.0197120570    0.0003886083    
0.0451376060    0.0196366490    0.0003926545    
0.0453602670    0.0196883600    0.0003890494    
0.0455829280    0.0198422730    0.0003901155    
0.0458055890    0.0192285550    0.0003862745    
0.0460282500    0.0197067490    0.0003863326    
0.0462509110    0.0193426990    0.0003803670    
0.0464735720    0.0192522230    0.0003796906    
0.0466962330    0.0196014560    0.0003848605    
0.0469188940    0.0196182110    0.0003839335    
0.0471415550    0.0196456520    0.0003861751    
0.0473642160    0.0195421460    0.0003797635    
0.0475868770    0.0202106680    0.0003842860    
0.0478095380    0.0196068350    0.0003768455    
0.0480321990    0.0198237930    0.0003797550    
0.0482548600    0.0199326780    0.0003791374    
0.0484775210    0.0200583140    0.0003841067    
0.0487001820    0.0197181830    0.0003752612    
0.0489228430    0.0198182750    0.0003760103    
0.0491455040    0.0196646880    0.0003719599    
0.0493681650    0.0195961630    0.0003745022    
0.0495908260    0.0196479590    0.0003686874    
0.0498134870    0.0197629410    0.0003732846    
0.0500361480    0.0195462890    0.0003702506    
0.0502588090    0.0193596060    0.0003629572    
0.0504814700    0.0196875070    0.0003708030    
0.0507041310    0.0195289920    0.0003649163    
0.0509267920    0.0199452940    0.0003703110    
0.0511494530    0.0194902410    0.0003636214    
0.0513721140    0.0195934010    0.0003677931    
0.0515947750    0.0190840020    0.0003581680    
0.0518174360    0.0194259380    0.0003591857    
0.0520400970    0.0202054130    0.0003637811    
0.0522627580    0.0196110520    0.0003614365    
0.0524854190    0.0191729970    0.0003602827    
0.0527080800    0.0192854060    0.0003641349    
0.0529307410    0.0195016820    0.0003678908    
0.0531534020    0.0195735230    0.0003672260    
0.0533760630    0.0197863870    0.0003703732    
0.0535987240    0.0197668990    0.0003684624    
0.0538213850    0.0198199430    0.0003732311    
0.0540440460    0.0194517740    0.0003679985    
0.0542667070    0.0195090580    0.0003710798    
0.0544893680    0.0196146430    0.0003722808    
0.0547120290    0.0195837710    0.0003694394    
0.0549346900    0.0198346130    0.0003719935    
0.0551573510    0.0199329660    0.0003773045    
0.0553800120    0.0195042240    0.0003700518    
0.0556026730    0.0192972830    0.0003757152    
0.0558253340    0.0195771800    0.0003815990    
0.0560479950    0.0199193530    0.0003849195    
0.0562706560    0.0197604270    0.0003870875    
0.0564933170    0.0196190650    0.0003890497    
0.0567159780    0.0196334200    0.0003845258    
0.0569386390    0.0198268660    0.0003924766    
0.0571613000    0.0194062190    0.0003799303    
0.0573839610    0.0201606290    0.0003840294    
0.0576066220    0.0188748150    0.0003726099    
0.0578292830    0.0195319750    0.0003777867    
0.0580519440    0.0197942000    0.0003817889    
0.0582746050    0.0194959290    0.0003772307    
0.0584972660    0.0195352890    0.0003761659    
0.0587199270    0.0190219650    0.0003679910    
0.0589425880    0.0197147710    0.0003724411    
0.0591652490    0.0199047620    0.0003764336    
0.0593879100    0.0196242370    0.0003709957    
0.0596105710    0.0195058690    0.0003694850    
0.0598332320    0.0194848020    0.0003724420    
0.0600558930    0.0194901620    0.0003701183    
0.0602785540    0.0193507860    0.0003684027    
0.0605012150    0.0197023480    0.0003709509    
0.0607238760    0.0195951870    0.0003672448    
0.0609465370    0.0192477270    0.0003668397    
0.0611691980    0.0199119680    0.0003737072    
0.0613918590    0.0201108180    0.0003714684    
0.0616145200    0.0192992840    0.0003665596    
0.0618371810    0.0190039690    0.0003601718    
0.0620598420    0.0195425100    0.0003656160    
0.0622825030    0.0195948180    0.0003717038    
0.0625051640    0.0189934540    0.0003608159    
0.0627278250    0.0197958880    0.0003676004    
0.0629504860    0.0197976790    0.0003646284    
0.0631731470    0.0195197130    0.0003665391    
0.0633958080    0.0197868150    0.0003711623    
0.0636184690    0.0196332090    0.0003748680    
0.0638411300    0.0196992050    0.0003740880    
0.0640637910    0.0197467490    0.0003771734    
0.0642864520    0.0190444960    0.0003696045    
0.0645091130    0.0196425110    0.0003786519    
0.0647317740    0.0195322220    0.0003780037    
0.0649544350    0.0192921880    0.0003752605    
0.0651770960    0.0199631160    0.0003796477    
0.0653997570    0.0194884370    0.0003742935    
0.0656224180    0.0192989260    0.0003732791    
0.0658450790    0.0195196610    0.0003700119    
0.0660677400    0.0196507940    0.0003728327    
0.0662904010    0.0198475230    0.0003791674    
0.0665130620    0.0196757060    0.0003758850    
0.0667357230    0.0197790640    0.0003835717    
0.0669583840    0.0193513790    0.0003781326    
0.0671810450    0.0195182700    0.0003776630    
0.0674037060    0.0197015470    0.0003858600    
0.0676263670    0.0195705030    0.0003817590    
0.0678490280    0.0190670410    0.0003745121    
0.0680716890    0.0196544400    0.0003810832    
0.0682943500    0.0197033040    0.0003773776    
0.0685170110    0.0198632220    0.0003750449    
0.0687396720    0.0201522670    0.0003767602    
0.0689623330    0.0198567650    0.0003728025    
0.0691849940    0.0197922390    0.0003747751    
0.0694076550    0.0198349180    0.0003749787    
0.0696303160    0.0192430020    0.0003664171    
0.0698529770    0.0198572210    0.0003714389    
0.0700756380    0.0192897470    0.0003613935    
0.0702982990    0.0196706620    0.0003689186    
0.0705209600    0.0188284610    0.0003583287    
0.0707436210    0.0194870260    0.0003628674    
0.0709662820    0.0197053310    0.0003692442    
0.0711889430    0.0197575050    0.0003651916    
0.0714116040    0.0193299290    0.0003619558    
0.0716342650    0.0193010100    0.0003602164    
0.0718569260    0.0190858320    0.0003567601    
0.0720795870    0.0193481190    0.0003606562    
0.0723022480    0.0196364030    0.0003638867    
0.0725249090    0.0191030670    0.0003546128    
0.0727475700    0.0190692280    0.0003573248    
0.0729702310    0.0200379960    0.0003633675    
0.0731928920    0.0193881560    0.0003588554    
0.0734155530    0.0190462380    0.0003549673    
0.0736382140    0.0193576900    0.0003555612    
0.0738608750    0.0191785990    0.0003561991    
0.0740835360    0.0194982080    0.0003582632    
0.0743061970    0.0187609990    0.0003464767    
0.0745288580    0.0192794210    0.0003548426    
0.0747515190    0.0191982860    0.0003547945    
0.0749741800    0.0199193180    0.0003580504    
0.0751968410    0.0195273020    0.0003572931    
0.0754195020    0.0196997450    0.0003567647    
0.0756421630    0.0197857650    0.0003546200    
0.0758648240    0.0197277320    0.0003549509    
0.0760874850    0.0192366470    0.0003503368    
0.0763101460    0.0196264110    0.0003535286    
0.0765328070    0.0197701530    0.0003584515    
0.0767554680    0.0190860310    0.0003498052    
0.0769781290    0.0195707890    0.0003521841    
0.0772007900    0.0194514540    0.0003482927    
0.0774234510    0.0188722980    0.0003450198    
0.0776461120    0.0198186310    0.0003532290    
0.0778687730    0.0193001500    0.0003474263    
0.0780914340    0.0197609180    0.0003540610    
0.0783140950    0.0193231640    0.0003445624    
0.0785367560    0.0197292530    0.0003537777    
0.0787594170    0.0204614350    0.0003570545    
0.0789820780    0.0192347380    0.0003444122    
0.0792047390    0.0195903890    0.0003487182    
0.0794274000    0.0201448740    0.0003551171    
0.0796500610    0.0200850350    0.0003511284    
0.0798727220    0.0194842760    0.0003455180    
0.0800953830    0.0194435540    0.0003443630    
0.0803180440    0.0197772360    0.0003497248    
0.0805407050    0.0194503490    0.0003465000    
0.0807633660    0.0194697090    0.0003463506    
0.0809860270    0.0193995720    0.0003444495    
0.0812086880    0.0198110490    0.0003450753    
0.0814313490    0.0194280670    0.0003432821    
0.0816540100    0.0190196910    0.0003388818    
0.0818766710    0.0197253380    0.0003458989    
0.0820993320    0.0196232900    0.0003443743    
0.0823219930    0.0191578670    0.0003416692    
0.0825446540    0.0199314130    0.0003459668    
0.0827673150    0.0190009230    0.0003355253    
0.0829899760    0.0181894600    0.0003276981    
0.0832126370    0.0199730050    0.0003449266    
0.0834352980    0.0190654290    0.0003362452    
0.0836579590    0.0191341450    0.0003361008    
0.0838806200    0.0196224110    0.0003414272    
0.0841032810    0.0192445990    0.0003360253    
0.0843259420    0.0193886540    0.0003362419    
0.0845486030    0.0197093980    0.0003390120    
0.0847712640    0.0195620690    0.0003356842    
0.0849939250    0.0199828640    0.0003398663    
0.0852165860    0.0189920500    0.0003317673    
0.0854392470    0.0198622890    0.0003360702    
0.0856619080    0.0196481420    0.0003367154    
0.0858845690    0.0192504780    0.0003302887    
0.0861072300    0.0194942000    0.0003346675    
0.0863298910    0.0199717630    0.0003405157    
0.0865525520    0.0193886930    0.0003326112    
0.0867752130    0.0196721650    0.0003323304    
0.0869978740    0.0190841350    0.0003281600    
0.0872205350    0.0194127150    0.0003305519    
0.0874431960    0.0199249400    0.0003348848    
0.0876658570    0.0192558260    0.0003304778    
0.0878885180    0.0195097260    0.0003332198    
0.0881111790    0.0200046500    0.0003369869    
0.0883338400    0.0191751250    0.0003250955    
0.0885565010    0.0191891130    0.0003296242    
0.0887791620    0.0195386500    0.0003282996    
0.0890018230    0.0190647020    0.0003274388    
0.0892244840    0.0190900770    0.0003282137    
0.0894471450    0.0198467860    0.0003332419    
0.0896698060    0.0191975520    0.0003265098    
0.0898924670    0.0192246080    0.0003282543    
0.0901151280    0.0201497450    0.0003324298    
0.0903377890    0.0192225410    0.0003274087    
0.0905604500    0.0191570220    0.0003253502    
0.0907831110    0.0191442940    0.0003244330    
0.0910057720    0.0187988290    0.0003229677    
0.0912284330    0.0190891740    0.0003207925    
0.0914510940    0.0193684670    0.0003267340    
0.0916737550    0.0195741030    0.0003276488    
0.0918964160    0.0196155880    0.0003293599    
0.0921190770    0.0194362550    0.0003248866    
0.0923417380    0.0192130610    0.0003231483    
0.0925643990    0.0194869210    0.0003246468    
0.0927870600    0.0191017790    0.0003227407    
0.0930097210    0.0197909210    0.0003257131    
0.0932323820    0.0197348180    0.0003276419    
