# Diamond Light Source Ltd.
# Data extracted from: /dls/b21/data/2018/cm19678-3/processed/b21-386631_00138.dat
q(1/A)          Column          Error           
0.0035000000    2.0960654000    0.0245865380    
0.0037226610    1.8871223000    0.0228377480    
0.0039453220    1.6319760000    0.0193204300    
0.0041679830    1.3246186000    0.0142945370    
0.0043906440    0.9910163900    0.0118263420    
0.0046133050    0.7915524100    0.0101464400    
0.0048359660    0.6002393000    0.0083576418    
0.0050586270    0.4735374500    0.0072964254    
0.0052812880    0.4291429200    0.0065673175    
0.0055039490    0.3870836200    0.0059306186    
0.0057266100    0.3279144300    0.0052807063    
0.0059492710    0.2785061900    0.0048666397    
0.0061719320    0.2230783200    0.0041970886    
0.0063945930    0.1986702100    0.0040088386    
0.0066172539    0.1902922800    0.0036840732    
0.0068399149    0.1647917600    0.0033743591    
0.0070625759    0.1473502100    0.0031580684    
0.0072852369    0.1230741000    0.0028430328    
0.0075078979    0.1167951100    0.0027559511    
0.0077305589    0.0989963500    0.0024889487    
0.0079532199    0.1000446700    0.0024674197    
0.0081758809    0.0940417040    0.0024145027    
0.0083985419    0.0830489920    0.0021162843    
0.0086212029    0.0779797800    0.0020506798    
0.0088438639    0.0735482100    0.0019755612    
0.0090665249    0.0647473360    0.0017902679    
0.0092891859    0.0655763880    0.0018805319    
0.0095118469    0.0612443210    0.0017476990    
0.0097345079    0.0559818210    0.0016228319    
0.0099571689    0.0530651310    0.0015474106    
0.0101798300    0.0494552670    0.0014938510    
0.0104024910    0.0476421070    0.0014612493    
0.0106251520    0.0479662110    0.0014711901    
0.0108478130    0.0439927370    0.0013720958    
0.0110704740    0.0430960640    0.0012929466    
0.0112931350    0.0417108010    0.0012757327    
0.0115157960    0.0396446420    0.0012364824    
0.0117384570    0.0391924500    0.0012188272    
0.0119611180    0.0362154900    0.0011749857    
0.0121837790    0.0361138400    0.0011536143    
0.0124064400    0.0387836560    0.0011456618    
0.0126291010    0.0330007830    0.0010435764    
0.0128517620    0.0322703180    0.0010345389    
0.0130744230    0.0333618560    0.0010440885    
0.0132970840    0.0331981660    0.0010364311    
0.0135197450    0.0332601280    0.0010225418    
0.0137424060    0.0320348250    0.0009895590    
0.0139650670    0.0318216670    0.0009642929    
0.0141877280    0.0293796530    0.0009286020    
0.0144103890    0.0299343060    0.0009211646    
0.0146330500    0.0288556960    0.0008986741    
0.0148557110    0.0284199570    0.0008881236    
0.0150783720    0.0292624030    0.0008937429    
0.0153010330    0.0273817550    0.0008523568    
0.0155236940    0.0284728550    0.0008640047    
0.0157463550    0.0274188350    0.0008331722    
0.0159690160    0.0268844900    0.0008218828    
0.0161916770    0.0276258470    0.0008284441    
0.0164143380    0.0261544270    0.0008121866    
0.0166369990    0.0237847180    0.0007506390    
0.0168596600    0.0262069200    0.0007809924    
0.0170823210    0.0254577350    0.0007630837    
0.0173049820    0.0245588860    0.0007507870    
0.0175276430    0.0239545110    0.0007493106    
0.0177503040    0.0258872810    0.0007590958    
0.0179729650    0.0235216780    0.0007164055    
0.0181956260    0.0243917140    0.0007155488    
0.0184182870    0.0223948640    0.0006824025    
0.0186409480    0.0241743550    0.0007134835    
0.0188636090    0.0238920300    0.0007048440    
0.0190862700    0.0239624760    0.0007047787    
0.0193089310    0.0232885730    0.0006937147    
0.0195315920    0.0232548210    0.0006696369    
0.0197542530    0.0226844460    0.0006623373    
0.0199769140    0.0227037930    0.0006626197    
0.0201995750    0.0229352120    0.0006555594    
0.0204222360    0.0228922520    0.0006605672    
0.0206448970    0.0217412030    0.0006391708    
0.0208675580    0.0227296290    0.0006400808    
0.0210902190    0.0228763850    0.0006483399    
0.0213128800    0.0222240200    0.0006303577    
0.0215355410    0.0219595080    0.0006191306    
0.0217582020    0.0221340760    0.0006215868    
0.0219808630    0.0221282200    0.0006206885    
0.0222035240    0.0214725680    0.0006058836    
0.0224261850    0.0213775310    0.0005991607    
0.0226488460    0.0212065530    0.0005922786    
0.0228715070    0.0214140520    0.0005936906    
0.0230941680    0.0220066090    0.0006018488    
0.0233168290    0.0209088260    0.0005881067    
0.0235394900    0.0214691180    0.0005893574    
0.0237621510    0.0207883140    0.0005643251    
0.0239848120    0.0210821200    0.0005689564    
0.0242074730    0.0219396540    0.0005757666    
0.0244301340    0.0210962310    0.0005652354    
0.0246527950    0.0209642370    0.0005686818    
0.0248754560    0.0209464200    0.0005556647    
0.0250981170    0.0212176180    0.0005604973    
0.0253207780    0.0199695310    0.0005275271    
0.0255434390    0.0211240320    0.0005483526    
0.0257661000    0.0204013090    0.0005406336    
0.0259887610    0.0211620300    0.0005447694    
0.0262114220    0.0201124960    0.0005339183    
0.0264340830    0.0205066880    0.0005317899    
0.0266567440    0.0210440520    0.0005353837    
0.0268794050    0.0219398970    0.0005444294    
0.0271020660    0.0205163570    0.0005243396    
0.0273247270    0.0208797090    0.0005257855    
0.0275473880    0.0206120730    0.0005213654    
0.0277700490    0.0211380030    0.0005248540    
0.0279927100    0.0209116130    0.0005174810    
0.0282153710    0.0204818480    0.0005146258    
0.0284380320    0.0197849580    0.0005028630    
0.0286606930    0.0205658430    0.0005083024    
0.0288833540    0.0202909460    0.0005058529    
0.0291060150    0.0207307580    0.0005108206    
0.0293286760    0.0201692780    0.0004968345    
0.0295513370    0.0207980550    0.0004990256    
0.0297739980    0.0203161630    0.0004986406    
0.0299966590    0.0200774220    0.0004872357    
0.0302193200    0.0199244130    0.0004924489    
0.0304419810    0.0206086160    0.0005017545    
0.0306646420    0.0216651430    0.0004999353    
0.0308873030    0.0207006810    0.0004865700    
0.0311099640    0.0198771210    0.0004780309    
0.0313326250    0.0201024990    0.0004754078    
0.0315552860    0.0205000240    0.0004863072    
0.0317779470    0.0206975400    0.0004890699    
0.0320006080    0.0201650520    0.0004717697    
0.0322232690    0.0199669490    0.0004714118    
0.0324459300    0.0198672880    0.0004667233    
0.0326685910    0.0192226460    0.0004583321    
0.0328912520    0.0209122650    0.0004796341    
0.0331139130    0.0206396420    0.0004702990    
0.0333365740    0.0201806640    0.0004665504    
0.0335592350    0.0201541500    0.0004617607    
0.0337818960    0.0201115060    0.0004609047    
0.0340045570    0.0206899560    0.0004667435    
0.0342272170    0.0201927730    0.0004592826    
0.0344498780    0.0198055240    0.0004566589    
0.0346725390    0.0205595850    0.0004566542    
0.0348952000    0.0195987920    0.0004438252    
0.0351178610    0.0200321820    0.0004507593    
0.0353405220    0.0199103870    0.0004473397    
0.0355631830    0.0205487310    0.0004527427    
0.0357858440    0.0197906350    0.0004443129    
0.0360085050    0.0202315450    0.0004505923    
0.0362311660    0.0202923200    0.0004459043    
0.0364538270    0.0202089330    0.0004414157    
0.0366764880    0.0197559980    0.0004361243    
0.0368991490    0.0202911910    0.0004397640    
0.0371218100    0.0198625330    0.0004338494    
0.0373444710    0.0204137000    0.0004446174    
0.0375671320    0.0202384160    0.0004420597    
0.0377897930    0.0201661850    0.0004298468    
0.0380124540    0.0197427730    0.0004279789    
0.0382351150    0.0200118370    0.0004308855    
0.0384577760    0.0201826020    0.0004285450    
0.0386804370    0.0200853100    0.0004307733    
0.0389030980    0.0201826300    0.0004285455    
0.0391257590    0.0204301650    0.0004282385    
0.0393484200    0.0199897350    0.0004221718    
0.0395710810    0.0194535850    0.0004170328    
0.0397937420    0.0196502800    0.0004191359    
0.0400164030    0.0185486720    0.0004088746    
0.0402390640    0.0198128850    0.0004169517    
0.0404617250    0.0199960290    0.0004164032    
0.0406843860    0.0198071090    0.0004104274    
0.0409070470    0.0192755220    0.0004091002    
0.0411297080    0.0200539670    0.0004132424    
0.0413523690    0.0199263810    0.0004129875    
0.0415750300    0.0196830800    0.0004139451    
0.0417976910    0.0211729240    0.0004182217    
0.0420203520    0.0199423620    0.0004074114    
0.0422430130    0.0199846250    0.0004093869    
0.0424656740    0.0194106100    0.0003982135    
0.0426883350    0.0196120160    0.0004022607    
0.0429109960    0.0200834590    0.0004083387    
0.0431336570    0.0193359160    0.0003950221    
0.0433563180    0.0195313910    0.0004004386    
0.0435789790    0.0196065550    0.0003949052    
0.0438016400    0.0199410720    0.0004004264    
0.0440243010    0.0195699900    0.0003926583    
0.0442469620    0.0197015710    0.0003963369    
0.0444696230    0.0192676320    0.0003905423    
0.0446922840    0.0204596360    0.0004012465    
0.0449149450    0.0197937050    0.0003893865    
0.0451376060    0.0202542340    0.0003987548    
0.0453602670    0.0194705210    0.0003868655    
0.0455829280    0.0195328840    0.0003870365    
0.0458055890    0.0196372150    0.0003903317    
0.0460282500    0.0193027840    0.0003823271    
0.0462509110    0.0201179280    0.0003878887    
0.0464735720    0.0194817750    0.0003819222    
0.0466962330    0.0198708540    0.0003874705    
0.0469188940    0.0199611940    0.0003872494    
0.0471415550    0.0195216060    0.0003849285    
0.0473642160    0.0201741480    0.0003858300    
0.0475868770    0.0193020620    0.0003755237    
0.0478095380    0.0201401470    0.0003819110    
0.0480321990    0.0198357120    0.0003798440    
0.0482548600    0.0204491980    0.0003839929    
0.0484775210    0.0188421660    0.0003722556    
0.0487001820    0.0193585320    0.0003717985    
0.0489228430    0.0197015190    0.0003748762    
0.0491455040    0.0197324290    0.0003725753    
0.0493681650    0.0190496970    0.0003692190    
0.0495908260    0.0196522720    0.0003687034    
0.0498134870    0.0194853820    0.0003706294    
0.0500361480    0.0196278470    0.0003709977    
0.0502588090    0.0196359990    0.0003655147    
0.0504814700    0.0194614430    0.0003686435    
0.0507041310    0.0196423060    0.0003659492    
0.0509267920    0.0194476930    0.0003656382    
0.0511494530    0.0200099500    0.0003684131    
0.0513721140    0.0197426700    0.0003691670    
0.0515947750    0.0193099930    0.0003602585    
0.0518174360    0.0192241490    0.0003572916    
0.0520400970    0.0199407870    0.0003613671    
0.0522627580    0.0198415690    0.0003635304    
0.0524854190    0.0192990700    0.0003614413    
0.0527080800    0.0193790920    0.0003649941    
0.0529307410    0.0194852180    0.0003677111    
0.0531534020    0.0192678230    0.0003643229    
0.0533760630    0.0201580880    0.0003738111    
0.0535987240    0.0199084930    0.0003697552    
0.0538213850    0.0200632750    0.0003754903    
0.0540440460    0.0198529360    0.0003717491    
0.0542667070    0.0195488160    0.0003714331    
0.0544893680    0.0198098590    0.0003741040    
0.0547120290    0.0190585460    0.0003644275    
0.0549346900    0.0193646100    0.0003675353    
0.0551573510    0.0198303510    0.0003763071    
0.0553800120    0.0200562200    0.0003752269    
0.0556026730    0.0195360920    0.0003780078    
0.0558253340    0.0193737810    0.0003795863    
0.0560479950    0.0195671660    0.0003814763    
0.0562706560    0.0195455200    0.0003849513    
0.0564933170    0.0195007550    0.0003878492    
0.0567159780    0.0191338340    0.0003795768    
0.0569386390    0.0193581500    0.0003877839    
0.0571613000    0.0196862600    0.0003826364    
0.0573839610    0.0199239020    0.0003817428    
0.0576066220    0.0198284320    0.0003818813    
0.0578292830    0.0202819210    0.0003849456    
0.0580519440    0.0201965380    0.0003856240    
0.0582746050    0.0198509530    0.0003806247    
0.0584972660    0.0188808860    0.0003697872    
0.0587199270    0.0192756930    0.0003704125    
0.0589425880    0.0199161730    0.0003743139    
0.0591652490    0.0196245190    0.0003737495    
0.0593879100    0.0192780110    0.0003676841    
0.0596105710    0.0190274220    0.0003649013    
0.0598332320    0.0194395110    0.0003719842    
0.0600558930    0.0196492140    0.0003716008    
0.0602785540    0.0199162550    0.0003737219    
0.0605012150    0.0192667750    0.0003668032    
0.0607238760    0.0197233440    0.0003684194    
0.0609465370    0.0203916370    0.0003775582    
0.0611691980    0.0195095980    0.0003698876    
0.0613918590    0.0195798930    0.0003665079    
0.0616145200    0.0200694300    0.0003737771    
0.0618371810    0.0193154100    0.0003630870    
0.0620598420    0.0199707950    0.0003695761    
0.0622825030    0.0204452820    0.0003796593    
0.0625051640    0.0192239530    0.0003629746    
0.0627278250    0.0196226320    0.0003659640    
0.0629504860    0.0191772980    0.0003588462    
0.0631731470    0.0192349670    0.0003638317    
0.0633958080    0.0193247420    0.0003667786    
0.0636184690    0.0194660040    0.0003732436    
0.0638411300    0.0201369790    0.0003781967    
0.0640637910    0.0194992200    0.0003747772    
0.0642864520    0.0193718890    0.0003727431    
0.0645091130    0.0188516830    0.0003709266    
0.0647317740    0.0193321430    0.0003760377    
0.0649544350    0.0196326540    0.0003785322    
0.0651770960    0.0199460310    0.0003794600    
0.0653997570    0.0205065070    0.0003839201    
0.0656224180    0.0202059610    0.0003819250    
0.0658450790    0.0199518770    0.0003740612    
0.0660677400    0.0196269710    0.0003725819    
0.0662904010    0.0192944500    0.0003738224    
0.0665130620    0.0196084780    0.0003752175    
0.0667357230    0.0201557570    0.0003871814    
0.0669583840    0.0201097640    0.0003854454    
0.0671810450    0.0196472000    0.0003788831    
0.0674037060    0.0192833450    0.0003817175    
0.0676263670    0.0191881650    0.0003779865    
0.0678490280    0.0196897000    0.0003805528    
0.0680716890    0.0197626530    0.0003821056    
0.0682943500    0.0197006920    0.0003773276    
0.0685170110    0.0191029830    0.0003677733    
0.0687396720    0.0192974110    0.0003686581    
0.0689623330    0.0195672030    0.0003700498    
0.0691849940    0.0193780710    0.0003708085    
0.0694076550    0.0199811370    0.0003763333    
0.0696303160    0.0198683120    0.0003722982    
0.0698529770    0.0194030320    0.0003671421    
0.0700756380    0.0194225860    0.0003626117    
0.0702982990    0.0191491980    0.0003639716    
0.0705209600    0.0198419260    0.0003678217    
0.0707436210    0.0197952210    0.0003657013    
0.0709662820    0.0190455000    0.0003629855    
0.0711889430    0.0197211400    0.0003648311    
0.0714116040    0.0193273670    0.0003619078    
0.0716342650    0.0192648420    0.0003598549    
0.0718569260    0.0190366270    0.0003562763    
0.0720795870    0.0204546630    0.0003708014    
0.0723022480    0.0192831960    0.0003605753    
0.0725249090    0.0195086090    0.0003583333    
0.0727475700    0.0199102410    0.0003650951    
0.0729702310    0.0189218990    0.0003530795    
0.0731928920    0.0199301620    0.0003638127    
0.0734155530    0.0198771640    0.0003626037    
0.0736382140    0.0194334840    0.0003562330    
0.0738608750    0.0193414240    0.0003576842    
0.0740835360    0.0200221750    0.0003630209    
0.0743061970    0.0200380830    0.0003580513    
0.0745288580    0.0183038790    0.0003457256    
0.0747515190    0.0193793070    0.0003564397    
0.0749741800    0.0187326160    0.0003471981    
0.0751968410    0.0195770050    0.0003577238    
0.0754195020    0.0195873100    0.0003557216    
0.0756421630    0.0202407020    0.0003586500    
0.0758648240    0.0191312560    0.0003495204    
0.0760874850    0.0196487620    0.0003540461    
0.0763101460    0.0197193180    0.0003543409    
0.0765328070    0.0190397330    0.0003517443    
0.0767554680    0.0190193980    0.0003491709    
0.0769781290    0.0198660270    0.0003548071    
0.0772007900    0.0197232430    0.0003506943    
0.0774234510    0.0196266060    0.0003518240    
0.0776461120    0.0195138540    0.0003504792    
0.0778687730    0.0201042630    0.0003545665    
0.0780914340    0.0196504680    0.0003530467    
0.0783140950    0.0194864710    0.0003459924    
0.0785367560    0.0194158330    0.0003509331    
0.0787594170    0.0194121130    0.0003477556    
0.0789820780    0.0198857980    0.0003501694    
0.0792047390    0.0200036290    0.0003523535    
0.0794274000    0.0191219490    0.0003459605    
0.0796500610    0.0194256450    0.0003452936    
0.0798727220    0.0195735880    0.0003462861    
0.0800953830    0.0193312090    0.0003433440    
0.0803180440    0.0191995550    0.0003445564    
0.0805407050    0.0192194100    0.0003444140    
0.0807633660    0.0192453510    0.0003443264    
0.0809860270    0.0192013180    0.0003426622    
0.0812086880    0.0200127570    0.0003468046    
0.0814313490    0.0200137750    0.0003483951    
0.0816540100    0.0194578850    0.0003427405    
0.0818766710    0.0193103160    0.0003422180    
0.0820993320    0.0202672580    0.0003499560    
0.0823219930    0.0201179670    0.0003501028    
0.0825446540    0.0198507130    0.0003452429    
0.0827673150    0.0196263520    0.0003409800    
0.0829899760    0.0202885050    0.0003460671    
0.0832126370    0.0195117480    0.0003408978    
0.0834352980    0.0194957450    0.0003399961    
0.0836579590    0.0199403180    0.0003430854    
0.0838806200    0.0195722900    0.0003409682    
0.0841032810    0.0190543200    0.0003343378    
0.0843259420    0.0191703590    0.0003343215    
0.0845486030    0.0198350550    0.0003400684    
0.0847712640    0.0190007980    0.0003308116    
0.0849939250    0.0195871990    0.0003364624    
0.0852165860    0.0193314250    0.0003346963    
0.0854392470    0.0195696920    0.0003335635    
0.0856619080    0.0195589930    0.0003359283    
0.0858845690    0.0194235770    0.0003317484    
0.0861072300    0.0197271470    0.0003366388    
0.0863298910    0.0195801830    0.0003371387    
0.0865525520    0.0193747120    0.0003324692    
0.0867752130    0.0191531190    0.0003278951    
0.0869978740    0.0196345320    0.0003328365    
0.0872205350    0.0191906590    0.0003286342    
0.0874431960    0.0198322540    0.0003340828    
0.0876658570    0.0197239710    0.0003344487    
0.0878885180    0.0192795180    0.0003312260    
0.0881111790    0.0197238770    0.0003345915    
0.0883338400    0.0198724730    0.0003309322    
0.0885565010    0.0198546180    0.0003352692    
0.0887791620    0.0195415760    0.0003283024    
0.0890018230    0.0192814740    0.0003292733    
0.0892244840    0.0192793810    0.0003298152    
0.0894471450    0.0194860990    0.0003301780    
0.0896698060    0.0186397570    0.0003217100    
0.0898924670    0.0188858140    0.0003253275    
0.0901151280    0.0197577310    0.0003291584    
0.0903377890    0.0194430270    0.0003292592    
0.0905604500    0.0196075160    0.0003291316    
0.0907831110    0.0192681950    0.0003254595    
0.0910057720    0.0199392070    0.0003325974    
0.0912284330    0.0200029750    0.0003283592    
0.0914510940    0.0189029700    0.0003227624    
0.0916737550    0.0195660240    0.0003275595    
0.0918964160    0.0193143970    0.0003267998    
0.0921190770    0.0197757630    0.0003276901    
0.0923417380    0.0191833420    0.0003228769    
0.0925643990    0.0195816780    0.0003254136    
0.0927870600    0.0195790440    0.0003267261    
0.0930097210    0.0196811020    0.0003247866    
0.0932323820    0.0198899290    0.0003289052    
