# Diamond Light Source Ltd.
# Data extracted from: /dls/b21/data/2018/cm19678-3/processed/b21-386631_00141.dat
q(1/A)          Column          Error           
0.0035000000    2.0885951000    0.0245445450    
0.0037226610    1.8849204000    0.0228261500    
0.0039453220    1.6475504000    0.0194138720    
0.0041679830    1.2918029000    0.0141174330    
0.0043906440    0.9766279400    0.0117410650    
0.0046133050    0.7920626000    0.0101504790    
0.0048359660    0.5966058300    0.0083329388    
0.0050586270    0.4591040700    0.0071849121    
0.0052812880    0.4328265600    0.0065959430    
0.0055039490    0.3835980100    0.0059043035    
0.0057266100    0.3192887200    0.0052111843    
0.0059492710    0.2642595000    0.0047408911    
0.0061719320    0.2218484800    0.0041858203    
0.0063945930    0.2076806600    0.0040990491    
0.0066172539    0.1841149900    0.0036240580    
0.0068399149    0.1673736400    0.0034009479    
0.0070625759    0.1456801500    0.0031403587    
0.0072852369    0.1278220300    0.0028975724    
0.0075078979    0.1156420800    0.0027425214    
0.0077305589    0.1038930700    0.0025499552    
0.0079532199    0.0989642810    0.0024542466    
0.0081758809    0.0907698860    0.0023723090    
0.0083985419    0.0844099780    0.0021337160    
0.0086212029    0.0793399980    0.0020686444    
0.0088438639    0.0718079410    0.0019521967    
0.0090665249    0.0649056730    0.0017925914    
0.0092891859    0.0626737740    0.0018385811    
0.0095118469    0.0622512170    0.0017621406    
0.0097345079    0.0587192430    0.0016621613    
0.0099571689    0.0563676800    0.0015949569    
0.0101798300    0.0516741430    0.0015271108    
0.0104024910    0.0518629070    0.0015247203    
0.0106251520    0.0475673070    0.0014651708    
0.0108478130    0.0488787150    0.0014463944    
0.0110704740    0.0419387070    0.0012755638    
0.0112931350    0.0417171210    0.0012759260    
0.0115157960    0.0410006230    0.0012575458    
0.0117384570    0.0386676560    0.0012107313    
0.0119611180    0.0385086190    0.0012117060    
0.0121837790    0.0374461440    0.0011747900    
0.0124064400    0.0356078430    0.0010978368    
0.0126291010    0.0359102920    0.0010886906    
0.0128517620    0.0348625320    0.0010753691    
0.0130744230    0.0334976340    0.0010462903    
0.0132970840    0.0316174690    0.0010115325    
0.0135197450    0.0328878690    0.0010168804    
0.0137424060    0.0314893790    0.0009811728    
0.0139650670    0.0315926860    0.0009608901    
0.0141877280    0.0297070070    0.0009338318    
0.0144103890    0.0305625670    0.0009308516    
0.0146330500    0.0289720380    0.0009005522    
0.0148557110    0.0279801340    0.0008812914    
0.0150783720    0.0274649610    0.0008659244    
0.0153010330    0.0273062940    0.0008512460    
0.0155236940    0.0279789500    0.0008565431    
0.0157463550    0.0264607790    0.0008185486    
0.0159690160    0.0252802760    0.0007970450    
0.0161916770    0.0259901210    0.0008036047    
0.0164143380    0.0258556890    0.0008075960    
0.0166369990    0.0253994830    0.0007757602    
0.0168596600    0.0260013900    0.0007779828    
0.0170823210    0.0269485680    0.0007851688    
0.0173049820    0.0244478290    0.0007491443    
0.0175276430    0.0247786250    0.0007621487    
0.0177503040    0.0248893940    0.0007443778    
0.0179729650    0.0245072790    0.0007313162    
0.0181956260    0.0240175120    0.0007100926    
0.0184182870    0.0237084620    0.0007021840    
0.0186409480    0.0233355780    0.0007010495    
0.0188636090    0.0227102260    0.0006872427    
0.0190862700    0.0225978000    0.0006844676    
0.0193089310    0.0236021120    0.0006984218    
0.0195315920    0.0226219230    0.0006605117    
0.0197542530    0.0225524910    0.0006604581    
0.0199769140    0.0219529050    0.0006516195    
0.0201995750    0.0226388350    0.0006513593    
0.0204222360    0.0229529130    0.0006614919    
0.0206448970    0.0219700240    0.0006425742    
0.0208675580    0.0230756010    0.0006449827    
0.0210902190    0.0229533600    0.0006494789    
0.0213128800    0.0226386750    0.0006362593    
0.0215355410    0.0225040500    0.0006268076    
0.0217582020    0.0218231760    0.0006172526    
0.0219808630    0.0213480000    0.0006096941    
0.0222035240    0.0215955120    0.0006076617    
0.0224261850    0.0215151350    0.0006011315    
0.0226488460    0.0219211700    0.0006022208    
0.0228715070    0.0225696490    0.0006095454    
0.0230941680    0.0215490030    0.0005956037    
0.0233168290    0.0208458170    0.0005872644    
0.0235394900    0.0222167030    0.0005995761    
0.0237621510    0.0210212880    0.0005675214    
0.0239848120    0.0214538860    0.0005739945    
0.0242074730    0.0204770910    0.0005562866    
0.0244301340    0.0211600150    0.0005661321    
0.0246527950    0.0209211280    0.0005681399    
0.0248754560    0.0205515370    0.0005504437    
0.0250981170    0.0201990340    0.0005469195    
0.0253207780    0.0207391240    0.0005376368    
0.0255434390    0.0212268900    0.0005497276    
0.0257661000    0.0202467820    0.0005386230    
0.0259887610    0.0206322490    0.0005379479    
0.0262114220    0.0207818090    0.0005427707    
0.0264340830    0.0210890900    0.0005393294    
0.0266567440    0.0206930470    0.0005309401    
0.0268794050    0.0207676910    0.0005297260    
0.0271020660    0.0210287670    0.0005308873    
0.0273247270    0.0205783030    0.0005220163    
0.0275473880    0.0211427760    0.0005280746    
0.0277700490    0.0209587300    0.0005226632    
0.0279927100    0.0210812800    0.0005196155    
0.0282153710    0.0198124660    0.0005061848    
0.0284380320    0.0199030030    0.0005043991    
0.0286606930    0.0202171390    0.0005040129    
0.0288833540    0.0212904320    0.0005182010    
0.0291060150    0.0200415110    0.0005022951    
0.0293286760    0.0201600940    0.0004967590    
0.0295513370    0.0203102160    0.0004931756    
0.0297739980    0.0197929000    0.0004922145    
0.0299966590    0.0195364710    0.0004806634    
0.0302193200    0.0212664770    0.0005088023    
0.0304419810    0.0201963270    0.0004967478    
0.0306646420    0.0198454170    0.0004785155    
0.0308873030    0.0208982740    0.0004889237    
0.0311099640    0.0210299380    0.0004917350    
0.0313326250    0.0205215990    0.0004803743    
0.0315552860    0.0199493030    0.0004797668    
0.0317779470    0.0198106970    0.0004785137    
0.0320006080    0.0203999250    0.0004745452    
0.0322232690    0.0202148680    0.0004743654    
0.0324459300    0.0197277410    0.0004651165    
0.0326685910    0.0202748220    0.0004707443    
0.0328912520    0.0204203290    0.0004739950    
0.0331139130    0.0207285130    0.0004713461    
0.0333365740    0.0200219070    0.0004647469    
0.0335592350    0.0201677850    0.0004619519    
0.0337818960    0.0202624550    0.0004626662    
0.0340045570    0.0199454020    0.0004583031    
0.0342272170    0.0194853740    0.0004512002    
0.0344498780    0.0202508210    0.0004617990    
0.0346725390    0.0196497050    0.0004464689    
0.0348952000    0.0196419700    0.0004443475    
0.0351178610    0.0208366260    0.0004597557    
0.0353405220    0.0200038740    0.0004484227    
0.0355631830    0.0192548840    0.0004382907    
0.0357858440    0.0197138210    0.0004434834    
0.0360085050    0.0209974240    0.0004590766    
0.0362311660    0.0195408100    0.0004376027    
0.0364538270    0.0191705380    0.0004299581    
0.0366764880    0.0197493620    0.0004360841    
0.0368991490    0.0193601000    0.0004295885    
0.0371218100    0.0206237700    0.0004421184    
0.0373444710    0.0202908830    0.0004433114    
0.0375671320    0.0195847930    0.0004348956    
0.0377897930    0.0193353460    0.0004209308    
0.0380124540    0.0187250720    0.0004168338    
0.0382351150    0.0193189420    0.0004233923    
0.0384577760    0.0202129630    0.0004288997    
0.0386804370    0.0203193610    0.0004333087    
0.0389030980    0.0208591510    0.0004357018    
0.0391257590    0.0197329990    0.0004209003    
0.0393484200    0.0192793730    0.0004146341    
0.0395710810    0.0192151140    0.0004145002    
0.0397937420    0.0198052620    0.0004208174    
0.0400164030    0.0194979870    0.0004192389    
0.0402390640    0.0197369040    0.0004161830    
0.0404617250    0.0198776420    0.0004152002    
0.0406843860    0.0201503440    0.0004139996    
0.0409070470    0.0192176540    0.0004085166    
0.0411297080    0.0198015020    0.0004106640    
0.0413523690    0.0193986350    0.0004075128    
0.0415750300    0.0200517480    0.0004178354    
0.0417976910    0.0199285340    0.0004057763    
0.0420203520    0.0203949050    0.0004120393    
0.0422430130    0.0199624900    0.0004091912    
0.0424656740    0.0207453730    0.0004117086    
0.0426883350    0.0194582000    0.0004007105    
0.0429109960    0.0198124820    0.0004056053    
0.0431336570    0.0194599160    0.0003963167    
0.0433563180    0.0199449080    0.0004046861    
0.0435789790    0.0202459410    0.0004013230    
0.0438016400    0.0202416470    0.0004034635    
0.0440243010    0.0192498910    0.0003894633    
0.0442469620    0.0194254550    0.0003935796    
0.0444696230    0.0198089230    0.0003960201    
0.0446922840    0.0192979340    0.0003897181    
0.0449149450    0.0197813820    0.0003892947    
0.0451376060    0.0195899110    0.0003921906    
0.0453602670    0.0197425480    0.0003895881    
0.0455829280    0.0204025690    0.0003955889    
0.0458055890    0.0193608360    0.0003876045    
0.0460282500    0.0200933880    0.0003901077    
0.0462509110    0.0192757450    0.0003797117    
0.0464735720    0.0194098430    0.0003812453    
0.0466962330    0.0196547240    0.0003853867    
0.0469188940    0.0199116220    0.0003867975    
0.0471415550    0.0199193070    0.0003888591    
0.0473642160    0.0198008200    0.0003822723    
0.0475868770    0.0195461170    0.0003779189    
0.0478095380    0.0201431990    0.0003819689    
0.0480321990    0.0197223190    0.0003787854    
0.0482548600    0.0192695820    0.0003727813    
0.0484775210    0.0189994890    0.0003738348    
0.0487001820    0.0202041990    0.0003798614    
0.0489228430    0.0197116380    0.0003750009    
0.0491455040    0.0202912470    0.0003778428    
0.0493681650    0.0198184080    0.0003766234    
0.0495908260    0.0193024100    0.0003654344    
0.0498134870    0.0191216950    0.0003671821    
0.0500361480    0.0200305910    0.0003748130    
0.0502588090    0.0191762400    0.0003612376    
0.0504814700    0.0200859670    0.0003745401    
0.0507041310    0.0198089370    0.0003675260    
0.0509267920    0.0197944120    0.0003689111    
0.0511494530    0.0195245300    0.0003639445    
0.0513721140    0.0192761840    0.0003648072    
0.0515947750    0.0193398070    0.0003605639    
0.0518174360    0.0191938540    0.0003570370    
0.0520400970    0.0194918800    0.0003573035    
0.0522627580    0.0196980230    0.0003622405    
0.0524854190    0.0194170890    0.0003625722    
0.0527080800    0.0195951680    0.0003670511    
0.0529307410    0.0199323450    0.0003719343    
0.0531534020    0.0199735010    0.0003709626    
0.0533760630    0.0196758330    0.0003693405    
0.0535987240    0.0199183780    0.0003698750    
0.0538213850    0.0199398020    0.0003743615    
0.0540440460    0.0198280960    0.0003715447    
0.0542667070    0.0202787940    0.0003783331    
0.0544893680    0.0198693880    0.0003746941    
0.0547120290    0.0190753730    0.0003646159    
0.0549346900    0.0188582390    0.0003627255    
0.0551573510    0.0201261780    0.0003791323    
0.0553800120    0.0195186350    0.0003701920    
0.0556026730    0.0200364890    0.0003828473    
0.0558253340    0.0194734140    0.0003805899    
0.0560479950    0.0196742670    0.0003825478    
0.0562706560    0.0193513290    0.0003830632    
0.0564933170    0.0203369380    0.0003961073    
0.0567159780    0.0197844150    0.0003860052    
0.0569386390    0.0187861560    0.0003820408    
0.0571613000    0.0192950120    0.0003788437    
0.0573839610    0.0197806140    0.0003803964    
0.0576066220    0.0199344190    0.0003829296    
0.0578292830    0.0199707810    0.0003820104    
0.0580519440    0.0204352480    0.0003879256    
0.0582746050    0.0199196550    0.0003813116    
0.0584972660    0.0194197640    0.0003750555    
0.0587199270    0.0202041010    0.0003792568    
0.0589425880    0.0194125920    0.0003695793    
0.0591652490    0.0196061350    0.0003736027    
0.0593879100    0.0196246090    0.0003710028    
0.0596105710    0.0196882120    0.0003712115    
0.0598332320    0.0196845080    0.0003743493    
0.0600558930    0.0196240760    0.0003713911    
0.0602785540    0.0195405260    0.0003702079    
0.0605012150    0.0193604900    0.0003677221    
0.0607238760    0.0196093240    0.0003673807    
0.0609465370    0.0200101840    0.0003740385    
0.0611691980    0.0196949150    0.0003716683    
0.0613918590    0.0199808290    0.0003702694    
0.0616145200    0.0195433320    0.0003688735    
0.0618371810    0.0193934260    0.0003638471    
0.0620598420    0.0196591660    0.0003667091    
0.0622825030    0.0189676350    0.0003657102    
0.0625051640    0.0190897760    0.0003617331    
0.0627278250    0.0200215310    0.0003696930    
0.0629504860    0.0187436800    0.0003547929    
0.0631731470    0.0195132000    0.0003664814    
0.0633958080    0.0193137460    0.0003667020    
0.0636184690    0.0192828530    0.0003715117    
0.0638411300    0.0201755510    0.0003785875    
0.0640637910    0.0198119620    0.0003777993    
0.0642864520    0.0198195630    0.0003770541    
0.0645091130    0.0199202630    0.0003813233    
0.0647317740    0.0201690480    0.0003841201    
0.0649544350    0.0195699330    0.0003779557    
0.0651770960    0.0199707140    0.0003797235    
0.0653997570    0.0191868770    0.0003713898    
0.0656224180    0.0198913390    0.0003789686    
0.0658450790    0.0188536980    0.0003636486    
0.0660677400    0.0198492340    0.0003747140    
0.0662904010    0.0190655730    0.0003716267    
0.0665130620    0.0200638560    0.0003795781    
0.0667357230    0.0186115660    0.0003720825    
0.0669583840    0.0197359730    0.0003818753    
0.0671810450    0.0192482580    0.0003750452    
0.0674037060    0.0195734450    0.0003846072    
0.0676263670    0.0199134380    0.0003850929    
0.0678490280    0.0193101590    0.0003768957    
0.0680716890    0.0194626980    0.0003792234    
0.0682943500    0.0193422740    0.0003739078    
0.0685170110    0.0199485760    0.0003758534    
0.0687396720    0.0195046080    0.0003706600    
0.0689623330    0.0194371800    0.0003688462    
0.0691849940    0.0187848860    0.0003651166    
0.0694076550    0.0193461460    0.0003703332    
0.0696303160    0.0196620040    0.0003703883    
0.0698529770    0.0197603240    0.0003705350    
0.0700756380    0.0192494870    0.0003610196    
0.0702982990    0.0195949240    0.0003682112    
0.0705209600    0.0195653300    0.0003652766    
0.0707436210    0.0200820170    0.0003683689    
0.0709662820    0.0194496950    0.0003668448    
0.0711889430    0.0201628920    0.0003689226    
0.0714116040    0.0195810740    0.0003643030    
0.0716342650    0.0199736630    0.0003664430    
0.0718569260    0.0190461800    0.0003563927    
0.0720795870    0.0199535450    0.0003662589    
0.0723022480    0.0198660500    0.0003660118    
0.0725249090    0.0200250270    0.0003630726    
0.0727475700    0.0195650770    0.0003619441    
0.0729702310    0.0190697330    0.0003544829    
0.0731928920    0.0198800450    0.0003633825    
0.0734155530    0.0196817060    0.0003608438    
0.0736382140    0.0192666210    0.0003547273    
0.0738608750    0.0197545300    0.0003615112    
0.0740835360    0.0193669190    0.0003570584    
0.0743061970    0.0195484100    0.0003536762    
0.0745288580    0.0199590190    0.0003610460    
0.0747515190    0.0196314060    0.0003587777    
0.0749741800    0.0196300710    0.0003554446    
0.0751968410    0.0192007940    0.0003542968    
0.0754195020    0.0192478360    0.0003526522    
0.0756421630    0.0189598630    0.0003471431    
0.0758648240    0.0194662570    0.0003525940    
0.0760874850    0.0202834020    0.0003597456    
0.0763101460    0.0199260880    0.0003562208    
0.0765328070    0.0186591670    0.0003482376    
0.0767554680    0.0195031260    0.0003536101    
0.0769781290    0.0198436860    0.0003546344    
0.0772007900    0.0189341890    0.0003436338    
0.0774234510    0.0197241960    0.0003527243    
0.0776461120    0.0195168100    0.0003505323    
0.0778687730    0.0193317860    0.0003477142    
0.0780914340    0.0193362490    0.0003502392    
0.0783140950    0.0192190780    0.0003436364    
0.0785367560    0.0197232830    0.0003537275    
0.0787594170    0.0191782860    0.0003456810    
0.0789820780    0.0187664040    0.0003401967    
0.0792047390    0.0197956070    0.0003505432    
0.0794274000    0.0192876110    0.0003474822    
0.0796500610    0.0192751240    0.0003439793    
0.0798727220    0.0199441890    0.0003495754    
0.0800953830    0.0196695890    0.0003463622    
0.0803180440    0.0199260350    0.0003510412    
0.0805407050    0.0195741750    0.0003476045    
0.0807633660    0.0193899800    0.0003456440    
0.0809860270    0.0192592720    0.0003432049    
0.0812086880    0.0198655210    0.0003455526    
0.0814313490    0.0197499170    0.0003461171    
0.0816540100    0.0191528900    0.0003400695    
0.0818766710    0.0194163600    0.0003431824    
0.0820993320    0.0191945640    0.0003405948    
0.0823219930    0.0194750960    0.0003444897    
0.0825446540    0.0196915770    0.0003438823    
0.0827673150    0.0199314990    0.0003436465    
0.0829899760    0.0191875570    0.0003365720    
0.0832126370    0.0195206610    0.0003410015    
0.0834352980    0.0197477700    0.0003422126    
0.0836579590    0.0195182600    0.0003394608    
0.0838806200    0.0194742610    0.0003401391    
0.0841032810    0.0191628200    0.0003353137    
0.0843259420    0.0195406350    0.0003375604    
0.0845486030    0.0193307380    0.0003357428    
0.0847712640    0.0195509180    0.0003355917    
0.0849939250    0.0195439230    0.0003361160    
0.0852165860    0.0199255130    0.0003398260    
0.0854392470    0.0203460100    0.0003401411    
0.0856619080    0.0199889730    0.0003396265    
0.0858845690    0.0201915670    0.0003382689    
0.0861072300    0.0192762400    0.0003327944    
0.0863298910    0.0191709330    0.0003336220    
0.0865525520    0.0187442790    0.0003270401    
0.0867752130    0.0192851500    0.0003290483    
0.0869978740    0.0194174320    0.0003310164    
0.0872205350    0.0191316520    0.0003281534    
0.0874431960    0.0189403080    0.0003265085    
0.0876658570    0.0196929290    0.0003342108    
0.0878885180    0.0190377090    0.0003291673    
0.0881111790    0.0197382200    0.0003347385    
0.0883338400    0.0193628880    0.0003266864    
0.0885565010    0.0198859370    0.0003355589    
0.0887791620    0.0191970050    0.0003254197    
0.0890018230    0.0194531130    0.0003307606    
0.0892244840    0.0196603860    0.0003330834    
0.0894471450    0.0196065560    0.0003312221    
0.0896698060    0.0195366700    0.0003293841    
0.0898924670    0.0191801320    0.0003278775    
0.0901151280    0.0191793660    0.0003243295    
0.0903377890    0.0196467340    0.0003310046    
0.0905604500    0.0205664220    0.0003371092    
0.0907831110    0.0195570200    0.0003279146    
0.0910057720    0.0188213790    0.0003231644    
0.0912284330    0.0197795840    0.0003265452    
0.0914510940    0.0202562500    0.0003341415    
0.0916737550    0.0201668080    0.0003325756    
0.0918964160    0.0200141400    0.0003326922    
0.0921190770    0.0195126530    0.0003255275    
0.0923417380    0.0196319350    0.0003266549    
0.0925643990    0.0195251500    0.0003249681    
0.0927870600    0.0197074320    0.0003278204    
0.0930097210    0.0187298990    0.0003168648    
0.0932323820    0.0195774410    0.0003263360    
