# Diamond Light Source Ltd.
# Data extracted from: /dls/b21/data/2018/cm19678-3/processed/b21-386631_00145.dat
q(1/A)          Column          Error           
0.0035000000    2.0845492000    0.0245292010    
0.0037226610    1.8793031000    0.0227999580    
0.0039453220    1.6569261000    0.0194757350    
0.0041679830    1.3034997000    0.0141860840    
0.0043906440    0.9829504000    0.0117830630    
0.0046133050    0.7954717600    0.0101758020    
0.0048359660    0.5859521600    0.0082610453    
0.0050586270    0.4689844400    0.0072643135    
0.0052812880    0.4313140500    0.0065866748    
0.0055039490    0.3865903900    0.0059293284    
0.0057266100    0.3264877200    0.0052714192    
0.0059492710    0.2617179000    0.0047196616    
0.0061719320    0.2231076900    0.0041991279    
0.0063945930    0.2051520000    0.0040754207    
0.0066172539    0.1871685100    0.0036552445    
0.0068399149    0.1699092500    0.0034277919    
0.0070625759    0.1494385300    0.0031817044    
0.0072852369    0.1292246500    0.0029144298    
0.0075078979    0.1207332800    0.0028032063    
0.0077305589    0.1012715600    0.0025184450    
0.0079532199    0.0953171890    0.0024094286    
0.0081758809    0.0910185220    0.0023763736    
0.0083985419    0.0810677890    0.0020917673    
0.0086212029    0.0754006120    0.0020173287    
0.0088438639    0.0709014140    0.0019405028    
0.0090665249    0.0649503670    0.0017938258    
0.0092891859    0.0649298350    0.0018720243    
0.0095118469    0.0588499390    0.0017139144    
0.0097345079    0.0570646870    0.0016391403    
0.0099571689    0.0539677830    0.0015611715    
0.0101798300    0.0512129520    0.0015208041    
0.0104024910    0.0484895490    0.0014748074    
0.0106251520    0.0460194150    0.0014416306    
0.0108478130    0.0495119990    0.0014562353    
0.0110704740    0.0442969620    0.0013113877    
0.0112931350    0.0429173870    0.0012945965    
0.0115157960    0.0404113000    0.0012489052    
0.0117384570    0.0382769920    0.0012050143    
0.0119611180    0.0370852990    0.0011895115    
0.0121837790    0.0365498840    0.0011610453    
0.0124064400    0.0351581680    0.0010912583    
0.0126291010    0.0342175370    0.0010630872    
0.0128517620    0.0343554390    0.0010678871    
0.0130744230    0.0319182470    0.0010216782    
0.0132970840    0.0329022200    0.0010322344    
0.0135197450    0.0319666190    0.0010028820    
0.0137424060    0.0317864020    0.0009861287    
0.0139650670    0.0309710390    0.0009517169    
0.0141877280    0.0299918380    0.0009386209    
0.0144103890    0.0298459750    0.0009201908    
0.0146330500    0.0300844400    0.0009179939    
0.0148557110    0.0290549340    0.0008983676    
0.0150783720    0.0281122320    0.0008763703    
0.0153010330    0.0268205520    0.0008439312    
0.0155236940    0.0279457360    0.0008563292    
0.0157463550    0.0266056940    0.0008210695    
0.0159690160    0.0266807580    0.0008191067    
0.0161916770    0.0266793530    0.0008144706    
0.0164143380    0.0257725240    0.0008065737    
0.0166369990    0.0261756890    0.0007877957    
0.0168596600    0.0246915420    0.0007583947    
0.0170823210    0.0247923560    0.0007533618    
0.0173049820    0.0251997520    0.0007608393    
0.0175276430    0.0247253120    0.0007615904    
0.0177503040    0.0240822560    0.0007324607    
0.0179729650    0.0243494500    0.0007292085    
0.0181956260    0.0230256290    0.0006955146    
0.0184182870    0.0240785780    0.0007078874    
0.0186409480    0.0228247600    0.0006935727    
0.0188636090    0.0233502010    0.0006970986    
0.0190862700    0.0238788800    0.0007038438    
0.0193089310    0.0240733590    0.0007056026    
0.0195315920    0.0238147270    0.0006779350    
0.0197542530    0.0229164130    0.0006659947    
0.0199769140    0.0224906090    0.0006597785    
0.0201995750    0.0234608320    0.0006633073    
0.0204222360    0.0222437920    0.0006514177    
0.0206448970    0.0218911180    0.0006416400    
0.0208675580    0.0228208880    0.0006416339    
0.0210902190    0.0225094150    0.0006433888    
0.0213128800    0.0222247990    0.0006306335    
0.0215355410    0.0209821380    0.0006054499    
0.0217582020    0.0231484960    0.0006359381    
0.0219808630    0.0211187550    0.0006066204    
0.0222035240    0.0208917470    0.0005978840    
0.0224261850    0.0221854290    0.0006106338    
0.0226488460    0.0213899280    0.0005950837    
0.0228715070    0.0218109350    0.0005994187    
0.0230941680    0.0207731120    0.0005849840    
0.0233168290    0.0210422840    0.0005902284    
0.0235394900    0.0218110020    0.0005942810    
0.0237621510    0.0211124250    0.0005689461    
0.0239848120    0.0211766730    0.0005704704    
0.0242074730    0.0215044090    0.0005702663    
0.0244301340    0.0212958430    0.0005681417    
0.0246527950    0.0211053650    0.0005708324    
0.0248754560    0.0211263030    0.0005582799    
0.0250981170    0.0215021850    0.0005644804    
0.0253207780    0.0214786590    0.0005473269    
0.0255434390    0.0205434290    0.0005409913    
0.0257661000    0.0215368770    0.0005557094    
0.0259887610    0.0215307030    0.0005497250    
0.0262114220    0.0209805330    0.0005455473    
0.0264340830    0.0207309520    0.0005349144    
0.0266567440    0.0218524010    0.0005457986    
0.0268794050    0.0210794570    0.0005338711    
0.0271020660    0.0202653580    0.0005213412    
0.0273247270    0.0195588740    0.0005090972    
0.0275473880    0.0210649450    0.0005272831    
0.0277700490    0.0209601190    0.0005228605    
0.0279927100    0.0202627310    0.0005096031    
0.0282153710    0.0213402440    0.0005255198    
0.0284380320    0.0208505030    0.0005164434    
0.0286606930    0.0198287020    0.0004993194    
0.0288833540    0.0209516910    0.0005142390    
0.0291060150    0.0202694700    0.0005053175    
0.0293286760    0.0202597180    0.0004981563    
0.0295513370    0.0201084970    0.0004908894    
0.0297739980    0.0208231910    0.0005050366    
0.0299966590    0.0202954710    0.0004900801    
0.0302193200    0.0202822370    0.0004970599    
0.0304419810    0.0200146120    0.0004946783    
0.0306646420    0.0197667140    0.0004777301    
0.0308873030    0.0203632350    0.0004827906    
0.0311099640    0.0206762280    0.0004877500    
0.0313326250    0.0198943400    0.0004731386    
0.0315552860    0.0199399480    0.0004798195    
0.0317779470    0.0194310900    0.0004740701    
0.0320006080    0.0196849020    0.0004663150    
0.0322232690    0.0203624580    0.0004762578    
0.0324459300    0.0200266370    0.0004687881    
0.0326685910    0.0199934750    0.0004676276    
0.0328912520    0.0201921720    0.0004715018    
0.0331139130    0.0200134640    0.0004633044    
0.0333365740    0.0200248990    0.0004649416    
0.0335592350    0.0202663800    0.0004632391    
0.0337818960    0.0197161110    0.0004565432    
0.0340045570    0.0207284160    0.0004673733    
0.0342272170    0.0201992840    0.0004595496    
0.0344498780    0.0200434650    0.0004595868    
0.0346725390    0.0198662630    0.0004490770    
0.0348952000    0.0197158500    0.0004453357    
0.0351178610    0.0204956750    0.0004561357    
0.0353405220    0.0203496000    0.0004524368    
0.0355631830    0.0195077470    0.0004413111    
0.0357858440    0.0198372150    0.0004450223    
0.0360085050    0.0196760410    0.0004445499    
0.0362311660    0.0199171080    0.0004419482    
0.0364538270    0.0200908170    0.0004403087    
0.0366764880    0.0201676640    0.0004408298    
0.0368991490    0.0205371730    0.0004426074    
0.0371218100    0.0198507700    0.0004339031    
0.0373444710    0.0197330240    0.0004373255    
0.0375671320    0.0195886150    0.0004350878    
0.0377897930    0.0204765690    0.0004333241    
0.0380124540    0.0198800720    0.0004296448    
0.0382351150    0.0203072140    0.0004342361    
0.0384577760    0.0197806340    0.0004244341    
0.0386804370    0.0205182850    0.0004355745    
0.0389030980    0.0196804820    0.0004233586    
0.0391257590    0.0197196360    0.0004209026    
0.0393484200    0.0206401000    0.0004291647    
0.0395710810    0.0196578300    0.0004193924    
0.0397937420    0.0200067990    0.0004230987    
0.0400164030    0.0190513660    0.0004145521    
0.0402390640    0.0195221660    0.0004140552    
0.0404617250    0.0203339380    0.0004200832    
0.0406843860    0.0193385850    0.0004057145    
0.0409070470    0.0202823730    0.0004198250    
0.0411297080    0.0200708170    0.0004135896    
0.0413523690    0.0194376920    0.0004080632    
0.0415750300    0.0198390230    0.0004157562    
0.0417976910    0.0207442460    0.0004141401    
0.0420203520    0.0198341660    0.0004064754    
0.0422430130    0.0203791190    0.0004135814    
0.0424656740    0.0196885610    0.0004012229    
0.0426883350    0.0206194160    0.0004126360    
0.0429109960    0.0200006210    0.0004076669    
0.0431336570    0.0200144660    0.0004020623    
0.0433563180    0.0195313680    0.0004006066    
0.0435789790    0.0195513830    0.0003945148    
0.0438016400    0.0196842120    0.0003980062    
0.0440243010    0.0199728000    0.0003968454    
0.0442469620    0.0194867110    0.0003943354    
0.0444696230    0.0195611150    0.0003936707    
0.0446922840    0.0193033470    0.0003899069    
0.0449149450    0.0200939980    0.0003924938    
0.0451376060    0.0190691200    0.0003870756    
0.0453602670    0.0195715060    0.0003880303    
0.0455829280    0.0193574100    0.0003854559    
0.0458055890    0.0196614800    0.0003907368    
0.0460282500    0.0192962660    0.0003824231    
0.0462509110    0.0197306380    0.0003842983    
0.0464735720    0.0196929750    0.0003841481    
0.0466962330    0.0196531350    0.0003855038    
0.0469188940    0.0195117880    0.0003830261    
0.0471415550    0.0200241800    0.0003900157    
0.0473642160    0.0192753360    0.0003772956    
0.0475868770    0.0196546320    0.0003790969    
0.0478095380    0.0196786920    0.0003776690    
0.0480321990    0.0201654160    0.0003831486    
0.0482548600    0.0199612150    0.0003795429    
0.0484775210    0.0199915390    0.0003836024    
0.0487001820    0.0193747970    0.0003721109    
0.0489228430    0.0200536090    0.0003783700    
0.0491455040    0.0199743090    0.0003750093    
0.0493681650    0.0202116500    0.0003804725    
0.0495908260    0.0194195490    0.0003666677    
0.0498134870    0.0191842510    0.0003679089    
0.0500361480    0.0197847060    0.0003726336    
0.0502588090    0.0191485870    0.0003611013    
0.0504814700    0.0197783140    0.0003717886    
0.0507041310    0.0198839900    0.0003683484    
0.0509267920    0.0189273790    0.0003608654    
0.0511494530    0.0197416370    0.0003660884    
0.0513721140    0.0198559820    0.0003703804    
0.0515947750    0.0188284310    0.0003558875    
0.0518174360    0.0199514280    0.0003641402    
0.0520400970    0.0195642900    0.0003580898    
0.0522627580    0.0198849050    0.0003640801    
0.0524854190    0.0201689260    0.0003696523    
0.0527080800    0.0205099720    0.0003756506    
0.0529307410    0.0200919160    0.0003735486    
0.0531534020    0.0199941490    0.0003712820    
0.0533760630    0.0197240710    0.0003699203    
0.0535987240    0.0197465190    0.0003684026    
0.0538213850    0.0201856330    0.0003767918    
0.0540440460    0.0201064920    0.0003742727    
0.0542667070    0.0200384800    0.0003762141    
0.0544893680    0.0190275040    0.0003667963    
0.0547120290    0.0190117910    0.0003641331    
0.0549346900    0.0188851880    0.0003631096    
0.0551573510    0.0199828040    0.0003779095    
0.0553800120    0.0193283240    0.0003685097    
0.0556026730    0.0199478020    0.0003821306    
0.0558253340    0.0200078620    0.0003859100    
0.0560479950    0.0193454180    0.0003794678    
0.0562706560    0.0199337570    0.0003889190    
0.0564933170    0.0193936140    0.0003869447    
0.0567159780    0.0199110840    0.0003873722    
0.0569386390    0.0198875420    0.0003932157    
0.0571613000    0.0199037730    0.0003849060    
0.0573839610    0.0193916160    0.0003767671    
0.0576066220    0.0193519090    0.0003774231    
0.0578292830    0.0197651640    0.0003801696    
0.0580519440    0.0196903000    0.0003809203    
0.0582746050    0.0194951150    0.0003773562    
0.0584972660    0.0194403850    0.0003753838    
0.0587199270    0.0201040290    0.0003784466    
0.0589425880    0.0199610710    0.0003748930    
0.0591652490    0.0192206890    0.0003700394    
0.0593879100    0.0198065690    0.0003728471    
0.0596105710    0.0204371720    0.0003783364    
0.0598332320    0.0197336830    0.0003749456    
0.0600558930    0.0199470650    0.0003745639    
0.0602785540    0.0204453510    0.0003788125    
0.0605012150    0.0193947890    0.0003681744    
0.0607238760    0.0202082740    0.0003730776    
0.0609465370    0.0193313110    0.0003677654    
0.0611691980    0.0197154960    0.0003719905    
0.0613918590    0.0195002160    0.0003659150    
0.0616145200    0.0192014650    0.0003657588    
0.0618371810    0.0196253710    0.0003661424    
0.0620598420    0.0194194360    0.0003645918    
0.0622825030    0.0193758330    0.0003697516    
0.0625051640    0.0195967850    0.0003666315    
0.0627278250    0.0197415850    0.0003672257    
0.0629504860    0.0197041610    0.0003638949    
0.0631731470    0.0196161770    0.0003675737    
0.0633958080    0.0193549140    0.0003672190    
0.0636184690    0.0198404910    0.0003769750    
0.0638411300    0.0192226250    0.0003696659    
0.0640637910    0.0194651390    0.0003746068    
0.0642864520    0.0194886600    0.0003740219    
0.0645091130    0.0201238970    0.0003833993    
0.0647317740    0.0195826460    0.0003786252    
0.0649544350    0.0198901990    0.0003811670    
0.0651770960    0.0192186110    0.0003726329    
0.0653997570    0.0193799330    0.0003733821    
0.0656224180    0.0198038850    0.0003782648    
0.0658450790    0.0194141510    0.0003691410    
0.0660677400    0.0197991940    0.0003743702    
0.0662904010    0.0197093430    0.0003779789    
0.0665130620    0.0187338910    0.0003669082    
0.0667357230    0.0195920760    0.0003818893    
0.0669583840    0.0196756230    0.0003814223    
0.0671810450    0.0194223910    0.0003768675    
0.0674037060    0.0197306110    0.0003862811    
0.0676263670    0.0198973420    0.0003850698    
0.0678490280    0.0187639960    0.0003716554    
0.0680716890    0.0193282170    0.0003780411    
0.0682943500    0.0199848670    0.0003801989    
0.0685170110    0.0203662360    0.0003798983    
0.0687396720    0.0193206740    0.0003690352    
0.0689623330    0.0192754600    0.0003674350    
0.0691849940    0.0194085560    0.0003712559    
0.0694076550    0.0190047690    0.0003671777    
0.0696303160    0.0200106840    0.0003737867    
0.0698529770    0.0201076680    0.0003739061    
0.0700756380    0.0194456810    0.0003629796    
0.0702982990    0.0198576760    0.0003707992    
0.0705209600    0.0196333970    0.0003660374    
0.0707436210    0.0193926270    0.0003621155    
0.0709662820    0.0199546860    0.0003717046    
0.0711889430    0.0192446050    0.0003605477    
0.0714116040    0.0194249960    0.0003629731    
0.0716342650    0.0196577690    0.0003636588    
0.0718569260    0.0197333120    0.0003628894    
0.0720795870    0.0193618080    0.0003609113    
0.0723022480    0.0190632170    0.0003586633    
0.0725249090    0.0197819090    0.0003609861    
0.0727475700    0.0193708370    0.0003602669    
0.0729702310    0.0195312530    0.0003588704    
0.0731928920    0.0197807390    0.0003625986    
0.0734155530    0.0191722580    0.0003562657    
0.0736382140    0.0193779220    0.0003558728    
0.0738608750    0.0198210950    0.0003622445    
0.0740835360    0.0200719360    0.0003636244    
0.0743061970    0.0194145970    0.0003525850    
0.0745288580    0.0200969390    0.0003624160    
0.0747515190    0.0194480810    0.0003572216    
0.0749741800    0.0196178260    0.0003554561    
0.0751968410    0.0196196220    0.0003582634    
0.0754195020    0.0200498960    0.0003600487    
0.0756421630    0.0194181430    0.0003514344    
0.0758648240    0.0194477060    0.0003525473    
0.0760874850    0.0195120360    0.0003529603    
0.0763101460    0.0196785340    0.0003541230    
0.0765328070    0.0194979800    0.0003561015    
0.0767554680    0.0196512860    0.0003550729    
0.0769781290    0.0193690030    0.0003504877    
0.0772007900    0.0199457630    0.0003528152    
0.0774234510    0.0193653670    0.0003496214    
0.0776461120    0.0194546490    0.0003500941    
0.0778687730    0.0191573420    0.0003462610    
0.0780914340    0.0193241710    0.0003502503    
0.0783140950    0.0188019220    0.0003400036    
0.0785367560    0.0191337760    0.0003485211    
0.0787594170    0.0197401770    0.0003508291    
0.0789820780    0.0189829800    0.0003422719    
0.0792047390    0.0194116870    0.0003472468    
0.0794274000    0.0196454400    0.0003508114    
0.0796500610    0.0192638250    0.0003439969    
0.0798727220    0.0197249270    0.0003477682    
0.0800953830    0.0199638850    0.0003490638    
0.0803180440    0.0191971210    0.0003446793    
0.0805407050    0.0195011740    0.0003470751    
0.0807633660    0.0192738520    0.0003447260    
0.0809860270    0.0194928610    0.0003453988    
0.0812086880    0.0195904850    0.0003432704    
0.0814313490    0.0194660920    0.0003437394    
0.0816540100    0.0194500650    0.0003428156    
0.0818766710    0.0195754080    0.0003447037    
0.0820993320    0.0191956850    0.0003407220    
0.0823219930    0.0195128980    0.0003449426    
0.0825446540    0.0194347090    0.0003417496    
0.0827673150    0.0197139920    0.0003418840    
0.0829899760    0.0196734040    0.0003409238    
0.0832126370    0.0195639080    0.0003414966    
0.0834352980    0.0193162930    0.0003385699    
0.0836579590    0.0191713150    0.0003365461    
0.0838806200    0.0192914860    0.0003386556    
0.0841032810    0.0193756440    0.0003372867    
0.0843259420    0.0202076440    0.0003433914    
0.0845486030    0.0190172710    0.0003331241    
0.0847712640    0.0193222760    0.0003337385    
0.0849939250    0.0195515970    0.0003362977    
0.0852165860    0.0196550500    0.0003376279    
0.0854392470    0.0190910760    0.0003295977    
0.0856619080    0.0191365680    0.0003324205    
0.0858845690    0.0187423750    0.0003260160    
0.0861072300    0.0197782190    0.0003372158    
0.0863298910    0.0195443460    0.0003369715    
0.0865525520    0.0198991770    0.0003370806    
0.0867752130    0.0200568830    0.0003356830    
0.0869978740    0.0201027770    0.0003369233    
0.0872205350    0.0188632010    0.0003259551    
0.0874431960    0.0192687700    0.0003294409    
0.0876658570    0.0190253900    0.0003286106    
0.0878885180    0.0194722720    0.0003330175    
0.0881111790    0.0195189030    0.0003329882    
0.0883338400    0.0192548790    0.0003258861    
0.0885565010    0.0202566000    0.0003387884    
0.0887791620    0.0192488650    0.0003259711    
0.0890018230    0.0195171580    0.0003314187    
0.0892244840    0.0193633430    0.0003306714    
0.0894471450    0.0191217170    0.0003272137    
0.0896698060    0.0193945220    0.0003282966    
0.0898924670    0.0198215260    0.0003334294    
0.0901151280    0.0191651320    0.0003243207    
0.0903377890    0.0193979780    0.0003290157    
0.0905604500    0.0190268110    0.0003243573    
0.0907831110    0.0190037850    0.0003233545    
0.0910057720    0.0194173600    0.0003283541    
0.0912284330    0.0195989940    0.0003251630    
0.0914510940    0.0195200640    0.0003281262    
0.0916737550    0.0192037670    0.0003246493    
0.0918964160    0.0200500590    0.0003331053    
0.0921190770    0.0192489310    0.0003234315    
0.0923417380    0.0192538500    0.0003236056    
0.0925643990    0.0195873070    0.0003255970    
0.0927870600    0.0197100890    0.0003279553    
0.0930097210    0.0192953170    0.0003217227    
0.0932323820    0.0191717770    0.0003230485    
