# Diamond Light Source Ltd.
# Data extracted from: /dls/b21/data/2018/cm19678-3/processed/b21-386631_00150.dat
q(1/A)          Column          Error           
0.0035000000    2.1182301000    0.0247311030    
0.0037226610    1.8988084000    0.0229221730    
0.0039453220    1.6261598000    0.0192976070    
0.0041679830    1.2982630000    0.0141601540    
0.0043906440    0.9707349200    0.0117117630    
0.0046133050    0.7794860500    0.0100748830    
0.0048359660    0.6091196000    0.0084243186    
0.0050586270    0.4699442600    0.0072730758    
0.0052812880    0.4248310100    0.0065381834    
0.0055039490    0.3773617300    0.0058592021    
0.0057266100    0.3185188300    0.0052076437    
0.0059492710    0.2739040900    0.0048291754    
0.0061719320    0.2273006400    0.0042391789    
0.0063945930    0.2019876200    0.0040446088    
0.0066172539    0.1828096900    0.0036130937    
0.0068399149    0.1686571300    0.0034157641    
0.0070625759    0.1463760400    0.0031495108    
0.0072852369    0.1265103500    0.0028841877    
0.0075078979    0.1166756600    0.0027562033    
0.0077305589    0.0983640190    0.0024824839    
0.0079532199    0.0954739810    0.0024118513    
0.0081758809    0.0917966840    0.0023869477    
0.0083985419    0.0827172930    0.0021133281    
0.0086212029    0.0747803330    0.0020093820    
0.0088438639    0.0689084950    0.0019133868    
0.0090665249    0.0672044080    0.0018250212    
0.0092891859    0.0645756820    0.0018672541    
0.0095118469    0.0594207770    0.0017225223    
0.0097345079    0.0564732980    0.0016309234    
0.0099571689    0.0550718330    0.0015773486    
0.0101798300    0.0515479680    0.0015260499    
0.0104024910    0.0485970670    0.0014767121    
0.0106251520    0.0483855330    0.0014784982    
0.0108478130    0.0430603780    0.0013582972    
0.0110704740    0.0446627330    0.0013170321    
0.0112931350    0.0409407710    0.0012646646    
0.0115157960    0.0407736140    0.0012547212    
0.0117384570    0.0382151220    0.0012042607    
0.0119611180    0.0367935510    0.0011850405    
0.0121837790    0.0370060250    0.0011684818    
0.0124064400    0.0352049380    0.0010921840    
0.0126291010    0.0341970380    0.0010629634    
0.0128517620    0.0329401810    0.0010458518    
0.0130744230    0.0355940380    0.0010791028    
0.0132970840    0.0331734470    0.0010366702    
0.0135197450    0.0310970430    0.0009893287    
0.0137424060    0.0307268960    0.0009697322    
0.0139650670    0.0289051950    0.0009195968    
0.0141877280    0.0303848450    0.0009449237    
0.0144103890    0.0303393930    0.0009279360    
0.0146330500    0.0277976750    0.0008825771    
0.0148557110    0.0275372790    0.0008747505    
0.0150783720    0.0276305970    0.0008689898    
0.0153010330    0.0286367840    0.0008721976    
0.0155236940    0.0259609980    0.0008255117    
0.0157463550    0.0277054120    0.0008380203    
0.0159690160    0.0263886650    0.0008147600    
0.0161916770    0.0264403980    0.0008109636    
0.0164143380    0.0264637660    0.0008174684    
0.0166369990    0.0255923190    0.0007791103    
0.0168596600    0.0244442660    0.0007547259    
0.0170823210    0.0253510600    0.0007619427    
0.0173049820    0.0248872690    0.0007562459    
0.0175276430    0.0240068930    0.0007505820    
0.0177503040    0.0250493780    0.0007471603    
0.0179729650    0.0250137580    0.0007392242    
0.0181956260    0.0255140130    0.0007322669    
0.0184182870    0.0232130120    0.0006951749    
0.0186409480    0.0246884490    0.0007214651    
0.0188636090    0.0233379410    0.0006970433    
0.0190862700    0.0226008960    0.0006848756    
0.0193089310    0.0242476960    0.0007082828    
0.0195315920    0.0228967740    0.0006648627    
0.0197542530    0.0238348340    0.0006793336    
0.0199769140    0.0230022690    0.0006673635    
0.0201995750    0.0233381070    0.0006616913    
0.0204222360    0.0222328610    0.0006513769    
0.0206448970    0.0217486320    0.0006396657    
0.0208675580    0.0218908170    0.0006285380    
0.0210902190    0.0222233170    0.0006394041    
0.0213128800    0.0229310810    0.0006406930    
0.0215355410    0.0222481690    0.0006235626    
0.0217582020    0.0215840530    0.0006141854    
0.0219808630    0.0211090640    0.0006065923    
0.0222035240    0.0222516190    0.0006171489    
0.0224261850    0.0221599340    0.0006103947    
0.0226488460    0.0212818350    0.0005936870    
0.0228715070    0.0208631150    0.0005863573    
0.0230941680    0.0214893470    0.0005950924    
0.0233168290    0.0214971640    0.0005966832    
0.0235394900    0.0207337160    0.0005795250    
0.0237621510    0.0212888790    0.0005714234    
0.0239848120    0.0220914610    0.0005827685    
0.0242074730    0.0204381900    0.0005560512    
0.0244301340    0.0206971390    0.0005602012    
0.0246527950    0.0199238480    0.0005547258    
0.0248754560    0.0216358330    0.0005650757    
0.0250981170    0.0209319180    0.0005570468    
0.0253207780    0.0211516760    0.0005432443    
0.0255434390    0.0209500070    0.0005464186    
0.0257661000    0.0207988800    0.0005462054    
0.0259887610    0.0221985120    0.0005582875    
0.0262114220    0.0211443220    0.0005477730    
0.0264340830    0.0205728630    0.0005329686    
0.0266567440    0.0206194260    0.0005302744    
0.0268794050    0.0204785090    0.0005263025    
0.0271020660    0.0208765420    0.0005292413    
0.0273247270    0.0210507290    0.0005282529    
0.0275473880    0.0211914970    0.0005289616    
0.0277700490    0.0206677020    0.0005192955    
0.0279927100    0.0208471070    0.0005169940    
0.0282153710    0.0198204290    0.0005065537    
0.0284380320    0.0218946550    0.0005293137    
0.0286606930    0.0207416070    0.0005107779    
0.0288833540    0.0203154380    0.0005064635    
0.0291060150    0.0208439970    0.0005125229    
0.0293286760    0.0197402470    0.0004918185    
0.0295513370    0.0204755070    0.0004954396    
0.0297739980    0.0201201250    0.0004965284    
0.0299966590    0.0207527700    0.0004956614    
0.0302193200    0.0206430640    0.0005015537    
0.0304419810    0.0202421040    0.0004975728    
0.0306646420    0.0211137840    0.0004938306    
0.0308873030    0.0202218400    0.0004811997    
0.0311099640    0.0199816850    0.0004795758    
0.0313326250    0.0200704810    0.0004753156    
0.0315552860    0.0198202040    0.0004784642    
0.0317779470    0.0199704490    0.0004806926    
0.0320006080    0.0203219990    0.0004738879    
0.0322232690    0.0203253480    0.0004759108    
0.0324459300    0.0206377410    0.0004759740    
0.0326685910    0.0202086890    0.0004702239    
0.0328912520    0.0200013230    0.0004693543    
0.0331139130    0.0195809000    0.0004583542    
0.0333365740    0.0213713210    0.0004804061    
0.0335592350    0.0208034270    0.0004694228    
0.0337818960    0.0197444880    0.0004569553    
0.0340045570    0.0203143360    0.0004627663    
0.0342272170    0.0198510830    0.0004556550    
0.0344498780    0.0202300250    0.0004618053    
0.0346725390    0.0197313730    0.0004476318    
0.0348952000    0.0202161540    0.0004510333    
0.0351178610    0.0201376030    0.0004522165    
0.0353405220    0.0201960530    0.0004508093    
0.0355631830    0.0200641900    0.0004476429    
0.0357858440    0.0198744470    0.0004455213    
0.0360085050    0.0201052520    0.0004494548    
0.0362311660    0.0194339010    0.0004366342    
0.0364538270    0.0207449520    0.0004475012    
0.0366764880    0.0196930910    0.0004356921    
0.0368991490    0.0205065310    0.0004423581    
0.0371218100    0.0190326040    0.0004249450    
0.0373444710    0.0206031660    0.0004469454    
0.0375671320    0.0201758390    0.0004416420    
0.0377897930    0.0199520200    0.0004278162    
0.0380124540    0.0205004200    0.0004363767    
0.0382351150    0.0202217690    0.0004334010    
0.0384577760    0.0194052450    0.0004204645    
0.0386804370    0.0193695530    0.0004232834    
0.0389030980    0.0194508240    0.0004209583    
0.0391257590    0.0203290050    0.0004274347    
0.0393484200    0.0195675240    0.0004179416    
0.0395710810    0.0193070000    0.0004157093    
0.0397937420    0.0199693780    0.0004227803    
0.0400164030    0.0195546600    0.0004200692    
0.0402390640    0.0188792220    0.0004072545    
0.0404617250    0.0195773950    0.0004122699    
0.0406843860    0.0206228960    0.0004190468    
0.0409070470    0.0197421390    0.0004142720    
0.0411297080    0.0196945140    0.0004097692    
0.0413523690    0.0192734210    0.0004064097    
0.0415750300    0.0188265240    0.0004050823    
0.0417976910    0.0194367660    0.0004009499    
0.0420203520    0.0202080980    0.0004103643    
0.0422430130    0.0199751620    0.0004095369    
0.0424656740    0.0201129220    0.0004055981    
0.0426883350    0.0195530820    0.0004018982    
0.0429109960    0.0200661390    0.0004084089    
0.0431336570    0.0195854910    0.0003978031    
0.0433563180    0.0198673200    0.0004041113    
0.0435789790    0.0188896090    0.0003878516    
0.0438016400    0.0201100500    0.0004023620    
0.0440243010    0.0207294740    0.0004043669    
0.0442469620    0.0202761620    0.0004023175    
0.0444696230    0.0190689730    0.0003887581    
0.0446922840    0.0195704160    0.0003926669    
0.0449149450    0.0202317420    0.0003939090    
0.0451376060    0.0196498860    0.0003929977    
0.0453602670    0.0200789210    0.0003931003    
0.0455829280    0.0196869910    0.0003887947    
0.0458055890    0.0194589500    0.0003887904    
0.0460282500    0.0198113210    0.0003875643    
0.0462509110    0.0192212110    0.0003793742    
0.0464735720    0.0201199840    0.0003883617    
0.0466962330    0.0199175340    0.0003881594    
0.0469188940    0.0198950280    0.0003868403    
0.0471415550    0.0198795360    0.0003886757    
0.0473642160    0.0196887350    0.0003813899    
0.0475868770    0.0195228580    0.0003778932    
0.0478095380    0.0196424010    0.0003773897    
0.0480321990    0.0194736770    0.0003765887    
0.0482548600    0.0198458040    0.0003785135    
0.0484775210    0.0202860370    0.0003864884    
0.0487001820    0.0193032560    0.0003714913    
0.0489228430    0.0185469240    0.0003639451    
0.0491455040    0.0196294690    0.0003718263    
0.0493681650    0.0201330810    0.0003798019    
0.0495908260    0.0195651820    0.0003681075    
0.0498134870    0.0201300250    0.0003769377    
0.0500361480    0.0198691870    0.0003734968    
0.0502588090    0.0198572510    0.0003677899    
0.0504814700    0.0191493490    0.0003658963    
0.0507041310    0.0195977550    0.0003657545    
0.0509267920    0.0195193470    0.0003665322    
0.0511494530    0.0198846970    0.0003674798    
0.0513721140    0.0203263210    0.0003748101    
0.0515947750    0.0193736770    0.0003610699    
0.0518174360    0.0195864260    0.0003608601    
0.0520400970    0.0195911310    0.0003584010    
0.0522627580    0.0197721600    0.0003631130    
0.0524854190    0.0193833620    0.0003624483    
0.0527080800    0.0192579460    0.0003640710    
0.0529307410    0.0198074830    0.0003709631    
0.0531534020    0.0189669190    0.0003616849    
0.0533760630    0.0185722690    0.0003590227    
0.0535987240    0.0198637670    0.0003695625    
0.0538213850    0.0192854000    0.0003683614    
0.0540440460    0.0198141750    0.0003716101    
0.0542667070    0.0196006760    0.0003721498    
0.0544893680    0.0198620640    0.0003748226    
0.0547120290    0.0199396970    0.0003729816    
0.0549346900    0.0196324290    0.0003702914    
0.0551573510    0.0194396140    0.0003728061    
0.0553800120    0.0198976880    0.0003739665    
0.0556026730    0.0196402260    0.0003792426    
0.0558253340    0.0201790100    0.0003876281    
0.0560479950    0.0192780470    0.0003788759    
0.0562706560    0.0197664740    0.0003873546    
0.0564933170    0.0198100530    0.0003911488    
0.0567159780    0.0191192340    0.0003796609    
0.0569386390    0.0194359590    0.0003887970    
0.0571613000    0.0197695920    0.0003836767    
0.0573839610    0.0202408730    0.0003849995    
0.0576066220    0.0192780020    0.0003767708    
0.0578292830    0.0197650930    0.0003802386    
0.0580519440    0.0190193090    0.0003744423    
0.0582746050    0.0199479850    0.0003817840    
0.0584972660    0.0198245690    0.0003791443    
0.0587199270    0.0200971440    0.0003784511    
0.0589425880    0.0196655160    0.0003721754    
0.0591652490    0.0197978670    0.0003756231    
0.0593879100    0.0202772280    0.0003773201    
0.0596105710    0.0197510290    0.0003719994    
0.0598332320    0.0201257570    0.0003787214    
0.0600558930    0.0195814620    0.0003711834    
0.0602785540    0.0189362590    0.0003646311    
0.0605012150    0.0199262740    0.0003732533    
0.0607238760    0.0196644700    0.0003680910    
0.0609465370    0.0196533540    0.0003708840    
0.0611691980    0.0199263380    0.0003740428    
0.0613918590    0.0190677610    0.0003619012    
0.0616145200    0.0193269870    0.0003670196    
0.0618371810    0.0194070600    0.0003641670    
0.0620598420    0.0196525230    0.0003668406    
0.0622825030    0.0199052720    0.0003748380    
0.0625051640    0.0205165790    0.0003752056    
0.0627278250    0.0198171560    0.0003679953    
0.0629504860    0.0195634810    0.0003626600    
0.0631731470    0.0189550150    0.0003613923    
0.0633958080    0.0198847400    0.0003722794    
0.0636184690    0.0192243860    0.0003711437    
0.0638411300    0.0192225590    0.0003697330    
0.0640637910    0.0196597840    0.0003765441    
0.0642864520    0.0197902140    0.0003769736    
0.0645091130    0.0195613130    0.0003780714    
0.0647317740    0.0193042150    0.0003759927    
0.0649544350    0.0202043910    0.0003842361    
0.0651770960    0.0196304060    0.0003766729    
0.0653997570    0.0196820870    0.0003763505    
0.0656224180    0.0198255990    0.0003785414    
0.0658450790    0.0195336100    0.0003703428    
0.0660677400    0.0198347770    0.0003747751    
0.0662904010    0.0190059290    0.0003712407    
0.0665130620    0.0193949220    0.0003733938    
0.0667357230    0.0195545780    0.0003815936    
0.0669583840    0.0193795660    0.0003786111    
0.0671810450    0.0195538700    0.0003782102    
0.0674037060    0.0204641110    0.0003934679    
0.0676263670    0.0203444750    0.0003894437    
0.0678490280    0.0196692830    0.0003805849    
0.0680716890    0.0191503810    0.0003763669    
0.0682943500    0.0200645490    0.0003810259    
0.0685170110    0.0193599780    0.0003704623    
0.0687396720    0.0189892900    0.0003659237    
0.0689623330    0.0195207540    0.0003698333    
0.0691849940    0.0192806910    0.0003700988    
0.0694076550    0.0199484830    0.0003762526    
0.0696303160    0.0193405070    0.0003675415    
0.0698529770    0.0191412810    0.0003648772    
0.0700756380    0.0191477990    0.0003602547    
0.0702982990    0.0194632230    0.0003671653    
0.0705209600    0.0192787750    0.0003627831    
0.0707436210    0.0200017490    0.0003678259    
0.0709662820    0.0195256340    0.0003677542    
0.0711889430    0.0194611360    0.0003626369    
0.0714116040    0.0203752250    0.0003718132    
0.0716342650    0.0195640250    0.0003628572    
0.0718569260    0.0196337300    0.0003620390    
0.0720795870    0.0199342240    0.0003662746    
0.0723022480    0.0197992600    0.0003655888    
0.0725249090    0.0192026680    0.0003557270    
0.0727475700    0.0195924280    0.0003623880    
0.0729702310    0.0194460630    0.0003581525    
0.0731928920    0.0188504540    0.0003540343    
0.0734155530    0.0195170420    0.0003595207    
0.0736382140    0.0195092450    0.0003571421    
0.0738608750    0.0195303390    0.0003596436    
0.0740835360    0.0192160220    0.0003558523    
0.0743061970    0.0203313040    0.0003608791    
0.0745288580    0.0192609050    0.0003548627    
0.0747515190    0.0197440180    0.0003599951    
0.0749741800    0.0187101280    0.0003471990    
0.0751968410    0.0194632020    0.0003568978    
0.0754195020    0.0191970020    0.0003523721    
0.0756421630    0.0203605740    0.0003599275    
0.0758648240    0.0195954870    0.0003539491    
0.0760874850    0.0195766720    0.0003536093    
0.0763101460    0.0197367460    0.0003547113    
0.0765328070    0.0191863310    0.0003533089    
0.0767554680    0.0192413150    0.0003514139    
0.0769781290    0.0190969440    0.0003480813    
0.0772007900    0.0196471600    0.0003502284    
0.0774234510    0.0202312180    0.0003574175    
0.0776461120    0.0194995940    0.0003505625    
0.0778687730    0.0192332330    0.0003470098    
0.0780914340    0.0194011110    0.0003510112    
0.0783140950    0.0191717040    0.0003433937    
0.0785367560    0.0198076050    0.0003546699    
0.0787594170    0.0189178460    0.0003435069    
0.0789820780    0.0196875530    0.0003486298    
0.0792047390    0.0197792140    0.0003505829    
0.0794274000    0.0191262300    0.0003462080    
0.0796500610    0.0193016120    0.0003443972    
0.0798727220    0.0198977660    0.0003493525    
0.0800953830    0.0195071820    0.0003451112    
0.0803180440    0.0193960750    0.0003465243    
0.0805407050    0.0205279210    0.0003561600    
0.0807633660    0.0194782900    0.0003466129    
0.0809860270    0.0193408220    0.0003441122    
0.0812086880    0.0197721620    0.0003449216    
0.0814313490    0.0194914440    0.0003440262    
0.0816540100    0.0190219910    0.0003390842    
0.0818766710    0.0191878940    0.0003413373    
0.0820993320    0.0192087710    0.0003409006    
0.0823219930    0.0190381480    0.0003407829    
0.0825446540    0.0201752590    0.0003482636    
0.0827673150    0.0198101850    0.0003427799    
0.0829899760    0.0196747050    0.0003409976    
0.0832126370    0.0192431050    0.0003387472    
0.0834352980    0.0191215310    0.0003369204    
0.0836579590    0.0193911060    0.0003385318    
0.0838806200    0.0192331380    0.0003382051    
0.0841032810    0.0193944930    0.0003375125    
0.0843259420    0.0198297790    0.0003402280    
0.0845486030    0.0194095130    0.0003366036    
0.0847712640    0.0198310450    0.0003381657    
0.0849939250    0.0192231390    0.0003335220    
0.0852165860    0.0201089920    0.0003415671    
0.0854392470    0.0193257700    0.0003316782    
0.0856619080    0.0195999320    0.0003364826    
0.0858845690    0.0191747190    0.0003298152    
0.0861072300    0.0194001120    0.0003340381    
0.0863298910    0.0194817660    0.0003364932    
0.0865525520    0.0189411350    0.0003289264    
0.0867752130    0.0189401880    0.0003262641    
0.0869978740    0.0201609860    0.0003374726    
0.0872205350    0.0197547400    0.0003336302    
0.0874431960    0.0189997400    0.0003271929    
0.0876658570    0.0202815040    0.0003393473    
0.0878885180    0.0198041610    0.0003359051    
0.0881111790    0.0195999330    0.0003337398    
0.0883338400    0.0196757570    0.0003294889    
0.0885565010    0.0192720800    0.0003305134    
0.0887791620    0.0194491980    0.0003277231    
0.0890018230    0.0194117150    0.0003305828    
0.0892244840    0.0190597450    0.0003281290    
0.0894471450    0.0196160460    0.0003314770    
0.0896698060    0.0198408080    0.0003321131    
0.0898924670    0.0191274340    0.0003275995    
0.0901151280    0.0190184280    0.0003231362    
0.0903377890    0.0191706180    0.0003271418    
0.0905604500    0.0196145890    0.0003293896    
0.0907831110    0.0194235490    0.0003269661    
0.0910057720    0.0189356720    0.0003243151    
0.0912284330    0.0196169710    0.0003253717    
0.0914510940    0.0194610050    0.0003276895    
0.0916737550    0.0196884680    0.0003287811    
0.0918964160    0.0199411490    0.0003322602    
0.0921190770    0.0192124950    0.0003231845    
0.0923417380    0.0192772300    0.0003238613    
0.0925643990    0.0196053140    0.0003258064    
0.0927870600    0.0191495940    0.0003233179    
0.0930097210    0.0187872300    0.0003175168    
0.0932323820    0.0197560200    0.0003279939    
