# Diamond Light Source Ltd.
# Data extracted from: /dls/b21/data/2018/cm19678-3/processed/b21-386631_00155.dat
q(1/A)          Column          Error           
0.0035000000    2.0994472000    0.0246346810    
0.0037226610    1.9011638000    0.0229489350    
0.0039453220    1.6377977000    0.0193771330    
0.0041679830    1.2893249000    0.0141190460    
0.0043906440    0.9890549800    0.0118282290    
0.0046133050    0.7828160900    0.0101019040    
0.0048359660    0.6023214400    0.0083817597    
0.0050586270    0.4481470700    0.0071062873    
0.0052812880    0.4325488100    0.0066009144    
0.0055039490    0.3762265100    0.0058535832    
0.0057266100    0.3160546800    0.0051902989    
0.0059492710    0.2820455900    0.0049031021    
0.0061719320    0.2176559800    0.0041505367    
0.0063945930    0.2039113400    0.0040660469    
0.0066172539    0.1830097800    0.0036170484    
0.0068399149    0.1688417400    0.0034195028    
0.0070625759    0.1436190900    0.0031214167    
0.0072852369    0.1284261200    0.0029075335    
0.0075078979    0.1169337200    0.0027607594    
0.0077305589    0.0999142620    0.0025033386    
0.0079532199    0.0974083190    0.0024374942    
0.0081758809    0.0919592940    0.0023903680    
0.0083985419    0.0841050820    0.0021321485    
0.0086212029    0.0775107370    0.0020468560    
0.0088438639    0.0740898980    0.0019851048    
0.0090665249    0.0646979850    0.0017916450    
0.0092891859    0.0659976670    0.0018887338    
0.0095118469    0.0636848150    0.0017842314    
0.0097345079    0.0546490350    0.0016052430    
0.0099571689    0.0512425620    0.0015223548    
0.0101798300    0.0498405230    0.0015013840    
0.0104024910    0.0480662760    0.0014694289    
0.0106251520    0.0484837210    0.0014808073    
0.0108478130    0.0460671300    0.0014056883    
0.0110704740    0.0427287550    0.0012889064    
0.0112931350    0.0436449520    0.0013064775    
0.0115157960    0.0393107510    0.0012326815    
0.0117384570    0.0388648070    0.0012151187    
0.0119611180    0.0390881760    0.0012221024    
0.0121837790    0.0368987870    0.0011674260    
0.0124064400    0.0368716580    0.0011183504    
0.0126291010    0.0351275420    0.0010779174    
0.0128517620    0.0327767830    0.0010438254    
0.0130744230    0.0336024410    0.0010490523    
0.0132970840    0.0322368150    0.0010224897    
0.0135197450    0.0319503190    0.0010033587    
0.0137424060    0.0318328570    0.0009875699    
0.0139650670    0.0313384730    0.0009580451    
0.0141877280    0.0306828640    0.0009500659    
0.0144103890    0.0299748310    0.0009228487    
0.0146330500    0.0284733090    0.0008937271    
0.0148557110    0.0274839660    0.0008743814    
0.0150783720    0.0284542760    0.0008823296    
0.0153010330    0.0282692220    0.0008670561    
0.0155236940    0.0268040460    0.0008392672    
0.0157463550    0.0285731380    0.0008515080    
0.0159690160    0.0265182830    0.0008172054    
0.0161916770    0.0255729170    0.0007979856    
0.0164143380    0.0268719210    0.0008241990    
0.0166369990    0.0273536810    0.0008059156    
0.0168596600    0.0257540580    0.0007751061    
0.0170823210    0.0254705110    0.0007641535    
0.0173049820    0.0257656980    0.0007698975    
0.0175276430    0.0250198690    0.0007666731    
0.0177503040    0.0249652440    0.0007463126    
0.0179729650    0.0252598360    0.0007432579    
0.0181956260    0.0241743730    0.0007131735    
0.0184182870    0.0242388190    0.0007107577    
0.0186409480    0.0235546250    0.0007050893    
0.0188636090    0.0240512600    0.0007080027    
0.0190862700    0.0224178680    0.0006824700    
0.0193089310    0.0233422050    0.0006953123    
0.0195315920    0.0236562620    0.0006761692    
0.0197542530    0.0221939530    0.0006558914    
0.0199769140    0.0226397780    0.0006624464    
0.0201995750    0.0218048230    0.0006399359    
0.0204222360    0.0233079650    0.0006673051    
0.0206448970    0.0230343350    0.0006586617    
0.0208675580    0.0227819740    0.0006415549    
0.0210902190    0.0237394120    0.0006612162    
0.0213128800    0.0219884720    0.0006277298    
0.0215355410    0.0219400950    0.0006195691    
0.0217582020    0.0223950020    0.0006259594    
0.0219808630    0.0213764710    0.0006107563    
0.0222035240    0.0220532140    0.0006147275    
0.0224261850    0.0211406240    0.0005965172    
0.0226488460    0.0222336020    0.0006071492    
0.0228715070    0.0223542370    0.0006072817    
0.0230941680    0.0206384960    0.0005835115    
0.0233168290    0.0218688720    0.0006021490    
0.0235394900    0.0209672170    0.0005830980    
0.0237621510    0.0215271450    0.0005749266    
0.0239848120    0.0205920160    0.0005629513    
0.0242074730    0.0211117840    0.0005654492    
0.0244301340    0.0213725050    0.0005695792    
0.0246527950    0.0206723580    0.0005653590    
0.0248754560    0.0206991670    0.0005530110    
0.0250981170    0.0204354110    0.0005507017    
0.0253207780    0.0212726010    0.0005450930    
0.0255434390    0.0208730660    0.0005457127    
0.0257661000    0.0217981090    0.0005594779    
0.0259887610    0.0212529340    0.0005465665    
0.0262114220    0.0214800050    0.0005524061    
0.0264340830    0.0204848020    0.0005321177    
0.0266567440    0.0214065140    0.0005405961    
0.0268794050    0.0205550880    0.0005275741    
0.0271020660    0.0206441940    0.0005265759    
0.0273247270    0.0203704270    0.0005199313    
0.0275473880    0.0207520660    0.0005237349    
0.0277700490    0.0210691240    0.0005246012    
0.0279927100    0.0205490470    0.0005135657    
0.0282153710    0.0204642150    0.0005149962    
0.0284380320    0.0212396680    0.0005216215    
0.0286606930    0.0202858120    0.0005054109    
0.0288833540    0.0206663130    0.0005110979    
0.0291060150    0.0211443630    0.0005164849    
0.0293286760    0.0204119960    0.0005003902    
0.0295513370    0.0201138830    0.0004913137    
0.0297739980    0.0206818880    0.0005036878    
0.0299966590    0.0201947670    0.0004892198    
0.0302193200    0.0205802640    0.0005010642    
0.0304419810    0.0202152830    0.0004975151    
0.0306646420    0.0200268600    0.0004812147    
0.0308873030    0.0215163870    0.0004966349    
0.0311099640    0.0205796950    0.0004869655    
0.0313326250    0.0198445330    0.0004728912    
0.0315552860    0.0212525700    0.0004957226    
0.0317779470    0.0197722300    0.0004785628    
0.0320006080    0.0205433710    0.0004767226    
0.0322232690    0.0206487940    0.0004799450    
0.0324459300    0.0198800720    0.0004674107    
0.0326685910    0.0204936880    0.0004737871    
0.0328912520    0.0194278110    0.0004628294    
0.0331139130    0.0207623610    0.0004722379    
0.0333365740    0.0203136260    0.0004686235    
0.0335592350    0.0208368020    0.0004700562    
0.0337818960    0.0195861190    0.0004553680    
0.0340045570    0.0202521430    0.0004623102    
0.0342272170    0.0195377590    0.0004522920    
0.0344498780    0.0201782930    0.0004614668    
0.0346725390    0.0193259890    0.0004432520    
0.0348952000    0.0192510480    0.0004403764    
0.0351178610    0.0199766520    0.0004506521    
0.0353405220    0.0202685280    0.0004518645    
0.0355631830    0.0207960160    0.0004559828    
0.0357858440    0.0202361360    0.0004498030    
0.0360085050    0.0203787240    0.0004527487    
0.0362311660    0.0202015590    0.0004454180    
0.0364538270    0.0195306830    0.0004344445    
0.0366764880    0.0206120820    0.0004459860    
0.0368991490    0.0200704420    0.0004378687    
0.0371218100    0.0200507490    0.0004364017    
0.0373444710    0.0196550950    0.0004367799    
0.0375671320    0.0196559560    0.0004361533    
0.0377897930    0.0203687440    0.0004324974    
0.0380124540    0.0207181370    0.0004389278    
0.0382351150    0.0198905410    0.0004300720    
0.0384577760    0.0191528730    0.0004179499    
0.0386804370    0.0201778660    0.0004322616    
0.0389030980    0.0203476750    0.0004307894    
0.0391257590    0.0192986050    0.0004166892    
0.0393484200    0.0204200420    0.0004271826    
0.0395710810    0.0203406870    0.0004269261    
0.0397937420    0.0198389040    0.0004216274    
0.0400164030    0.0200638840    0.0004257363    
0.0402390640    0.0196562340    0.0004157780    
0.0404617250    0.0199638570    0.0004165469    
0.0406843860    0.0202363100    0.0004153278    
0.0409070470    0.0195809920    0.0004128036    
0.0411297080    0.0204927640    0.0004182197    
0.0413523690    0.0192602000    0.0004064926    
0.0415750300    0.0195538990    0.0004130593    
0.0417976910    0.0195905210    0.0004027529    
0.0420203520    0.0196629370    0.0004050127    
0.0422430130    0.0196776110    0.0004066976    
0.0424656740    0.0192915460    0.0003974471    
0.0426883350    0.0199548920    0.0004062288    
0.0429109960    0.0198051720    0.0004059664    
0.0431336570    0.0195988400    0.0003981563    
0.0433563180    0.0199466680    0.0004051390    
0.0435789790    0.0196915690    0.0003962159    
0.0438016400    0.0199466990    0.0004009437    
0.0440243010    0.0202546800    0.0003999279    
0.0442469620    0.0201305340    0.0004010894    
0.0444696230    0.0203355240    0.0004016808    
0.0446922840    0.0199309870    0.0003964845    
0.0449149450    0.0200005210    0.0003918659    
0.0451376060    0.0190576460    0.0003872418    
0.0453602670    0.0193689760    0.0003862994    
0.0455829280    0.0197085390    0.0003892202    
0.0458055890    0.0201568080    0.0003959171    
0.0460282500    0.0196128920    0.0003858295    
0.0462509110    0.0198044500    0.0003852977    
0.0464735720    0.0195341440    0.0003828753    
0.0466962330    0.0193410780    0.0003827104    
0.0469188940    0.0198264440    0.0003863842    
0.0471415550    0.0197263220    0.0003873868    
0.0473642160    0.0192591300    0.0003774124    
0.0475868770    0.0194709990    0.0003775975    
0.0478095380    0.0201720110    0.0003826528    
0.0480321990    0.0193273090    0.0003753760    
0.0482548600    0.0200771140    0.0003809212    
0.0484775210    0.0200649840    0.0003845871    
0.0487001820    0.0192241840    0.0003709325    
0.0489228430    0.0192464260    0.0003709476    
0.0491455040    0.0194676300    0.0003704929    
0.0493681650    0.0191079120    0.0003702083    
0.0495908260    0.0193508640    0.0003662861    
0.0498134870    0.0193818710    0.0003700691    
0.0500361480    0.0192935040    0.0003682476    
0.0502588090    0.0198176100    0.0003676237    
0.0504814700    0.0193102890    0.0003676317    
0.0507041310    0.0189836830    0.0003601757    
0.0509267920    0.0191824190    0.0003635539    
0.0511494530    0.0189342540    0.0003587861    
0.0513721140    0.0194560270    0.0003668990    
0.0515947750    0.0199472900    0.0003665766    
0.0518174360    0.0198474720    0.0003634556    
0.0520400970    0.0198291790    0.0003607691    
0.0522627580    0.0201676470    0.0003669272    
0.0524854190    0.0198116680    0.0003666314    
0.0527080800    0.0197406740    0.0003688074    
0.0529307410    0.0195857330    0.0003690825    
0.0531534020    0.0193674320    0.0003656837    
0.0533760630    0.0190581060    0.0003638872    
0.0535987240    0.0198510930    0.0003696467    
0.0538213850    0.0199897380    0.0003752329    
0.0540440460    0.0198079540    0.0003717551    
0.0542667070    0.0194735850    0.0003711443    
0.0544893680    0.0198059120    0.0003744972    
0.0547120290    0.0196681760    0.0003706361    
0.0549346900    0.0200104990    0.0003740443    
0.0551573510    0.0201909430    0.0003801501    
0.0553800120    0.0194550780    0.0003699861    
0.0556026730    0.0200136100    0.0003830400    
0.0558253340    0.0192693120    0.0003789971    
0.0560479950    0.0200147600    0.0003862587    
0.0562706560    0.0201300700    0.0003911148    
0.0564933170    0.0197157610    0.0003904302    
0.0567159780    0.0196911200    0.0003855080    
0.0569386390    0.0199399650    0.0003940212    
0.0571613000    0.0189190750    0.0003755382    
0.0573839610    0.0191193830    0.0003743864    
0.0576066220    0.0195718560    0.0003798392    
0.0578292830    0.0198453110    0.0003812179    
0.0580519440    0.0192467640    0.0003768807    
0.0582746050    0.0197064800    0.0003796735    
0.0584972660    0.0196284960    0.0003774711    
0.0587199270    0.0193200840    0.0003712656    
0.0589425880    0.0191864030    0.0003678149    
0.0591652490    0.0191917040    0.0003700304    
0.0593879100    0.0187319810    0.0003628567    
0.0596105710    0.0193447900    0.0003683553    
0.0598332320    0.0190776130    0.0003689295    
0.0600558930    0.0187928580    0.0003638312    
0.0602785540    0.0202573350    0.0003773422    
0.0605012150    0.0203190490    0.0003771203    
0.0607238760    0.0194583700    0.0003663574    
0.0609465370    0.0191633750    0.0003664319    
0.0611691980    0.0190484440    0.0003659105    
0.0613918590    0.0197075000    0.0003681234    
0.0616145200    0.0200249430    0.0003737923    
0.0618371810    0.0197840310    0.0003678880    
0.0620598420    0.0194889470    0.0003655106    
0.0622825030    0.0196585390    0.0003727114    
0.0625051640    0.0198933260    0.0003696648    
0.0627278250    0.0195241610    0.0003654647    
0.0629504860    0.0192147330    0.0003596096    
0.0631731470    0.0199207560    0.0003706869    
0.0633958080    0.0201786240    0.0003752255    
0.0636184690    0.0187289650    0.0003665307    
0.0638411300    0.0203399790    0.0003805357    
0.0640637910    0.0199556570    0.0003795745    
0.0642864520    0.0197256120    0.0003765637    
0.0645091130    0.0197070820    0.0003796851    
0.0647317740    0.0190247600    0.0003734655    
0.0649544350    0.0196705510    0.0003793334    
0.0651770960    0.0196301850    0.0003768769    
0.0653997570    0.0192929880    0.0003728157    
0.0656224180    0.0194348690    0.0003749977    
0.0658450790    0.0197377480    0.0003724766    
0.0660677400    0.0197217940    0.0003739107    
0.0662904010    0.0197018510    0.0003781831    
0.0665130620    0.0198479410    0.0003779361    
0.0667357230    0.0186217830    0.0003725847    
0.0669583840    0.0197265930    0.0003821950    
0.0671810450    0.0196704760    0.0003795438    
0.0674037060    0.0200169490    0.0003893582    
0.0676263670    0.0201204610    0.0003875056    
0.0678490280    0.0195065100    0.0003792142    
0.0680716890    0.0194082990    0.0003791002    
0.0682943500    0.0195504840    0.0003763189    
0.0685170110    0.0194592320    0.0003716139    
0.0687396720    0.0196806870    0.0003727296    
0.0689623330    0.0198577690    0.0003732162    
0.0691849940    0.0192591220    0.0003700941    
0.0694076550    0.0194303870    0.0003715376    
0.0696303160    0.0198301600    0.0003723686    
0.0698529770    0.0205060950    0.0003778682    
0.0700756380    0.0193112510    0.0003619870    
0.0702982990    0.0197549520    0.0003701091    
0.0705209600    0.0196825930    0.0003667635    
0.0707436210    0.0196444320    0.0003647251    
0.0709662820    0.0188882740    0.0003619001    
0.0711889430    0.0201521460    0.0003692207    
0.0714116040    0.0192699910    0.0003617861    
0.0716342650    0.0191811980    0.0003594860    
0.0718569260    0.0191873980    0.0003580960    
0.0720795870    0.0199425680    0.0003665517    
0.0723022480    0.0194627620    0.0003626672    
0.0725249090    0.0201934460    0.0003649882    
0.0727475700    0.0197682080    0.0003642092    
0.0729702310    0.0192164110    0.0003562261    
0.0731928920    0.0202090370    0.0003667708    
0.0734155530    0.0192864670    0.0003575863    
0.0736382140    0.0191706190    0.0003542227    
0.0738608750    0.0191605490    0.0003564175    
0.0740835360    0.0194481610    0.0003581911    
0.0743061970    0.0195776350    0.0003543209    
0.0745288580    0.0197401470    0.0003594469    
0.0747515190    0.0195553570    0.0003584671    
0.0749741800    0.0199109450    0.0003583633    
0.0751968410    0.0196089870    0.0003584279    
0.0754195020    0.0190302370    0.0003510301    
0.0756421630    0.0201790310    0.0003585153    
0.0758648240    0.0188296980    0.0003471539    
0.0760874850    0.0193551210    0.0003517950    
0.0763101460    0.0197774940    0.0003552716    
0.0765328070    0.0198847000    0.0003598783    
0.0767554680    0.0195900550    0.0003547782    
0.0769781290    0.0194671760    0.0003516315    
0.0772007900    0.0192936670    0.0003472534    
0.0774234510    0.0195959500    0.0003519537    
0.0776461120    0.0193947510    0.0003498101    
0.0778687730    0.0188280830    0.0003435233    
0.0780914340    0.0199563810    0.0003561936    
0.0783140950    0.0193650970    0.0003453101    
0.0785367560    0.0199818680    0.0003564215    
0.0787594170    0.0194755510    0.0003487242    
0.0789820780    0.0193630030    0.0003459334    
0.0792047390    0.0189983780    0.0003437811    
0.0794274000    0.0193479210    0.0003483992    
0.0796500610    0.0198640940    0.0003495705    
0.0798727220    0.0189677790    0.0003412774    
0.0800953830    0.0194185140    0.0003445144    
0.0803180440    0.0199812930    0.0003519055    
0.0805407050    0.0193131600    0.0003456503    
0.0807633660    0.0199750600    0.0003511971    
0.0809860270    0.0197971610    0.0003483386    
0.0812086880    0.0192215540    0.0003402711    
0.0814313490    0.0192088410    0.0003417099    
0.0816540100    0.0186494900    0.0003359314    
0.0818766710    0.0193547870    0.0003430061    
0.0820993320    0.0188361150    0.0003377623    
0.0823219930    0.0196330160    0.0003462554    
0.0825446540    0.0199746660    0.0003467176    
0.0827673150    0.0197190520    0.0003421776    
0.0829899760    0.0196903230    0.0003413196    
0.0832126370    0.0195686220    0.0003417872    
0.0834352980    0.0197427050    0.0003425365    
0.0836579590    0.0192348330    0.0003373494    
0.0838806200    0.0196411790    0.0003419609    
0.0841032810    0.0190688010    0.0003348497    
0.0843259420    0.0190742550    0.0003338663    
0.0845486030    0.0192671300    0.0003355502    
0.0847712640    0.0195929740    0.0003363136    
0.0849939250    0.0206402810    0.0003457862    
0.0852165860    0.0196837750    0.0003381214    
0.0854392470    0.0187428660    0.0003268166    
0.0856619080    0.0192570620    0.0003337090    
0.0858845690    0.0196784390    0.0003343020    
0.0861072300    0.0198992500    0.0003384931    
0.0863298910    0.0202769290    0.0003434795    
0.0865525520    0.0193335560    0.0003324981    
0.0867752130    0.0196417120    0.0003324332    
0.0869978740    0.0190803080    0.0003284830    
0.0872205350    0.0195056080    0.0003317012    
0.0874431960    0.0192461650    0.0003294881    
0.0876658570    0.0195363460    0.0003332373    
0.0878885180    0.0192269560    0.0003311549    
0.0881111790    0.0188249250    0.0003272539    
0.0883338400    0.0192719720    0.0003262689    
0.0885565010    0.0192080570    0.0003301445    
0.0887791620    0.0191443190    0.0003253222    
0.0890018230    0.0197711230    0.0003338117    
0.0892244840    0.0192163320    0.0003296543    
0.0894471450    0.0194412530    0.0003301774    
0.0896698060    0.0193894750    0.0003284937    
0.0898924670    0.0193168790    0.0003293979    
0.0901151280    0.0198142250    0.0003300080    
0.0903377890    0.0197169390    0.0003319519    
0.0905604500    0.0198132590    0.0003312346    
0.0907831110    0.0188387080    0.0003221822    
0.0910057720    0.0190620510    0.0003255736    
0.0912284330    0.0191684170    0.0003218062    
0.0914510940    0.0198855420    0.0003314257    
0.0916737550    0.0194461920    0.0003269307    
0.0918964160    0.0196803240    0.0003302607    
0.0921190770    0.0190811360    0.0003222540    
0.0923417380    0.0197013990    0.0003275841    
0.0925643990    0.0193774410    0.0003240846    
0.0927870600    0.0192088080    0.0003239946    
0.0930097210    0.0195007970    0.0003236675    
0.0932323820    0.0196849700    0.0003275827    
