# Diamond Light Source Ltd.
# Data extracted from: /dls/b21/data/2018/cm19678-3/processed/b21-386631_00154.dat
q(1/A)          Column          Error           
0.0035000000    2.0906318000    0.0245837620    
0.0037226610    1.9073909000    0.0229872880    
0.0039453220    1.6253018000    0.0193037430    
0.0041679830    1.3054955000    0.0142078050    
0.0043906440    0.9735626600    0.0117356340    
0.0046133050    0.7919964600    0.0101613190    
0.0048359660    0.5857995400    0.0082662906    
0.0050586270    0.4584332800    0.0071876292    
0.0052812880    0.4386233300    0.0066473343    
0.0055039490    0.3824461500    0.0059019749    
0.0057266100    0.3198273200    0.0052213661    
0.0059492710    0.2766097400    0.0048557926    
0.0061719320    0.2283568000    0.0042514889    
0.0063945930    0.1988983400    0.0040158954    
0.0066172539    0.1810922000    0.0035981740    
0.0068399149    0.1683686800    0.0034148279    
0.0070625759    0.1487853500    0.0031771730    
0.0072852369    0.1246168900    0.0028641886    
0.0075078979    0.1170722300    0.0027624901    
0.0077305589    0.1008620900    0.0025152720    
0.0079532199    0.0964391180    0.0024254219    
0.0081758809    0.0910336100    0.0023783894    
0.0083985419    0.0857326120    0.0021527543    
0.0086212029    0.0745430580    0.0020073591    
0.0088438639    0.0696270110    0.0019244557    
0.0090665249    0.0640078290    0.0017821253    
0.0092891859    0.0628670180    0.0018434570    
0.0095118469    0.0622394920    0.0017639301    
0.0097345079    0.0566333560    0.0016341834    
0.0099571689    0.0521055070    0.0015351732    
0.0101798300    0.0505224490    0.0015116728    
0.0104024910    0.0493724430    0.0014893123    
0.0106251520    0.0458637260    0.0014402914    
0.0108478130    0.0464135040    0.0014110121    
0.0110704740    0.0426928470    0.0012884096    
0.0112931350    0.0425137680    0.0012894806    
0.0115157960    0.0408597400    0.0012567767    
0.0117384570    0.0386015560    0.0012110385    
0.0119611180    0.0375242030    0.0011974454    
0.0121837790    0.0391545910    0.0012026237    
0.0124064400    0.0367385330    0.0011163685    
0.0126291010    0.0343030100    0.0010652287    
0.0128517620    0.0340423540    0.0010638236    
0.0130744230    0.0316723410    0.0010185138    
0.0132970840    0.0316552520    0.0010132599    
0.0135197450    0.0326457930    0.0010142554    
0.0137424060    0.0313448310    0.0009800046    
0.0139650670    0.0317507190    0.0009643594    
0.0141877280    0.0307144190    0.0009505874    
0.0144103890    0.0296075330    0.0009172091    
0.0146330500    0.0293169250    0.0009069018    
0.0148557110    0.0291272420    0.0009001731    
0.0150783720    0.0284562560    0.0008823911    
0.0153010330    0.0272871490    0.0008518919    
0.0155236940    0.0268847530    0.0008405591    
0.0157463550    0.0265956770    0.0008215432    
0.0159690160    0.0270238350    0.0008249870    
0.0161916770    0.0266703990    0.0008149571    
0.0164143380    0.0277586300    0.0008377161    
0.0166369990    0.0272843460    0.0008049215    
0.0168596600    0.0268290110    0.0007911444    
0.0170823210    0.0254722840    0.0007642067    
0.0173049820    0.0257444840    0.0007696073    
0.0175276430    0.0248101600    0.0007634799    
0.0177503040    0.0235167100    0.0007243630    
0.0179729650    0.0247366780    0.0007355464    
0.0181956260    0.0254595530    0.0007319107    
0.0184182870    0.0244489360    0.0007138566    
0.0186409480    0.0248438380    0.0007241532    
0.0188636090    0.0236777580    0.0007025082    
0.0190862700    0.0241232220    0.0007079771    
0.0193089310    0.0237373810    0.0007011977    
0.0195315920    0.0238125350    0.0006784226    
0.0197542530    0.0214394940    0.0006446693    
0.0199769140    0.0231259720    0.0006695450    
0.0201995750    0.0217312110    0.0006388770    
0.0204222360    0.0231949500    0.0006657085    
0.0206448970    0.0237516900    0.0006688627    
0.0208675580    0.0219524380    0.0006297883    
0.0210902190    0.0219360800    0.0006356282    
0.0213128800    0.0217570200    0.0006244391    
0.0215355410    0.0217316540    0.0006166404    
0.0217582020    0.0213642190    0.0006114053    
0.0219808630    0.0215001190    0.0006125415    
0.0222035240    0.0224488900    0.0006202392    
0.0224261850    0.0208727690    0.0005927468    
0.0226488460    0.0204609800    0.0005824637    
0.0228715070    0.0220753140    0.0006035022    
0.0230941680    0.0198149950    0.0005717714    
0.0233168290    0.0217045830    0.0005999038    
0.0235394900    0.0210011110    0.0005835894    
0.0237621510    0.0214979320    0.0005745564    
0.0239848120    0.0213014450    0.0005725864    
0.0242074730    0.0216282110    0.0005723432    
0.0244301340    0.0193701800    0.0005422610    
0.0246527950    0.0212304580    0.0005729597    
0.0248754560    0.0215132650    0.0005638007    
0.0250981170    0.0220990880    0.0005726998    
0.0253207780    0.0202823150    0.0005322727    
0.0255434390    0.0221015920    0.0005615622    
0.0257661000    0.0219145120    0.0005609892    
0.0259887610    0.0208186410    0.0005409721    
0.0262114220    0.0205580230    0.0005404395    
0.0264340830    0.0211912190    0.0005412337    
0.0266567440    0.0214626160    0.0005413229    
0.0268794050    0.0213554870    0.0005377664    
0.0271020660    0.0210486030    0.0005317271    
0.0273247270    0.0211283230    0.0005295336    
0.0275473880    0.0210839810    0.0005279250    
0.0277700490    0.0205219450    0.0005177623    
0.0279927100    0.0201653960    0.0005087667    
0.0282153710    0.0197527770    0.0005059827    
0.0284380320    0.0210745990    0.0005196086    
0.0286606930    0.0209420560    0.0005135387    
0.0288833540    0.0208952860    0.0005139394    
0.0291060150    0.0201238700    0.0005038847    
0.0293286760    0.0204011490    0.0005002746    
0.0295513370    0.0198392380    0.0004879649    
0.0297739980    0.0206833270    0.0005037228    
0.0299966590    0.0201013550    0.0004881041    
0.0302193200    0.0204352940    0.0004993137    
0.0304419810    0.0199228070    0.0004939202    
0.0306646420    0.0202826540    0.0004842950    
0.0308873030    0.0198785350    0.0004773752    
0.0311099640    0.0208346470    0.0004899897    
0.0313326250    0.0203643200    0.0004790610    
0.0315552860    0.0200976810    0.0004820821    
0.0317779470    0.0203412140    0.0004854166    
0.0320006080    0.0205116100    0.0004763705    
0.0322232690    0.0205275120    0.0004785501    
0.0324459300    0.0204309710    0.0004738592    
0.0326685910    0.0199145470    0.0004670609    
0.0328912520    0.0199143410    0.0004686052    
0.0331139130    0.0199474330    0.0004628935    
0.0333365740    0.0193528050    0.0004574224    
0.0335592350    0.0200110840    0.0004606644    
0.0337818960    0.0195768940    0.0004552766    
0.0340045570    0.0199791430    0.0004591996    
0.0342272170    0.0196124160    0.0004531711    
0.0344498780    0.0205490960    0.0004657038    
0.0346725390    0.0204253620    0.0004557008    
0.0348952000    0.0203102110    0.0004523444    
0.0351178610    0.0199373750    0.0004502246    
0.0353405220    0.0198568840    0.0004472679    
0.0355631830    0.0208674550    0.0004567812    
0.0357858440    0.0204675160    0.0004523829    
0.0360085050    0.0197866430    0.0004461387    
0.0362311660    0.0196136710    0.0004389043    
0.0364538270    0.0199379530    0.0004389661    
0.0366764880    0.0200923880    0.0004403431    
0.0368991490    0.0195463980    0.0004321295    
0.0371218100    0.0202326240    0.0004383918    
0.0373444710    0.0206465670    0.0004476763    
0.0375671320    0.0191153200    0.0004301283    
0.0377897930    0.0199201440    0.0004277231    
0.0380124540    0.0198268150    0.0004293973    
0.0382351150    0.0192502510    0.0004231080    
0.0384577760    0.0199021320    0.0004260614    
0.0386804370    0.0198366210    0.0004286057    
0.0389030980    0.0197014960    0.0004239087    
0.0391257590    0.0198038160    0.0004221228    
0.0393484200    0.0196260540    0.0004188098    
0.0395710810    0.0201539160    0.0004249763    
0.0397937420    0.0201001620    0.0004244093    
0.0400164030    0.0207067190    0.0004325178    
0.0402390640    0.0195872390    0.0004150621    
0.0404617250    0.0199217870    0.0004161223    
0.0406843860    0.0202206690    0.0004151817    
0.0409070470    0.0195301350    0.0004122815    
0.0411297080    0.0200076560    0.0004132543    
0.0413523690    0.0204112280    0.0004184773    
0.0415750300    0.0202184450    0.0004200343    
0.0417976910    0.0198817050    0.0004057491    
0.0420203520    0.0196726480    0.0004051267    
0.0422430130    0.0196873870    0.0004068128    
0.0424656740    0.0200708280    0.0004054092    
0.0426883350    0.0193856290    0.0004004065    
0.0429109960    0.0199563470    0.0004075271    
0.0431336570    0.0196891850    0.0003990869    
0.0433563180    0.0190921980    0.0003963802    
0.0435789790    0.0200437450    0.0003997571    
0.0438016400    0.0203510780    0.0004050016    
0.0440243010    0.0203034720    0.0004004232    
0.0442469620    0.0195405240    0.0003951816    
0.0444696230    0.0196545450    0.0003949117    
0.0446922840    0.0190726080    0.0003878662    
0.0449149450    0.0198329910    0.0003902348    
0.0451376060    0.0199245740    0.0003959654    
0.0453602670    0.0192393390    0.0003850179    
0.0455829280    0.0196868500    0.0003890196    
0.0458055890    0.0202359820    0.0003967077    
0.0460282500    0.0195535320    0.0003852585    
0.0462509110    0.0202481230    0.0003896032    
0.0464735720    0.0199482790    0.0003869260    
0.0466962330    0.0199104280    0.0003883160    
0.0469188940    0.0198579460    0.0003867045    
0.0471415550    0.0195374930    0.0003855417    
0.0473642160    0.0201480500    0.0003860375    
0.0475868770    0.0196847270    0.0003796774    
0.0478095380    0.0188957900    0.0003703633    
0.0480321990    0.0193869830    0.0003759682    
0.0482548600    0.0197315820    0.0003776423    
0.0484775210    0.0187468060    0.0003717527    
0.0487001820    0.0193114140    0.0003717860    
0.0489228430    0.0195766650    0.0003741295    
0.0491455040    0.0196100140    0.0003718582    
0.0493681650    0.0192096660    0.0003712056    
0.0495908260    0.0195671580    0.0003683403    
0.0498134870    0.0198142720    0.0003741874    
0.0500361480    0.0191191200    0.0003665924    
0.0502588090    0.0200849710    0.0003701081    
0.0504814700    0.0201305750    0.0003753719    
0.0507041310    0.0192241960    0.0003624627    
0.0509267920    0.0197487930    0.0003688947    
0.0511494530    0.0193911130    0.0003631014    
0.0513721140    0.0192843960    0.0003652898    
0.0515947750    0.0194838150    0.0003623054    
0.0518174360    0.0197223850    0.0003623211    
0.0520400970    0.0197124020    0.0003597178    
0.0522627580    0.0202892240    0.0003680443    
0.0524854190    0.0195552050    0.0003642633    
0.0527080800    0.0198729720    0.0003700541    
0.0529307410    0.0196288300    0.0003695012    
0.0531534020    0.0202181060    0.0003736414    
0.0533760630    0.0196708910    0.0003697040    
0.0535987240    0.0193706180    0.0003651585    
0.0538213850    0.0194698670    0.0003703343    
0.0540440460    0.0192511270    0.0003665053    
0.0542667070    0.0195103100    0.0003715070    
0.0544893680    0.0195594330    0.0003721726    
0.0547120290    0.0195857260    0.0003698713    
0.0549346900    0.0192147720    0.0003665446    
0.0551573510    0.0201207700    0.0003795021    
0.0553800120    0.0194986520    0.0003704131    
0.0556026730    0.0192451960    0.0003756278    
0.0558253340    0.0198521270    0.0003846994    
0.0560479950    0.0202025230    0.0003880797    
0.0562706560    0.0196830920    0.0003867617    
0.0564933170    0.0197171330    0.0003904574    
0.0567159780    0.0195188880    0.0003838317    
0.0569386390    0.0199724990    0.0003943562    
0.0571613000    0.0202846280    0.0003888685    
0.0573839610    0.0200444910    0.0003833503    
0.0576066220    0.0203251830    0.0003870937    
0.0578292830    0.0195537520    0.0003784203    
0.0580519440    0.0197721120    0.0003820029    
0.0582746050    0.0195176500    0.0003778632    
0.0584972660    0.0197097170    0.0003782644    
0.0587199270    0.0199350330    0.0003771410    
0.0589425880    0.0199211170    0.0003748042    
0.0591652490    0.0201491240    0.0003791611    
0.0593879100    0.0201461890    0.0003763178    
0.0596105710    0.0198652130    0.0003732902    
0.0598332320    0.0192430460    0.0003705385    
0.0600558930    0.0200973600    0.0003762601    
0.0602785540    0.0197104510    0.0003722267    
0.0605012150    0.0196764800    0.0003711222    
0.0607238760    0.0198322250    0.0003698729    
0.0609465370    0.0192978460    0.0003677281    
0.0611691980    0.0191060050    0.0003664757    
0.0613918590    0.0193031410    0.0003643399    
0.0616145200    0.0195030000    0.0003689016    
0.0618371810    0.0190054850    0.0003605893    
0.0620598420    0.0194903040    0.0003655360    
0.0622825030    0.0198577780    0.0003746084    
0.0625051640    0.0200595840    0.0003712192    
0.0627278250    0.0199838980    0.0003697553    
0.0629504860    0.0190343420    0.0003579300    
0.0631731470    0.0194944510    0.0003667118    
0.0633958080    0.0195241070    0.0003691028    
0.0636184690    0.0192682880    0.0003717835    
0.0638411300    0.0198002860    0.0003754663    
0.0640637910    0.0200292490    0.0003802870    
0.0642864520    0.0197413630    0.0003767271    
0.0645091130    0.0198693990    0.0003812588    
0.0647317740    0.0195319800    0.0003784244    
0.0649544350    0.0200230740    0.0003827308    
0.0651770960    0.0192552740    0.0003732736    
0.0653997570    0.0195248830    0.0003750626    
0.0656224180    0.0195954160    0.0003765565    
0.0658450790    0.0201327790    0.0003761986    
0.0660677400    0.0192907030    0.0003698144    
0.0662904010    0.0197395210    0.0003785576    
0.0665130620    0.0194678810    0.0003743131    
0.0667357230    0.0193611440    0.0003799225    
0.0669583840    0.0191651560    0.0003767300    
0.0671810450    0.0201918380    0.0003845541    
0.0674037060    0.0193366730    0.0003826981    
0.0676263670    0.0189500770    0.0003760795    
0.0678490280    0.0195004950    0.0003791690    
0.0680716890    0.0190986220    0.0003760766    
0.0682943500    0.0199647590    0.0003802984    
0.0685170110    0.0196238230    0.0003731952    
0.0687396720    0.0203809530    0.0003793159    
0.0689623330    0.0195013910    0.0003698650    
0.0691849940    0.0196729840    0.0003740625    
0.0694076550    0.0196448850    0.0003735957    
0.0696303160    0.0198385330    0.0003724602    
0.0698529770    0.0188850260    0.0003626375    
0.0700756380    0.0196518890    0.0003651783    
0.0702982990    0.0198811470    0.0003713023    
0.0705209600    0.0193558970    0.0003637196    
0.0707436210    0.0194426360    0.0003628596    
0.0709662820    0.0198534840    0.0003710446    
0.0711889430    0.0195717410    0.0003638775    
0.0714116040    0.0197264530    0.0003660587    
0.0716342650    0.0194453070    0.0003619651    
0.0718569260    0.0192422030    0.0003586195    
0.0720795870    0.0190141370    0.0003579300    
0.0723022480    0.0192951570    0.0003611148    
0.0725249090    0.0194097530    0.0003578481    
0.0727475700    0.0192327310    0.0003592550    
0.0729702310    0.0189866070    0.0003541020    
0.0731928920    0.0194448960    0.0003597823    
0.0734155530    0.0194204170    0.0003588384    
0.0736382140    0.0199246920    0.0003611348    
0.0738608750    0.0207465500    0.0003708883    
0.0740835360    0.0196540380    0.0003600945    
0.0743061970    0.0197585620    0.0003559668    
0.0745288580    0.0198069770    0.0003600673    
0.0747515190    0.0192150010    0.0003553462    
0.0749741800    0.0195317580    0.0003549469    
0.0751968410    0.0198658820    0.0003607807    
0.0754195020    0.0199446100    0.0003593769    
0.0756421630    0.0196134980    0.0003534681    
0.0758648240    0.0194454800    0.0003527969    
0.0760874850    0.0199959290    0.0003575836    
0.0763101460    0.0196001650    0.0003536876    
0.0765328070    0.0195408620    0.0003567657    
0.0767554680    0.0193022690    0.0003521749    
0.0769781290    0.0193224380    0.0003503340    
0.0772007900    0.0195637770    0.0003496878    
0.0774234510    0.0197174260    0.0003530551    
0.0776461120    0.0193897920    0.0003497775    
0.0778687730    0.0191553350    0.0003465078    
0.0780914340    0.0194936360    0.0003520520    
0.0783140950    0.0193910750    0.0003455537    
0.0785367560    0.0188451720    0.0003461474    
0.0787594170    0.0192333670    0.0003465612    
0.0789820780    0.0191109390    0.0003436864    
0.0792047390    0.0196218250    0.0003493885    
0.0794274000    0.0190920310    0.0003460996    
0.0796500610    0.0193056260    0.0003446334    
0.0798727220    0.0190673530    0.0003421839    
0.0800953830    0.0202450720    0.0003517824    
0.0803180440    0.0193442790    0.0003462627    
0.0805407050    0.0191845860    0.0003445098    
0.0807633660    0.0193898150    0.0003460261    
0.0809860270    0.0199517780    0.0003497084    
0.0812086880    0.0191746990    0.0003398680    
0.0814313490    0.0192284150    0.0003418959    
0.0816540100    0.0191470130    0.0003403947    
0.0818766710    0.0191008080    0.0003407600    
0.0820993320    0.0198550110    0.0003467893    
0.0823219930    0.0190236700    0.0003408516    
0.0825446540    0.0197593830    0.0003448561    
0.0827673150    0.0193106960    0.0003386278    
0.0829899760    0.0193248410    0.0003381488    
0.0832126370    0.0191819270    0.0003384051    
0.0834352980    0.0195360590    0.0003407510    
0.0836579590    0.0193959310    0.0003387709    
0.0838806200    0.0193388870    0.0003393309    
0.0841032810    0.0189760420    0.0003340459    
0.0843259420    0.0196600060    0.0003389656    
0.0845486030    0.0202035510    0.0003436197    
0.0847712640    0.0196809370    0.0003370794    
0.0849939250    0.0191933790    0.0003334577    
0.0852165860    0.0195283150    0.0003367952    
0.0854392470    0.0192114920    0.0003308885    
0.0856619080    0.0204902460    0.0003442402    
0.0858845690    0.0191232080    0.0003295636    
0.0861072300    0.0191808500    0.0003323384    
0.0863298910    0.0201095960    0.0003420712    
0.0865525520    0.0195179000    0.0003340911    
0.0867752130    0.0192041900    0.0003287213    
0.0869978740    0.0195566980    0.0003325700    
0.0872205350    0.0193320910    0.0003302340    
0.0874431960    0.0196141770    0.0003326349    
0.0876658570    0.0196684490    0.0003343737    
0.0878885180    0.0195648320    0.0003340635    
0.0881111790    0.0192188040    0.0003306713    
0.0883338400    0.0192456940    0.0003260577    
0.0885565010    0.0194363880    0.0003321125    
0.0887791620    0.0198090870    0.0003309337    
0.0890018230    0.0196034060    0.0003324044    
0.0892244840    0.0197492940    0.0003342062    
0.0894471450    0.0192407220    0.0003284816    
0.0896698060    0.0189900960    0.0003251042    
0.0898924670    0.0194979800    0.0003309499    
0.0901151280    0.0192494440    0.0003252821    
0.0903377890    0.0192432390    0.0003279515    
0.0905604500    0.0191777790    0.0003258908    
0.0907831110    0.0196224940    0.0003288276    
0.0910057720    0.0193581150    0.0003281036    
0.0912284330    0.0191589450    0.0003217379    
0.0914510940    0.0200360780    0.0003326894    
0.0916737550    0.0198872860    0.0003306292    
0.0918964160    0.0188336790    0.0003230900    
0.0921190770    0.0194416890    0.0003252957    
0.0923417380    0.0197572430    0.0003280595    
0.0925643990    0.0191240200    0.0003219696    
0.0927870600    0.0192921230    0.0003247078    
0.0930097210    0.0196364660    0.0003248027    
0.0932323820    0.0192883610    0.0003242772    
