# Diamond Light Source Ltd.
# Data extracted from: /dls/b21/data/2018/cm19678-3/processed/b21-386631_00171.dat
q(1/A)          Column          Error           
0.0035000000    2.0915714000    0.0245948110    
0.0037226610    1.9118512000    0.0230193200    
0.0039453220    1.6225916000    0.0192919750    
0.0041679830    1.2635414000    0.0139807870    
0.0043906440    0.9568752300    0.0116372360    
0.0046133050    0.7816572700    0.0100970440    
0.0048359660    0.5986663100    0.0083584575    
0.0050586270    0.4660803600    0.0072489577    
0.0052812880    0.4269277600    0.0065595858    
0.0055039490    0.3868096100    0.0059368819    
0.0057266100    0.3212502600    0.0052341441    
0.0059492710    0.2672679600    0.0047741648    
0.0061719320    0.2273507900    0.0042430668    
0.0063945930    0.2024759000    0.0040527615    
0.0066172539    0.1935474700    0.0037206910    
0.0068399149    0.1626932600    0.0033575348    
0.0070625759    0.1526532800    0.0032189291    
0.0072852369    0.1248704800    0.0028677456    
0.0075078979    0.1166031300    0.0027575695    
0.0077305589    0.1000916300    0.0025062097    
0.0079532199    0.1014866100    0.0024886431    
0.0081758809    0.0938098660    0.0024149264    
0.0083985419    0.0858252220    0.0021544007    
0.0086212029    0.0837161090    0.0021277645    
0.0088438639    0.0715740400    0.0019516161    
0.0090665249    0.0685042660    0.0018440728    
0.0092891859    0.0633279130    0.0018506178    
0.0095118469    0.0611171410    0.0017483462    
0.0097345079    0.0570362190    0.0016403540    
0.0099571689    0.0533054450    0.0015530982    
0.0101798300    0.0524456900    0.0015405226    
0.0104024910    0.0501586980    0.0015014614    
0.0106251520    0.0472871140    0.0014627990    
0.0108478130    0.0423574090    0.0013482512    
0.0110704740    0.0436456300    0.0013029998    
0.0112931350    0.0420633300    0.0012829195    
0.0115157960    0.0407234090    0.0012549602    
0.0117384570    0.0389610010    0.0012169372    
0.0119611180    0.0386879430    0.0012161451    
0.0121837790    0.0345897810    0.0011306024    
0.0124064400    0.0373659310    0.0011261135    
0.0126291010    0.0355759960    0.0010850577    
0.0128517620    0.0353547710    0.0010843798    
0.0130744230    0.0320142540    0.0010242267    
0.0132970840    0.0321886510    0.0010219907    
0.0135197450    0.0311472390    0.0009909257    
0.0137424060    0.0332594580    0.0010097185    
0.0139650670    0.0321166310    0.0009701183    
0.0141877280    0.0298452280    0.0009372510    
0.0144103890    0.0287111780    0.0009034213    
0.0146330500    0.0287687590    0.0008985851    
0.0148557110    0.0291403330    0.0009005776    
0.0150783720    0.0288249080    0.0008882879    
0.0153010330    0.0285765780    0.0008719831    
0.0155236940    0.0277644750    0.0008543927    
0.0157463550    0.0266584080    0.0008226963    
0.0159690160    0.0252722160    0.0007979816    
0.0161916770    0.0244152550    0.0007799167    
0.0164143380    0.0258488790    0.0008085675    
0.0166369990    0.0243032470    0.0007598476    
0.0168596600    0.0240869420    0.0007497937    
0.0170823210    0.0257131080    0.0007679833    
0.0173049820    0.0244210670    0.0007497335    
0.0175276430    0.0254324410    0.0007731690    
0.0177503040    0.0236165660    0.0007260624    
0.0179729650    0.0248790830    0.0007378263    
0.0181956260    0.0249657860    0.0007249414    
0.0184182870    0.0237300880    0.0007034419    
0.0186409480    0.0245804790    0.0007204666    
0.0188636090    0.0237092520    0.0007031332    
0.0190862700    0.0232402090    0.0006950549    
0.0193089310    0.0243904480    0.0007109377    
0.0195315920    0.0232431260    0.0006704128    
0.0197542530    0.0231363570    0.0006698457    
0.0199769140    0.0217206450    0.0006490284    
0.0201995750    0.0224174470    0.0006490317    
0.0204222360    0.0233009480    0.0006673778    
0.0206448970    0.0228766940    0.0006565744    
0.0208675580    0.0219261520    0.0006295526    
0.0210902190    0.0223697480    0.0006420247    
0.0213128800    0.0212468330    0.0006172130    
0.0215355410    0.0231243300    0.0006362353    
0.0217582020    0.0211987690    0.0006091701    
0.0219808630    0.0214399450    0.0006118211    
0.0222035240    0.0222532480    0.0006176694    
0.0224261850    0.0216062890    0.0006032077    
0.0226488460    0.0207521800    0.0005867256    
0.0228715070    0.0218211370    0.0006001525    
0.0230941680    0.0225804290    0.0006105049    
0.0233168290    0.0220792850    0.0006051959    
0.0235394900    0.0207347350    0.0005800068    
0.0237621510    0.0212157050    0.0005709008    
0.0239848120    0.0203871310    0.0005602890    
0.0242074730    0.0205772490    0.0005583897    
0.0244301340    0.0210950410    0.0005660167    
0.0246527950    0.0210388930    0.0005704971    
0.0248754560    0.0201334040    0.0005455426    
0.0250981170    0.0207132860    0.0005545771    
0.0253207780    0.0203193800    0.0005328786    
0.0255434390    0.0209552740    0.0005469282    
0.0257661000    0.0220680330    0.0005630773    
0.0259887610    0.0215874250    0.0005509937    
0.0262114220    0.0220739170    0.0005601363    
0.0264340830    0.0212284020    0.0005418301    
0.0266567440    0.0212810330    0.0005391492    
0.0268794050    0.0207147840    0.0005297570    
0.0271020660    0.0200501790    0.0005190795    
0.0273247270    0.0206731050    0.0005239157    
0.0275473880    0.0211860290    0.0005293200    
0.0277700490    0.0205180990    0.0005178301    
0.0279927100    0.0207266560    0.0005159142    
0.0282153710    0.0203062670    0.0005131380    
0.0284380320    0.0207380090    0.0005155583    
0.0286606930    0.0203845310    0.0005067707    
0.0288833540    0.0201585330    0.0005049109    
0.0291060150    0.0194891660    0.0004959862    
0.0293286760    0.0202262190    0.0004982371    
0.0295513370    0.0201243230    0.0004915687    
0.0297739980    0.0209503600    0.0005070780    
0.0299966590    0.0193159340    0.0004785807    
0.0302193200    0.0215551930    0.0005129282    
0.0304419810    0.0200665180    0.0004958097    
0.0306646420    0.0205462840    0.0004875418    
0.0308873030    0.0201397900    0.0004806099    
0.0311099640    0.0198986510    0.0004789644    
0.0313326250    0.0206666160    0.0004827120    
0.0315552860    0.0203265220    0.0004849279    
0.0317779470    0.0200026850    0.0004814685    
0.0320006080    0.0198677920    0.0004689401    
0.0322232690    0.0198000930    0.0004701002    
0.0324459300    0.0203851770    0.0004734342    
0.0326685910    0.0202084320    0.0004706002    
0.0328912520    0.0199343220    0.0004689455    
0.0331139130    0.0193223490    0.0004556854    
0.0333365740    0.0200213080    0.0004653602    
0.0335592350    0.0205929900    0.0004674193    
0.0337818960    0.0202848030    0.0004635391    
0.0340045570    0.0199775630    0.0004592847    
0.0342272170    0.0207211930    0.0004659095    
0.0344498780    0.0202310030    0.0004621891    
0.0346725390    0.0194479070    0.0004447633    
0.0348952000    0.0200572840    0.0004496200    
0.0351178610    0.0198446200    0.0004492770    
0.0353405220    0.0194727250    0.0004430198    
0.0355631830    0.0197764730    0.0004447803    
0.0357858440    0.0204967210    0.0004528073    
0.0360085050    0.0195137490    0.0004431511    
0.0362311660    0.0200941330    0.0004443474    
0.0364538270    0.0197728740    0.0004372433    
0.0366764880    0.0201207280    0.0004407526    
0.0368991490    0.0198514730    0.0004355866    
0.0371218100    0.0196050050    0.0004316357    
0.0373444710    0.0203256630    0.0004442834    
0.0375671320    0.0202568210    0.0004428845    
0.0377897930    0.0198004630    0.0004265321    
0.0380124540    0.0196310420    0.0004273681    
0.0382351150    0.0194914980    0.0004258466    
0.0384577760    0.0198015740    0.0004250792    
0.0386804370    0.0198270060    0.0004285981    
0.0389030980    0.0199841050    0.0004270342    
0.0391257590    0.0202087900    0.0004265129    
0.0393484200    0.0199746400    0.0004226077    
0.0395710810    0.0204946900    0.0004286504    
0.0397937420    0.0194099010    0.0004171521    
0.0400164030    0.0197308390    0.0004222977    
0.0402390640    0.0196752360    0.0004160869    
0.0404617250    0.0202177010    0.0004192956    
0.0406843860    0.0195304140    0.0004081255    
0.0409070470    0.0196782270    0.0004139346    
0.0411297080    0.0196152900    0.0004092741    
0.0413523690    0.0199826370    0.0004141535    
0.0415750300    0.0198434100    0.0004162139    
0.0417976910    0.0200728960    0.0004077869    
0.0420203520    0.0199569300    0.0004081351    
0.0422430130    0.0195448550    0.0004054286    
0.0424656740    0.0196538370    0.0004012659    
0.0426883350    0.0195019030    0.0004016957    
0.0429109960    0.0196905640    0.0004048952    
0.0431336570    0.0203049990    0.0004053710    
0.0433563180    0.0200969830    0.0004067682    
0.0435789790    0.0193588040    0.0003929557    
0.0438016400    0.0193926100    0.0003954383    
0.0440243010    0.0196568420    0.0003940838    
0.0442469620    0.0194293720    0.0003941446    
0.0444696230    0.0197507010    0.0003959655    
0.0446922840    0.0195941140    0.0003932215    
0.0449149450    0.0195115900    0.0003871469    
0.0451376060    0.0201382170    0.0003981720    
0.0453602670    0.0206817560    0.0003992796    
0.0455829280    0.0201033010    0.0003932010    
0.0458055890    0.0198327050    0.0003928231    
0.0460282500    0.0203748850    0.0003933551    
0.0462509110    0.0204147210    0.0003912906    
0.0464735720    0.0197920600    0.0003854946    
0.0466962330    0.0195859980    0.0003852259    
0.0469188940    0.0196860570    0.0003851138    
0.0471415550    0.0197974520    0.0003881853    
0.0473642160    0.0202681020    0.0003872729    
0.0475868770    0.0196422880    0.0003793531    
0.0478095380    0.0198774570    0.0003799474    
0.0480321990    0.0195780550    0.0003779012    
0.0482548600    0.0201309210    0.0003815303    
0.0484775210    0.0196255100    0.0003804508    
0.0487001820    0.0202724920    0.0003810107    
0.0489228430    0.0193851740    0.0003723789    
0.0491455040    0.0194636260    0.0003705509    
0.0493681650    0.0197565260    0.0003765368    
0.0495908260    0.0196383840    0.0003690930    
0.0498134870    0.0194484880    0.0003708007    
0.0500361480    0.0193175830    0.0003685730    
0.0502588090    0.0188180790    0.0003583259    
0.0504814700    0.0194603650    0.0003691533    
0.0507041310    0.0190824190    0.0003612048    
0.0509267920    0.0194198720    0.0003658920    
0.0511494530    0.0201004530    0.0003697661    
0.0513721140    0.0196184220    0.0003685226    
0.0515947750    0.0191825240    0.0003595740    
0.0518174360    0.0191518970    0.0003571226    
0.0520400970    0.0194323060    0.0003572332    
0.0522627580    0.0194767910    0.0003606813    
0.0524854190    0.0202360390    0.0003706334    
0.0527080800    0.0194200140    0.0003658947    
0.0529307410    0.0196306920    0.0003696018    
0.0531534020    0.0191978720    0.0003641739    
0.0533760630    0.0195824100    0.0003689544    
0.0535987240    0.0198063030    0.0003693252    
0.0538213850    0.0198027910    0.0003735711    
0.0540440460    0.0198182360    0.0003719481    
0.0542667070    0.0192076800    0.0003686973    
0.0544893680    0.0192990010    0.0003697697    
0.0547120290    0.0194407900    0.0003685830    
0.0549346900    0.0198599910    0.0003727317    
0.0551573510    0.0196070530    0.0003747103    
0.0553800120    0.0202536390    0.0003776010    
0.0556026730    0.0199433160    0.0003824659    
0.0558253340    0.0202787060    0.0003888979    
0.0560479950    0.0200997300    0.0003871782    
0.0562706560    0.0198439990    0.0003884266    
0.0564933170    0.0193778890    0.0003871708    
0.0567159780    0.0192331600    0.0003810976    
0.0569386390    0.0197711440    0.0003924515    
0.0571613000    0.0187946470    0.0003743983    
0.0573839610    0.0195693980    0.0003788651    
0.0576066220    0.0195893900    0.0003801079    
0.0578292830    0.0193866970    0.0003768850    
0.0580519440    0.0196850090    0.0003812462    
0.0582746050    0.0196874340    0.0003795884    
0.0584972660    0.0199655110    0.0003807966    
0.0587199270    0.0190303090    0.0003685664    
0.0589425880    0.0196690400    0.0003725090    
0.0591652490    0.0202723900    0.0003804046    
0.0593879100    0.0199653650    0.0003747094    
0.0596105710    0.0195302730    0.0003702130    
0.0598332320    0.0196728470    0.0003747379    
0.0600558930    0.0196764970    0.0003723832    
0.0602785540    0.0195153650    0.0003704633    
0.0605012150    0.0189290030    0.0003640866    
0.0607238760    0.0191717150    0.0003637432    
0.0609465370    0.0194537360    0.0003692934    
0.0611691980    0.0197053300    0.0003722628    
0.0613918590    0.0199310050    0.0003703011    
0.0616145200    0.0200143940    0.0003737908    
0.0618371810    0.0196437210    0.0003666763    
0.0620598420    0.0195745080    0.0003664071    
0.0622825030    0.0194566420    0.0003708888    
0.0625051640    0.0197112130    0.0003680644    
0.0627278250    0.0193494930    0.0003639206    
0.0629504860    0.0194132490    0.0003615563    
0.0631731470    0.0199379970    0.0003709435    
0.0633958080    0.0190511920    0.0003646871    
0.0636184690    0.0190114060    0.0003693799    
0.0638411300    0.0198875380    0.0003763772    
0.0640637910    0.0200888160    0.0003809376    
0.0642864520    0.0196926970    0.0003763470    
0.0645091130    0.0198490530    0.0003811491    
0.0647317740    0.0195040820    0.0003782390    
0.0649544350    0.0199881590    0.0003824828    
0.0651770960    0.0197924010    0.0003785291    
0.0653997570    0.0195624900    0.0003755080    
0.0656224180    0.0198793190    0.0003793597    
0.0658450790    0.0189532910    0.0003650944    
0.0660677400    0.0195050630    0.0003719470    
0.0662904010    0.0190002920    0.0003714851    
0.0665130620    0.0194334290    0.0003740658    
0.0667357230    0.0194593470    0.0003809704    
0.0669583840    0.0190107770    0.0003752939    
0.0671810450    0.0189992630    0.0003731088    
0.0674037060    0.0194059830    0.0003834695    
0.0676263670    0.0192871390    0.0003794946    
0.0678490280    0.0195240110    0.0003794828    
0.0680716890    0.0193591030    0.0003787176    
0.0682943500    0.0200317100    0.0003810211    
0.0685170110    0.0203071820    0.0003797228    
0.0687396720    0.0195637730    0.0003717173    
0.0689623330    0.0192224160    0.0003672924    
0.0691849940    0.0199451040    0.0003767253    
0.0694076550    0.0199593590    0.0003766587    
0.0696303160    0.0195955950    0.0003702558    
0.0698529770    0.0193324110    0.0003669903    
0.0700756380    0.0200476890    0.0003689203    
0.0702982990    0.0194460760    0.0003672996    
0.0705209600    0.0192620290    0.0003629181    
0.0707436210    0.0191532690    0.0003602301    
0.0709662820    0.0198554690    0.0003711465    
0.0711889430    0.0193301120    0.0003617056    
0.0714116040    0.0197081350    0.0003659709    
0.0716342650    0.0192585620    0.0003603037    
0.0718569260    0.0193778970    0.0003599627    
0.0720795870    0.0199124750    0.0003663701    
0.0723022480    0.0195945700    0.0003639876    
0.0725249090    0.0200917200    0.0003641622    
0.0727475700    0.0195636310    0.0003624138    
0.0729702310    0.0189488920    0.0003538297    
0.0731928920    0.0192471770    0.0003580289    
0.0734155530    0.0191571770    0.0003564782    
0.0736382140    0.0192264090    0.0003548298    
0.0738608750    0.0195419640    0.0003600409    
0.0740835360    0.0198410840    0.0003618853    
0.0743061970    0.0197738580    0.0003561846    
0.0745288580    0.0192134130    0.0003547108    
0.0747515190    0.0200783120    0.0003633228    
0.0749741800    0.0194566430    0.0003543433    
0.0751968410    0.0195142840    0.0003576541    
0.0754195020    0.0193705150    0.0003542465    
0.0756421630    0.0195076000    0.0003525918    
0.0758648240    0.0188522780    0.0003474521    
0.0760874850    0.0190069090    0.0003487066    
0.0763101460    0.0188363630    0.0003468056    
0.0765328070    0.0195561610    0.0003569855    
0.0767554680    0.0196387930    0.0003553114    
0.0769781290    0.0197823080    0.0003545581    
0.0772007900    0.0196976330    0.0003509609    
0.0774234510    0.0192329720    0.0003487693    
0.0776461120    0.0197078210    0.0003527136    
0.0778687730    0.0191890280    0.0003468904    
0.0780914340    0.0196932230    0.0003539291    
0.0783140950    0.0197694270    0.0003489870    
0.0785367560    0.0190699120    0.0003482835    
0.0787594170    0.0193732060    0.0003478969    
0.0789820780    0.0191937310    0.0003445074    
0.0792047390    0.0195497310    0.0003488244    
0.0794274000    0.0192198720    0.0003473345    
0.0796500610    0.0199913490    0.0003507794    
0.0798727220    0.0197025710    0.0003479152    
0.0800953830    0.0199606320    0.0003493809    
0.0803180440    0.0195079950    0.0003478030    
0.0805407050    0.0194345930    0.0003468252    
0.0807633660    0.0193861740    0.0003460713    
0.0809860270    0.0192923210    0.0003439578    
0.0812086880    0.0196232730    0.0003438977    
0.0814313490    0.0199486400    0.0003483184    
0.0816540100    0.0190708590    0.0003397934    
0.0818766710    0.0190060000    0.0003399897    
0.0820993320    0.0194518690    0.0003433277    
0.0823219930    0.0194110310    0.0003443816    
0.0825446540    0.0198344980    0.0003455886    
0.0827673150    0.0198005770    0.0003429732    
0.0829899760    0.0193276060    0.0003382490    
0.0832126370    0.0188500990    0.0003355407    
0.0834352980    0.0191702350    0.0003376214    
0.0836579590    0.0190494680    0.0003358071    
0.0838806200    0.0189127340    0.0003356468    
0.0841032810    0.0192316580    0.0003363638    
0.0843259420    0.0195519050    0.0003381084    
0.0845486030    0.0196513310    0.0003389672    
0.0847712640    0.0194818520    0.0003354456    
0.0849939250    0.0200945820    0.0003412731    
0.0852165860    0.0192872120    0.0003347849    
0.0854392470    0.0194424890    0.0003329467    
0.0856619080    0.0193654180    0.0003347334    
0.0858845690    0.0197170640    0.0003347168    
0.0861072300    0.0191088180    0.0003317883    
0.0863298910    0.0194258920    0.0003362814    
0.0865525520    0.0190174790    0.0003298545    
0.0867752130    0.0195956140    0.0003321290    
0.0869978740    0.0195032490    0.0003321898    
0.0872205350    0.0193012740    0.0003300448    
0.0874431960    0.0194762570    0.0003315378    
0.0876658570    0.0197000370    0.0003347173    
0.0878885180    0.0193910140    0.0003326510    
0.0881111790    0.0193754320    0.0003320906    
0.0883338400    0.0191603920    0.0003254074    
0.0885565010    0.0199617680    0.0003366468    
0.0887791620    0.0194916540    0.0003283453    
0.0890018230    0.0193922980    0.0003306840    
0.0892244840    0.0191640670    0.0003292912    
0.0894471450    0.0192886420    0.0003289643    
0.0896698060    0.0192046530    0.0003270091    
0.0898924670    0.0191245880    0.0003278394    
0.0901151280    0.0196100420    0.0003283884    
0.0903377890    0.0195426510    0.0003305673    
0.0905604500    0.0194190940    0.0003280084    
0.0907831110    0.0194493890    0.0003274475    
0.0910057720    0.0196728110    0.0003308341    
0.0912284330    0.0196432310    0.0003258521    
0.0914510940    0.0187739570    0.0003221129    
0.0916737550    0.0195167770    0.0003276085    
0.0918964160    0.0189530450    0.0003241850    
0.0921190770    0.0195865570    0.0003265787    
0.0923417380    0.0196135310    0.0003269376    
0.0925643990    0.0190783840    0.0003216575    
0.0927870600    0.0195140310    0.0003266433    
0.0930097210    0.0195861680    0.0003244593    
0.0932323820    0.0194879280    0.0003260237    
