# Diamond Light Source Ltd.
# Data extracted from: /dls/b21/data/2018/cm19678-3/processed/b21-386631_00168.dat
q(1/A)          Column          Error           
0.0035000000    2.1291148000    0.0248142510    
0.0037226610    1.8943421000    0.0229133790    
0.0039453220    1.6305783000    0.0193391510    
0.0041679830    1.2830003000    0.0140878510    
0.0043906440    0.9746831300    0.0117448750    
0.0046133050    0.7950712400    0.0101831830    
0.0048359660    0.5957337300    0.0083378546    
0.0050586270    0.4717055600    0.0072924785    
0.0052812880    0.4337701800    0.0066118587    
0.0055039490    0.3889866600    0.0059534900    
0.0057266100    0.3203040600    0.0052263639    
0.0059492710    0.2676875800    0.0047778505    
0.0061719320    0.2206141600    0.0041796779    
0.0063945930    0.2054721300    0.0040825860    
0.0066172539    0.1855319300    0.0036427862    
0.0068399149    0.1729438200    0.0034616468    
0.0070625759    0.1435542500    0.0031214822    
0.0072852369    0.1222988400    0.0028380261    
0.0075078979    0.1155567800    0.0027451340    
0.0077305589    0.1014696300    0.0025233708    
0.0079532199    0.0947102980    0.0024040934    
0.0081758809    0.0893937490    0.0023573698    
0.0083985419    0.0869587010    0.0021685529    
0.0086212029    0.0758184810    0.0020248883    
0.0088438639    0.0710933030    0.0019450262    
0.0090665249    0.0647299260    0.0017925295    
0.0092891859    0.0668955100    0.0019020070    
0.0095118469    0.0626659870    0.0017703386    
0.0097345079    0.0580726270    0.0016551694    
0.0099571689    0.0558833240    0.0015901890    
0.0101798300    0.0535303520    0.0015563516    
0.0104024910    0.0506518100    0.0015088046    
0.0106251520    0.0476479120    0.0014683504    
0.0108478130    0.0446307890    0.0013839420    
0.0110704740    0.0426720520    0.0012883688    
0.0112931350    0.0420622640    0.0012828870    
0.0115157960    0.0403356490    0.0012489553    
0.0117384570    0.0389220030    0.0012163126    
0.0119611180    0.0376930290    0.0012003906    
0.0121837790    0.0363626940    0.0011592003    
0.0124064400    0.0364826140    0.0011127093    
0.0126291010    0.0343837420    0.0010667076    
0.0128517620    0.0352208410    0.0010823102    
0.0130744230    0.0322100450    0.0010273409    
0.0132970840    0.0317984660    0.0010157647    
0.0135197450    0.0326281120    0.0010141957    
0.0137424060    0.0306837550    0.0009698207    
0.0139650670    0.0310902200    0.0009544784    
0.0141877280    0.0312572270    0.0009591537    
0.0144103890    0.0313540860    0.0009440748    
0.0146330500    0.0286276980    0.0008963680    
0.0148557110    0.0271357250    0.0008690387    
0.0150783720    0.0272365210    0.0008634558    
0.0153010330    0.0280703220    0.0008642137    
0.0155236940    0.0268172790    0.0008396816    
0.0157463550    0.0268608380    0.0008258035    
0.0159690160    0.0269345100    0.0008237971    
0.0161916770    0.0255357160    0.0007976018    
0.0164143380    0.0249124270    0.0007937759    
0.0166369990    0.0265357170    0.0007939703    
0.0168596600    0.0252299650    0.0007673682    
0.0170823210    0.0254372110    0.0007638423    
0.0173049820    0.0257323850    0.0007695895    
0.0175276430    0.0254788050    0.0007738636    
0.0177503040    0.0246873920    0.0007423311    
0.0179729650    0.0239156980    0.0007233908    
0.0181956260    0.0231338140    0.0006978280    
0.0184182870    0.0242507850    0.0007111086    
0.0186409480    0.0227638190    0.0006933232    
0.0188636090    0.0226660540    0.0006874817    
0.0190862700    0.0225536560    0.0006847028    
0.0193089310    0.0241826100    0.0007078932    
0.0195315920    0.0215409200    0.0006453891    
0.0197542530    0.0238920950    0.0006806892    
0.0199769140    0.0223988470    0.0006590747    
0.0201995750    0.0226235720    0.0006520005    
0.0204222360    0.0232239000    0.0006662650    
0.0206448970    0.0210105990    0.0006292178    
0.0208675580    0.0217086900    0.0006264150    
0.0210902190    0.0214110280    0.0006281082    
0.0213128800    0.0220531160    0.0006288071    
0.0215355410    0.0230362200    0.0006350140    
0.0217582020    0.0222835250    0.0006245536    
0.0219808630    0.0214917770    0.0006125525    
0.0222035240    0.0215154990    0.0006073368    
0.0224261850    0.0221783010    0.0006111325    
0.0226488460    0.0213322360    0.0005948615    
0.0228715070    0.0222002160    0.0006053354    
0.0230941680    0.0199389380    0.0005736785    
0.0233168290    0.0218630800    0.0006022179    
0.0235394900    0.0206693140    0.0005790837    
0.0237621510    0.0210154590    0.0005681929    
0.0239848120    0.0206483750    0.0005638603    
0.0242074730    0.0208797710    0.0005624723    
0.0244301340    0.0210945060    0.0005660024    
0.0246527950    0.0227245220    0.0005929033    
0.0248754560    0.0203102760    0.0005479267    
0.0250981170    0.0207721520    0.0005553575    
0.0253207780    0.0212970770    0.0005455412    
0.0255434390    0.0209119200    0.0005463552    
0.0257661000    0.0206307890    0.0005444257    
0.0259887610    0.0209962270    0.0005433896    
0.0262114220    0.0204530330    0.0005391720    
0.0264340830    0.0208129870    0.0005364956    
0.0266567440    0.0207204800    0.0005319944    
0.0268794050    0.0201317130    0.0005222414    
0.0271020660    0.0206275090    0.0005264930    
0.0273247270    0.0198892270    0.0005138803    
0.0275473880    0.0207094140    0.0005233255    
0.0277700490    0.0203346200    0.0005155031    
0.0279927100    0.0200840570    0.0005078472    
0.0282153710    0.0205521180    0.0005162285    
0.0284380320    0.0203145310    0.0005102608    
0.0286606930    0.0199178780    0.0005009301    
0.0288833540    0.0211950090    0.0005177220    
0.0291060150    0.0218111560    0.0005246949    
0.0293286760    0.0206920760    0.0005039359    
0.0295513370    0.0205800810    0.0004970976    
0.0297739980    0.0210111930    0.0005078072    
0.0299966590    0.0203233100    0.0004908955    
0.0302193200    0.0203341120    0.0004981816    
0.0304419810    0.0205192700    0.0005013656    
0.0306646420    0.0210316430    0.0004932604    
0.0308873030    0.0196117130    0.0004742611    
0.0311099640    0.0208780670    0.0004906040    
0.0313326250    0.0197866830    0.0004723179    
0.0315552860    0.0198632630    0.0004793640    
0.0317779470    0.0201875970    0.0004836827    
0.0320006080    0.0203874910    0.0004750277    
0.0322232690    0.0203464800    0.0004765363    
0.0324459300    0.0200438160    0.0004694476    
0.0326685910    0.0203832590    0.0004726255    
0.0328912520    0.0199338170    0.0004689336    
0.0331139130    0.0201493250    0.0004653287    
0.0333365740    0.0199883520    0.0004649712    
0.0335592350    0.0202954100    0.0004640239    
0.0337818960    0.0200830350    0.0004612222    
0.0340045570    0.0202938180    0.0004628999    
0.0342272170    0.0198721470    0.0004562587    
0.0344498780    0.0207267490    0.0004678117    
0.0346725390    0.0202916260    0.0004543028    
0.0348952000    0.0197544120    0.0004462067    
0.0351178610    0.0188778470    0.0004381910    
0.0353405220    0.0199459340    0.0004483648    
0.0355631830    0.0199660290    0.0004469011    
0.0357858440    0.0203161470    0.0004508026    
0.0360085050    0.0201371950    0.0004501688    
0.0362311660    0.0197988520    0.0004410649    
0.0364538270    0.0197143600    0.0004365903    
0.0366764880    0.0196761060    0.0004358500    
0.0368991490    0.0204435360    0.0004420289    
0.0371218100    0.0201176650    0.0004372373    
0.0373444710    0.0200726610    0.0004415041    
0.0375671320    0.0199851900    0.0004398995    
0.0377897930    0.0197172700    0.0004256297    
0.0380124540    0.0203283120    0.0004348862    
0.0382351150    0.0196305570    0.0004273576    
0.0384577760    0.0200200710    0.0004274126    
0.0386804370    0.0195578270    0.0004256734    
0.0389030980    0.0202755960    0.0004301319    
0.0391257590    0.0200642550    0.0004249795    
0.0393484200    0.0202334210    0.0004253310    
0.0395710810    0.0196424880    0.0004196385    
0.0397937420    0.0202610920    0.0004261953    
0.0400164030    0.0197122630    0.0004220935    
0.0402390640    0.0200882930    0.0004204265    
0.0404617250    0.0202432750    0.0004195554    
0.0406843860    0.0201183750    0.0004142180    
0.0409070470    0.0197473840    0.0004146561    
0.0411297080    0.0196404110    0.0004095309    
0.0413523690    0.0195787110    0.0004099411    
0.0415750300    0.0198690960    0.0004164779    
0.0417976910    0.0198321480    0.0004053290    
0.0420203520    0.0190800440    0.0003990628    
0.0422430130    0.0200825860    0.0004109628    
0.0424656740    0.0195878010    0.0004005861    
0.0426883350    0.0200474810    0.0004072707    
0.0429109960    0.0209305810    0.0004174444    
0.0431336570    0.0197784610    0.0004000754    
0.0433563180    0.0200306110    0.0004060908    
0.0435789790    0.0191429550    0.0003907539    
0.0438016400    0.0194243710    0.0003957570    
0.0440243010    0.0202330770    0.0003998132    
0.0442469620    0.0198766230    0.0003986502    
0.0444696230    0.0197581380    0.0003960350    
0.0446922840    0.0195620530    0.0003928947    
0.0449149450    0.0200795290    0.0003927360    
0.0451376060    0.0198464260    0.0003952719    
0.0453602670    0.0199951980    0.0003925913    
0.0455829280    0.0188800120    0.0003810452    
0.0458055890    0.0202834650    0.0003972571    
0.0460282500    0.0201161760    0.0003908449    
0.0462509110    0.0200992160    0.0003882502    
0.0464735720    0.0191608710    0.0003792931    
0.0466962330    0.0194491230    0.0003838726    
0.0469188940    0.0192862720    0.0003811784    
0.0471415550    0.0200861790    0.0003910008    
0.0473642160    0.0204155810    0.0003886744    
0.0475868770    0.0196271380    0.0003792020    
0.0478095380    0.0195210990    0.0003765214    
0.0480321990    0.0202267400    0.0003841059    
0.0482548600    0.0193277970    0.0003738375    
0.0484775210    0.0200748900    0.0003847770    
0.0487001820    0.0188469960    0.0003673662    
0.0489228430    0.0192344690    0.0003709239    
0.0491455040    0.0201897370    0.0003773947    
0.0493681650    0.0192752210    0.0003719173    
0.0495908260    0.0192702400    0.0003656125    
0.0498134870    0.0197024940    0.0003732095    
0.0500361480    0.0194647670    0.0003699697    
0.0502588090    0.0194998940    0.0003647549    
0.0504814700    0.0199500450    0.0003737642    
0.0507041310    0.0197109350    0.0003671004    
0.0509267920    0.0199570830    0.0003709136    
0.0511494530    0.0197394370    0.0003664258    
0.0513721140    0.0202686250    0.0003745750    
0.0515947750    0.0189730970    0.0003576013    
0.0518174360    0.0198039980    0.0003631469    
0.0520400970    0.0196944940    0.0003596306    
0.0522627580    0.0196432750    0.0003622150    
0.0524854190    0.0196788970    0.0003654910    
0.0527080800    0.0201088910    0.0003723230    
0.0529307410    0.0201938410    0.0003748610    
0.0531534020    0.0192250180    0.0003644267    
0.0533760630    0.0199086270    0.0003720102    
0.0535987240    0.0198540070    0.0003697650    
0.0538213850    0.0192878520    0.0003686774    
0.0540440460    0.0194617260    0.0003685827    
0.0542667070    0.0196742800    0.0003731440    
0.0544893680    0.0202265970    0.0003785470    
0.0547120290    0.0193284920    0.0003675123    
0.0549346900    0.0196776110    0.0003710116    
0.0551573510    0.0205016690    0.0003831586    
0.0553800120    0.0192534930    0.0003681551    
0.0556026730    0.0189673070    0.0003729850    
0.0558253340    0.0193757780    0.0003801365    
0.0560479950    0.0192042640    0.0003784505    
0.0562706560    0.0199727450    0.0003896796    
0.0564933170    0.0199962360    0.0003932946    
0.0567159780    0.0195498190    0.0003842171    
0.0569386390    0.0198719110    0.0003934453    
0.0571613000    0.0203976410    0.0003900329    
0.0573839610    0.0205077400    0.0003878370    
0.0576066220    0.0193012550    0.0003772973    
0.0578292830    0.0195693710    0.0003786517    
0.0580519440    0.0188870880    0.0003734348    
0.0582746050    0.0192185470    0.0003750362    
0.0584972660    0.0196091350    0.0003773780    
0.0587199270    0.0195152090    0.0003732278    
0.0589425880    0.0197814160    0.0003735669    
0.0591652490    0.0193582140    0.0003717239    
0.0593879100    0.0190014260    0.0003655472    
0.0596105710    0.0189894290    0.0003650463    
0.0598332320    0.0194796220    0.0003728883    
0.0600558930    0.0201058820    0.0003764196    
0.0602785540    0.0195359680    0.0003706541    
0.0605012150    0.0200069520    0.0003743052    
0.0607238760    0.0195507890    0.0003673170    
0.0609465370    0.0193410800    0.0003682179    
0.0611691980    0.0196626350    0.0003718546    
0.0613918590    0.0194351610    0.0003656612    
0.0616145200    0.0191412900    0.0003655422    
0.0618371810    0.0192530960    0.0003630076    
0.0620598420    0.0192105140    0.0003629798    
0.0622825030    0.0196965230    0.0003731634    
0.0625051640    0.0196144970    0.0003671556    
0.0627278250    0.0191984270    0.0003624927    
0.0629504860    0.0191568830    0.0003591565    
0.0631731470    0.0200617130    0.0003720879    
0.0633958080    0.0198814280    0.0003725440    
0.0636184690    0.0195419950    0.0003744942    
0.0638411300    0.0194382940    0.0003720972    
0.0640637910    0.0191926040    0.0003723387    
0.0642864520    0.0199295390    0.0003785986    
0.0645091130    0.0194240600    0.0003770418    
0.0647317740    0.0194595780    0.0003778025    
0.0649544350    0.0192191780    0.0003750485    
0.0651770960    0.0196760720    0.0003774102    
0.0653997570    0.0194899160    0.0003748061    
0.0656224180    0.0194299850    0.0003750431    
0.0658450790    0.0200287950    0.0003753054    
0.0660677400    0.0200152340    0.0003767751    
0.0662904010    0.0199076760    0.0003802472    
0.0665130620    0.0191737340    0.0003715533    
0.0667357230    0.0201450230    0.0003876194    
0.0669583840    0.0196918800    0.0003819528    
0.0671810450    0.0195116670    0.0003781018    
0.0674037060    0.0192539450    0.0003819596    
0.0676263670    0.0195181200    0.0003817554    
0.0678490280    0.0199660590    0.0003837498    
0.0680716890    0.0192919350    0.0003780553    
0.0682943500    0.0197920460    0.0003787301    
0.0685170110    0.0200155570    0.0003769816    
0.0687396720    0.0198740290    0.0003746484    
0.0689623330    0.0194114110    0.0003690889    
0.0691849940    0.0193326700    0.0003708916    
0.0694076550    0.0196674310    0.0003738893    
0.0696303160    0.0194761710    0.0003691212    
0.0698529770    0.0190184310    0.0003639933    
0.0700756380    0.0193343620    0.0003622929    
0.0702982990    0.0200699510    0.0003731403    
0.0705209600    0.0191179510    0.0003615537    
0.0707436210    0.0189224350    0.0003580483    
0.0709662820    0.0199174030    0.0003717202    
0.0711889430    0.0198372270    0.0003664148    
0.0714116040    0.0194426020    0.0003634925    
0.0716342650    0.0194939980    0.0003624948    
0.0718569260    0.0196515510    0.0003624908    
0.0720795870    0.0198715250    0.0003659885    
0.0723022480    0.0199456570    0.0003672293    
0.0725249090    0.0198206000    0.0003616922    
0.0727475700    0.0194758590    0.0003615953    
0.0729702310    0.0195430260    0.0003593294    
0.0731928920    0.0187605270    0.0003534692    
0.0734155530    0.0197669460    0.0003621024    
0.0736382140    0.0196843050    0.0003590257    
0.0738608750    0.0197537310    0.0003619819    
0.0740835360    0.0195567670    0.0003592785    
0.0743061970    0.0197797730    0.0003562333    
0.0745288580    0.0188462170    0.0003513005    
0.0747515190    0.0189338810    0.0003528120    
0.0749741800    0.0185204480    0.0003457089    
0.0751968410    0.0197235450    0.0003595621    
0.0754195020    0.0198688500    0.0003587698    
0.0756421630    0.0196727970    0.0003540771    
0.0758648240    0.0197034610    0.0003552048    
0.0760874850    0.0200044080    0.0003577353    
0.0763101460    0.0198127980    0.0003556763    
0.0765328070    0.0196925090    0.0003582233    
0.0767554680    0.0197861450    0.0003566374    
0.0769781290    0.0190383210    0.0003478225    
0.0772007900    0.0190593220    0.0003452232    
0.0774234510    0.0196941650    0.0003529216    
0.0776461120    0.0195368870    0.0003511762    
0.0778687730    0.0193829350    0.0003486342    
0.0780914340    0.0192156710    0.0003496071    
0.0783140950    0.0192945710    0.0003447658    
0.0785367560    0.0190567070    0.0003481584    
0.0787594170    0.0190666000    0.0003451286    
0.0789820780    0.0200218180    0.0003518561    
0.0792047390    0.0197484000    0.0003505879    
0.0794274000    0.0196838640    0.0003514976    
0.0796500610    0.0193015030    0.0003446697    
0.0798727220    0.0191430170    0.0003429349    
0.0800953830    0.0197705530    0.0003477090    
0.0803180440    0.0195819090    0.0003484568    
0.0805407050    0.0190813150    0.0003436541    
0.0807633660    0.0189038200    0.0003417345    
0.0809860270    0.0200706180    0.0003508228    
0.0812086880    0.0195986690    0.0003436777    
0.0814313490    0.0200697680    0.0003493698    
0.0816540100    0.0193972960    0.0003426849    
0.0818766710    0.0200394180    0.0003491061    
0.0820993320    0.0194998530    0.0003437465    
0.0823219930    0.0195510630    0.0003456172    
0.0825446540    0.0196774430    0.0003442133    
0.0827673150    0.0192416570    0.0003380936    
0.0829899760    0.0197592380    0.0003420007    
0.0832126370    0.0189989370    0.0003368585    
0.0834352980    0.0194551540    0.0003401167    
0.0836579590    0.0198481190    0.0003427698    
0.0838806200    0.0197759640    0.0003432169    
0.0841032810    0.0194841350    0.0003385602    
0.0843259420    0.0194052410    0.0003368336    
0.0845486030    0.0196332920    0.0003388073    
0.0847712640    0.0197701410    0.0003379141    
0.0849939250    0.0193290260    0.0003347049    
0.0852165860    0.0192111800    0.0003341201    
0.0854392470    0.0190485950    0.0003295526    
0.0856619080    0.0190987820    0.0003324168    
0.0858845690    0.0198188400    0.0003355753    
0.0861072300    0.0197938600    0.0003376789    
0.0863298910    0.0193380810    0.0003355162    
0.0865525520    0.0196234360    0.0003350642    
0.0867752130    0.0195444540    0.0003316910    
0.0869978740    0.0199610430    0.0003360617    
0.0872205350    0.0199836490    0.0003358241    
0.0874431960    0.0197805130    0.0003341131    
0.0876658570    0.0191024100    0.0003295969    
0.0878885180    0.0190196030    0.0003294457    
0.0881111790    0.0197392180    0.0003351895    
0.0883338400    0.0195080680    0.0003283423    
0.0885565010    0.0188769040    0.0003273670    
0.0887791620    0.0195464700    0.0003288025    
0.0890018230    0.0194312780    0.0003310120    
0.0892244840    0.0200518840    0.0003368281    
0.0894471450    0.0198155200    0.0003334227    
0.0896698060    0.0189703080    0.0003250037    
0.0898924670    0.0196074050    0.0003319477    
0.0901151280    0.0203849080    0.0003348093    
0.0903377890    0.0191731190    0.0003274229    
0.0905604500    0.0189809210    0.0003242826    
0.0907831110    0.0193606920    0.0003266959    
0.0910057720    0.0193663240    0.0003282428    
0.0912284330    0.0187022170    0.0003179472    
0.0914510940    0.0191603350    0.0003254065    
0.0916737550    0.0197472440    0.0003295329    
0.0918964160    0.0193462540    0.0003275265    
0.0921190770    0.0196296220    0.0003269334    
0.0923417380    0.0191661680    0.0003231834    
0.0925643990    0.0197828820    0.0003275384    
0.0927870600    0.0196283540    0.0003275945    
0.0930097210    0.0190965670    0.0003203743    
0.0932323820    0.0193838060    0.0003251474    
