# Diamond Light Source Ltd.
# Data extracted from: /dls/b21/data/2018/cm19678-3/processed/b21-386631_00175.dat
q(1/A)          Column          Error           
0.0035000000    2.0792548000    0.0245281110    
0.0037226610    1.8847527000    0.0228610270    
0.0039453220    1.6307057000    0.0193447440    
0.0041679830    1.2933926000    0.0141483290    
0.0043906440    0.9557721300    0.0116332880    
0.0046133050    0.7970349000    0.0101983010    
0.0048359660    0.5974328300    0.0083518248    
0.0050586270    0.4710391800    0.0072891484    
0.0052812880    0.4361047000    0.0066312853    
0.0055039490    0.3884519500    0.0059508848    
0.0057266100    0.3205496300    0.0052296747    
0.0059492710    0.2654325300    0.0047588732    
0.0061719320    0.2253988800    0.0042258164    
0.0063945930    0.1979460200    0.0040081214    
0.0066172539    0.1862687900    0.0036509258    
0.0068399149    0.1731689900    0.0034647660    
0.0070625759    0.1506885300    0.0031989066    
0.0072852369    0.1254569200    0.0028751542    
0.0075078979    0.1116998700    0.0026996086    
0.0077305589    0.1051618200    0.0025695122    
0.0079532199    0.0971998900    0.0024360951    
0.0081758809    0.0880079550    0.0023396113    
0.0083985419    0.0794814940    0.0020737439    
0.0086212029    0.0765597900    0.0020352723    
0.0088438639    0.0676150200    0.0018973232    
0.0090665249    0.0667488840    0.0018207251    
0.0092891859    0.0610855430    0.0018179899    
0.0095118469    0.0585942410    0.0017122867    
0.0097345079    0.0583376740    0.0016593572    
0.0099571689    0.0531496730    0.0015511955    
0.0101798300    0.0508407950    0.0015171288    
0.0104024910    0.0482489640    0.0014729504    
0.0106251520    0.0482602910    0.0014781256    
0.0108478130    0.0430215620    0.0013591028    
0.0110704740    0.0426155640    0.0012878379    
0.0112931350    0.0439623760    0.0013118715    
0.0115157960    0.0419035120    0.0012733160    
0.0117384570    0.0374583540    0.0011935224    
0.0119611180    0.0381708550    0.0012082773    
0.0121837790    0.0372682250    0.0011738388    
0.0124064400    0.0351087400    0.0010918299    
0.0126291010    0.0345333830    0.0010692936    
0.0128517620    0.0342069300    0.0010668848    
0.0130744230    0.0340620350    0.0010567270    
0.0132970840    0.0335998750    0.0010444015    
0.0135197450    0.0323290310    0.0010097893    
0.0137424060    0.0304844270    0.0009669073    
0.0139650670    0.0299917130    0.0009376990    
0.0141877280    0.0314495480    0.0009623405    
0.0144103890    0.0301752750    0.0009263893    
0.0146330500    0.0285296990    0.0008950563    
0.0148557110    0.0284023460    0.0008893119    
0.0150783720    0.0278800510    0.0008738154    
0.0153010330    0.0272325180    0.0008514320    
0.0155236940    0.0284878860    0.0008656573    
0.0157463550    0.0276109060    0.0008374635    
0.0159690160    0.0256371390    0.0008039131    
0.0161916770    0.0256232670    0.0007991677    
0.0164143380    0.0269239430    0.0008254064    
0.0166369990    0.0245762390    0.0007642847    
0.0168596600    0.0244720000    0.0007559426    
0.0170823210    0.0246926350    0.0007527683    
0.0173049820    0.0243405540    0.0007486743    
0.0175276430    0.0235397080    0.0007440190    
0.0177503040    0.0232927960    0.0007212394    
0.0179729650    0.0235555040    0.0007181022    
0.0181956260    0.0247249180    0.0007216071    
0.0184182870    0.0233866990    0.0006984995    
0.0186409480    0.0234512800    0.0007038905    
0.0188636090    0.0228234300    0.0006900368    
0.0190862700    0.0232720440    0.0006956960    
0.0193089310    0.0219141450    0.0006740421    
0.0195315920    0.0231961260    0.0006698937    
0.0197542530    0.0223324350    0.0006582614    
0.0199769140    0.0227010930    0.0006636725    
0.0201995750    0.0226536910    0.0006525976    
0.0204222360    0.0218585990    0.0006465457    
0.0206448970    0.0219260550    0.0006429403    
0.0208675580    0.0238173600    0.0006562975    
0.0210902190    0.0211636470    0.0006246253    
0.0213128800    0.0218130120    0.0006255310    
0.0215355410    0.0216116390    0.0006152196    
0.0217582020    0.0218918630    0.0006191954    
0.0219808630    0.0230222050    0.0006341459    
0.0222035240    0.0219379210    0.0006134232    
0.0224261850    0.0217344890    0.0006051382    
0.0226488460    0.0214258900    0.0005963150    
0.0228715070    0.0221948080    0.0006054130    
0.0230941680    0.0213691170    0.0005940451    
0.0233168290    0.0208118500    0.0005877084    
0.0235394900    0.0219457560    0.0005968459    
0.0237621510    0.0210874520    0.0005693077    
0.0239848120    0.0224457380    0.0005880363    
0.0242074730    0.0213904910    0.0005694522    
0.0244301340    0.0220623090    0.0005789855    
0.0246527950    0.0213429500    0.0005747412    
0.0248754560    0.0217993630    0.0005677996    
0.0250981170    0.0214213220    0.0005641098    
0.0253207780    0.0207484740    0.0005386036    
0.0255434390    0.0212508560    0.0005509028    
0.0257661000    0.0207129810    0.0005456455    
0.0259887610    0.0204861360    0.0005368826    
0.0262114220    0.0203068410    0.0005373760    
0.0264340830    0.0207127110    0.0005353355    
0.0266567440    0.0202662130    0.0005262620    
0.0268794050    0.0212803510    0.0005370676    
0.0271020660    0.0200865910    0.0005196739    
0.0273247270    0.0210415870    0.0005286898    
0.0275473880    0.0196348310    0.0005096948    
0.0277700490    0.0200179170    0.0005116009    
0.0279927100    0.0208906750    0.0005180745    
0.0282153710    0.0198618520    0.0005076123    
0.0284380320    0.0198245920    0.0005041961    
0.0286606930    0.0199908660    0.0005019726    
0.0288833540    0.0189028560    0.0004890487    
0.0291060150    0.0202687610    0.0005059291    
0.0293286760    0.0210462410    0.0005083574    
0.0295513370    0.0197134240    0.0004866400    
0.0297739980    0.0199902670    0.0004954404    
0.0299966590    0.0206181940    0.0004945677    
0.0302193200    0.0196726550    0.0004901344    
0.0304419810    0.0208482040    0.0005054946    
0.0306646420    0.0204750220    0.0004868111    
0.0308873030    0.0207001350    0.0004873656    
0.0311099640    0.0203810060    0.0004848499    
0.0313326250    0.0206200310    0.0004822822    
0.0315552860    0.0202435810    0.0004840524    
0.0317779470    0.0206382900    0.0004891744    
0.0320006080    0.0203755440    0.0004750073    
0.0322232690    0.0200998280    0.0004737575    
0.0324459300    0.0203838580    0.0004735313    
0.0326685910    0.0197904250    0.0004658183    
0.0328912520    0.0202859360    0.0004731756    
0.0331139130    0.0209980370    0.0004751465    
0.0333365740    0.0193057690    0.0004570773    
0.0335592350    0.0206027700    0.0004676413    
0.0337818960    0.0204639990    0.0004656926    
0.0340045570    0.0201138190    0.0004609577    
0.0342272170    0.0198401660    0.0004560054    
0.0344498780    0.0193426720    0.0004520352    
0.0346725390    0.0198641960    0.0004496050    
0.0348952000    0.0199659720    0.0004487018    
0.0351178610    0.0199354550    0.0004504109    
0.0353405220    0.0205306920    0.0004550035    
0.0355631830    0.0199860260    0.0004472367    
0.0357858440    0.0196857980    0.0004438649    
0.0360085050    0.0193820560    0.0004417581    
0.0362311660    0.0201626600    0.0004452101    
0.0364538270    0.0201401830    0.0004413906    
0.0366764880    0.0196762900    0.0004359611    
0.0368991490    0.0202625180    0.0004401776    
0.0371218100    0.0202608380    0.0004389001    
0.0373444710    0.0204810540    0.0004460844    
0.0375671320    0.0200823770    0.0004410781    
0.0377897930    0.0202235300    0.0004311671    
0.0380124540    0.0193331930    0.0004242143    
0.0382351150    0.0203291880    0.0004350045    
0.0384577760    0.0201031230    0.0004284053    
0.0386804370    0.0204018540    0.0004348702    
0.0389030980    0.0197105820    0.0004242024    
0.0391257590    0.0209208540    0.0004340650    
0.0393484200    0.0196084180    0.0004188151    
0.0395710810    0.0206210280    0.0004300717    
0.0397937420    0.0201187460    0.0004248017    
0.0400164030    0.0201200030    0.0004265432    
0.0402390640    0.0199574880    0.0004191603    
0.0404617250    0.0200446050    0.0004175959    
0.0406843860    0.0205550710    0.0004187941    
0.0409070470    0.0212207650    0.0004299544    
0.0411297080    0.0196502370    0.0004097358    
0.0413523690    0.0205503270    0.0004200949    
0.0415750300    0.0193375160    0.0004109717    
0.0417976910    0.0200658520    0.0004078122    
0.0420203520    0.0201000190    0.0004096929    
0.0422430130    0.0198486270    0.0004086641    
0.0424656740    0.0202615090    0.0004075187    
0.0426883350    0.0201320130    0.0004082305    
0.0429109960    0.0200580960    0.0004087535    
0.0431336570    0.0199988710    0.0004023991    
0.0433563180    0.0198099960    0.0004039493    
0.0435789790    0.0195754840    0.0003952426    
0.0438016400    0.0197164440    0.0003988210    
0.0440243010    0.0193816190    0.0003914081    
0.0442469620    0.0200145580    0.0004001311    
0.0444696230    0.0191008820    0.0003894896    
0.0446922840    0.0203771360    0.0004010967    
0.0449149450    0.0200280920    0.0003923308    
0.0451376060    0.0195964350    0.0003928727    
0.0453602670    0.0205681850    0.0003982763    
0.0455829280    0.0196358030    0.0003886945    
0.0458055890    0.0198421250    0.0003930097    
0.0460282500    0.0194652430    0.0003845655    
0.0462509110    0.0198691610    0.0003861184    
0.0464735720    0.0194333750    0.0003820762    
0.0466962330    0.0200198020    0.0003895611    
0.0469188940    0.0196954070    0.0003852967    
0.0471415550    0.0192433380    0.0003828052    
0.0473642160    0.0190117590    0.0003751671    
0.0475868770    0.0194023990    0.0003771190    
0.0478095380    0.0197415780    0.0003787364    
0.0480321990    0.0196238420    0.0003784327    
0.0482548600    0.0193229980    0.0003738846    
0.0484775210    0.0197307540    0.0003815601    
0.0487001820    0.0193435970    0.0003722677    
0.0489228430    0.0195732950    0.0003742702    
0.0491455040    0.0203057070    0.0003785717    
0.0493681650    0.0197012920    0.0003760994    
0.0495908260    0.0198836780    0.0003714791    
0.0498134870    0.0194577250    0.0003709768    
0.0500361480    0.0202835970    0.0003777658    
0.0502588090    0.0205950360    0.0003749513    
0.0504814700    0.0196237390    0.0003707876    
0.0507041310    0.0199260080    0.0003691901    
0.0509267920    0.0199877590    0.0003712914    
0.0511494530    0.0200011130    0.0003689388    
0.0513721140    0.0200363620    0.0003725158    
0.0515947750    0.0190635100    0.0003585419    
0.0518174360    0.0197139700    0.0003624112    
0.0520400970    0.0198554640    0.0003611876    
0.0522627580    0.0202612060    0.0003679601    
0.0524854190    0.0193491640    0.0003625067    
0.0527080800    0.0195189010    0.0003669122    
0.0529307410    0.0198906500    0.0003721293    
0.0531534020    0.0196838820    0.0003688423    
0.0533760630    0.0195986660    0.0003691952    
0.0535987240    0.0194574280    0.0003661450    
0.0538213850    0.0194385140    0.0003702070    
0.0540440460    0.0199324080    0.0003731065    
0.0542667070    0.0192380440    0.0003690762    
0.0544893680    0.0192656380    0.0003695376    
0.0547120290    0.0196457820    0.0003706092    
0.0549346900    0.0191275570    0.0003658808    
0.0551573510    0.0196378590    0.0003750936    
0.0553800120    0.0199251850    0.0003746156    
0.0556026730    0.0196445800    0.0003796807    
0.0558253340    0.0199898690    0.0003862101    
0.0560479950    0.0199675040    0.0003859942    
0.0562706560    0.0197545370    0.0003876421    
0.0564933170    0.0197121450    0.0003905885    
0.0567159780    0.0188947700    0.0003778198    
0.0569386390    0.0193830530    0.0003886729    
0.0571613000    0.0191542750    0.0003780531    
0.0573839610    0.0205546920    0.0003883778    
0.0576066220    0.0204103870    0.0003880835    
0.0578292830    0.0195498400    0.0003785574    
0.0580519440    0.0199972350    0.0003843491    
0.0582746050    0.0197260730    0.0003800510    
0.0584972660    0.0196044130    0.0003774269    
0.0587199270    0.0190821970    0.0003691562    
0.0589425880    0.0200030600    0.0003757479    
0.0591652490    0.0202034610    0.0003798475    
0.0593879100    0.0197567350    0.0003728350    
0.0596105710    0.0205014310    0.0003793960    
0.0598332320    0.0195607830    0.0003737578    
0.0600558930    0.0195448270    0.0003712233    
0.0602785540    0.0195598130    0.0003709730    
0.0605012150    0.0200730120    0.0003750164    
0.0607238760    0.0194017660    0.0003660059    
0.0609465370    0.0190772230    0.0003657891    
0.0611691980    0.0200453770    0.0003755502    
0.0613918590    0.0193003390    0.0003644819    
0.0616145200    0.0198283400    0.0003721377    
0.0618371810    0.0205843450    0.0003754417    
0.0620598420    0.0196043900    0.0003667737    
0.0622825030    0.0196285700    0.0003726123    
0.0625051640    0.0193423910    0.0003646912    
0.0627278250    0.0191464020    0.0003620917    
0.0629504860    0.0192944680    0.0003605341    
0.0631731470    0.0194986660    0.0003669210    
0.0633958080    0.0191230990    0.0003654614    
0.0636184690    0.0196092140    0.0003752315    
0.0638411300    0.0191415830    0.0003693387    
0.0640637910    0.0197514600    0.0003778152    
0.0642864520    0.0187306190    0.0003671259    
0.0645091130    0.0199463490    0.0003821729    
0.0647317740    0.0200050320    0.0003831566    
0.0649544350    0.0206420290    0.0003887808    
0.0651770960    0.0194469040    0.0003752998    
0.0653997570    0.0191102500    0.0003712303    
0.0656224180    0.0201350160    0.0003818824    
0.0658450790    0.0198066240    0.0003733114    
0.0660677400    0.0197910750    0.0003747530    
0.0662904010    0.0192273130    0.0003737865    
0.0665130620    0.0196443610    0.0003761797    
0.0667357230    0.0193044230    0.0003795409    
0.0669583840    0.0199389240    0.0003844374    
0.0671810450    0.0194114700    0.0003772241    
0.0674037060    0.0204462300    0.0003937067    
0.0676263670    0.0194382390    0.0003810687    
0.0678490280    0.0192012100    0.0003764220    
0.0680716890    0.0195165430    0.0003803448    
0.0682943500    0.0190623660    0.0003717761    
0.0685170110    0.0189528990    0.0003669296    
0.0687396720    0.0198557080    0.0003745693    
0.0689623330    0.0194421860    0.0003694738    
0.0691849940    0.0195487930    0.0003730523    
0.0694076550    0.0194212600    0.0003716350    
0.0696303160    0.0191569500    0.0003661752    
0.0698529770    0.0195576610    0.0003692097    
0.0700756380    0.0198262780    0.0003669646    
0.0702982990    0.0194067260    0.0003670149    
0.0705209600    0.0190796290    0.0003612815    
0.0707436210    0.0196436280    0.0003648989    
0.0709662820    0.0190319900    0.0003634548    
0.0711889430    0.0190345770    0.0003590152    
0.0714116040    0.0195815130    0.0003648799    
0.0716342650    0.0192946850    0.0003607271    
0.0718569260    0.0191128170    0.0003575770    
0.0720795870    0.0196454260    0.0003639915    
0.0723022480    0.0186568290    0.0003552554    
0.0725249090    0.0195729770    0.0003595156    
0.0727475700    0.0190154230    0.0003573848    
0.0729702310    0.0194073810    0.0003581697    
0.0731928920    0.0199026380    0.0003641607    
0.0734155530    0.0199493850    0.0003638606    
0.0736382140    0.0188948560    0.0003518406    
0.0738608750    0.0191198700    0.0003562159    
0.0740835360    0.0192627850    0.0003566571    
0.0743061970    0.0191541910    0.0003506424    
0.0745288580    0.0192290900    0.0003549398    
0.0747515190    0.0193906270    0.0003571315    
0.0749741800    0.0200340420    0.0003596480    
0.0751968410    0.0196088080    0.0003586044    
0.0754195020    0.0188936010    0.0003499415    
0.0756421630    0.0194403530    0.0003520671    
0.0758648240    0.0190790590    0.0003496187    
0.0760874850    0.0199184090    0.0003570548    
0.0763101460    0.0196310630    0.0003541298    
0.0765328070    0.0193633400    0.0003553056    
0.0767554680    0.0193394100    0.0003526765    
0.0769781290    0.0192767250    0.0003500811    
0.0772007900    0.0197382700    0.0003514062    
0.0774234510    0.0192737440    0.0003492216    
0.0776461120    0.0192119360    0.0003483305    
0.0778687730    0.0194992890    0.0003497665    
0.0780914340    0.0193716540    0.0003511110    
0.0783140950    0.0193658590    0.0003454886    
0.0785367560    0.0197917250    0.0003548979    
0.0787594170    0.0206574830    0.0003593285    
0.0789820780    0.0200256490    0.0003519778    
0.0792047390    0.0193722060    0.0003473194    
0.0794274000    0.0193671580    0.0003487456    
0.0796500610    0.0199946860    0.0003508920    
0.0798727220    0.0189559050    0.0003413401    
0.0800953830    0.0192848630    0.0003434974    
0.0803180440    0.0195234640    0.0003480234    
0.0805407050    0.0195552840    0.0003479830    
0.0807633660    0.0194757320    0.0003469521    
0.0809860270    0.0194794060    0.0003457036    
0.0812086880    0.0193672880    0.0003417284    
0.0814313490    0.0200372160    0.0003491737    
0.0816540100    0.0196735130    0.0003452025    
0.0818766710    0.0198303910    0.0003473674    
0.0820993320    0.0190003460    0.0003394001    
0.0823219930    0.0193407850    0.0003438396    
0.0825446540    0.0192173960    0.0003402508    
0.0827673150    0.0192512840    0.0003382628    
0.0829899760    0.0192538710    0.0003376833    
0.0832126370    0.0200900290    0.0003464828    
0.0834352980    0.0200478830    0.0003453453    
0.0836579590    0.0194020190    0.0003389807    
0.0838806200    0.0191362620    0.0003377046    
0.0841032810    0.0191642760    0.0003358538    
0.0843259420    0.0190347230    0.0003336858    
0.0845486030    0.0196372650    0.0003389263    
0.0847712640    0.0193119690    0.0003340591    
0.0849939250    0.0196054370    0.0003371739    
0.0852165860    0.0198835770    0.0003400020    
0.0854392470    0.0195144710    0.0003336416    
0.0856619080    0.0198087640    0.0003386237    
0.0858845690    0.0194194470    0.0003322599    
0.0861072300    0.0195501640    0.0003356777    
0.0863298910    0.0196389630    0.0003382009    
0.0865525520    0.0194787060    0.0003339098    
0.0867752130    0.0201061660    0.0003365078    
0.0869978740    0.0193200470    0.0003307045    
0.0872205350    0.0196492200    0.0003330855    
0.0874431960    0.0191918980    0.0003291867    
0.0876658570    0.0188047190    0.0003271004    
0.0878885180    0.0191490140    0.0003306472    
0.0881111790    0.0197035360    0.0003349702    
0.0883338400    0.0193408960    0.0003270143    
0.0885565010    0.0194941190    0.0003327591    
0.0887791620    0.0194345070    0.0003279414    
0.0890018230    0.0198302710    0.0003344768    
0.0892244840    0.0199090740    0.0003357105    
0.0894471450    0.0194269050    0.0003302196    
0.0896698060    0.0191747790    0.0003268323    
0.0898924670    0.0197746470    0.0003334437    
0.0901151280    0.0191792130    0.0003248382    
0.0903377890    0.0193841050    0.0003293018    
0.0905604500    0.0194338600    0.0003282110    
0.0907831110    0.0188905310    0.0003227854    
0.0910057720    0.0193593140    0.0003282654    
0.0912284330    0.0194903210    0.0003246584    
0.0914510940    0.0190482780    0.0003245347    
0.0916737550    0.0197791310    0.0003298813    
0.0918964160    0.0191506680    0.0003259482    
0.0921190770    0.0192853340    0.0003241347    
0.0923417380    0.0193993010    0.0003252244    
0.0925643990    0.0192393640    0.0003230884    
0.0927870600    0.0197202280    0.0003284425    
0.0930097210    0.0195954700    0.0003246134    
0.0932323820    0.0199009870    0.0003295389    
