# Diamond Light Source Ltd.
# Data extracted from: /dls/b21/data/2018/cm19678-3/processed/b21-386631_00179.dat
q(1/A)          Column          Error           
0.0035000000    2.1205351000    0.0247765960    
0.0037226610    1.9001225000    0.0229597960    
0.0039453220    1.6177461000    0.0192725440    
0.0041679830    1.2858332000    0.0141104530    
0.0043906440    0.9861422300    0.0118196260    
0.0046133050    0.7919505200    0.0101682650    
0.0048359660    0.6012362700    0.0083804644    
0.0050586270    0.4630366800    0.0072287739    
0.0052812880    0.4292611200    0.0065806952    
0.0055039490    0.3863661400    0.0059363717    
0.0057266100    0.3274537800    0.0052870171    
0.0059492710    0.2740163600    0.0048364197    
0.0061719320    0.2230544600    0.0042048341    
0.0063945930    0.2024298600    0.0040542772    
0.0066172539    0.1813503700    0.0036033035    
0.0068399149    0.1654182400    0.0033871873    
0.0070625759    0.1470271300    0.0031605951    
0.0072852369    0.1307936500    0.0029364042    
0.0075078979    0.1111030100    0.0026930600    
0.0077305589    0.0983676680    0.0024857446    
0.0079532199    0.0958435710    0.0024196442    
0.0081758809    0.0952081780    0.0024340447    
0.0083985419    0.0818489950    0.0021049290    
0.0086212029    0.0752989220    0.0020189483    
0.0088438639    0.0716971430    0.0019542464    
0.0090665249    0.0655400660    0.0018046146    
0.0092891859    0.0602499920    0.0018059654    
0.0095118469    0.0617274660    0.0017579111    
0.0097345079    0.0566196470    0.0016351499    
0.0099571689    0.0554410250    0.0015846762    
0.0101798300    0.0520439130    0.0015353590    
0.0104024910    0.0477782380    0.0014661144    
0.0106251520    0.0483297430    0.0014795590    
0.0108478130    0.0471240290    0.0014227844    
0.0110704740    0.0438829060    0.0013071740    
0.0112931350    0.0422610400    0.0012865583    
0.0115157960    0.0397566470    0.0012405793    
0.0117384570    0.0387707300    0.0012145541    
0.0119611180    0.0380368950    0.0012064571    
0.0121837790    0.0376567890    0.0011802375    
0.0124064400    0.0370626770    0.0011220815    
0.0126291010    0.0354450780    0.0010835876    
0.0128517620    0.0341907600    0.0010668996    
0.0130744230    0.0326686890    0.0010351470    
0.0132970840    0.0319602190    0.0010188546    
0.0135197450    0.0321874320    0.0010078276    
0.0137424060    0.0311747290    0.0009780382    
0.0139650670    0.0295374120    0.0009308028    
0.0141877280    0.0319661430    0.0009704549    
0.0144103890    0.0300196520    0.0009242286    
0.0146330500    0.0286563570    0.0008972653    
0.0148557110    0.0280265310    0.0008836298    
0.0150783720    0.0264691650    0.0008516314    
0.0153010330    0.0268200120    0.0008451703    
0.0155236940    0.0266599020    0.0008376331    
0.0157463550    0.0273197620    0.0008332449    
0.0159690160    0.0270623600    0.0008261631    
0.0161916770    0.0267832340    0.0008172612    
0.0164143380    0.0248614160    0.0007933597    
0.0166369990    0.0255397410    0.0007793174    
0.0168596600    0.0255589400    0.0007727414    
0.0170823210    0.0254856370    0.0007649517    
0.0173049820    0.0261728570    0.0007765367    
0.0175276430    0.0244455540    0.0007583891    
0.0177503040    0.0246897630    0.0007427382    
0.0179729650    0.0241367640    0.0007270901    
0.0181956260    0.0239998110    0.0007111250    
0.0184182870    0.0242124440    0.0007109018    
0.0186409480    0.0234841570    0.0007045599    
0.0188636090    0.0239619870    0.0007072157    
0.0190862700    0.0231796550    0.0006944874    
0.0193089310    0.0232111660    0.0006938761    
0.0195315920    0.0228786870    0.0006654606    
0.0197542530    0.0232754060    0.0006721832    
0.0199769140    0.0232365900    0.0006716226    
0.0201995750    0.0227214580    0.0006537365    
0.0204222360    0.0216016720    0.0006428955    
0.0206448970    0.0217295440    0.0006402128    
0.0208675580    0.0222913250    0.0006350831    
0.0210902190    0.0224100190    0.0006429158    
0.0213128800    0.0220931410    0.0006296924    
0.0215355410    0.0224985700    0.0006278739    
0.0217582020    0.0222357450    0.0006241958    
0.0219808630    0.0207443370    0.0006021077    
0.0222035240    0.0214855560    0.0006072177    
0.0224261850    0.0227567810    0.0006193611    
0.0226488460    0.0216358710    0.0005993799    
0.0228715070    0.0210163150    0.0005892682    
0.0230941680    0.0232633520    0.0006199704    
0.0233168290    0.0215860830    0.0005986902    
0.0235394900    0.0214695350    0.0005904823    
0.0237621510    0.0215747120    0.0005759916    
0.0239848120    0.0208694180    0.0005671540    
0.0242074730    0.0220230620    0.0005779555    
0.0244301340    0.0214196650    0.0005706334    
0.0246527950    0.0215239670    0.0005773178    
0.0248754560    0.0200346750    0.0005444688    
0.0250981170    0.0199903600    0.0005450790    
0.0253207780    0.0221017510    0.0005560299    
0.0255434390    0.0208614120    0.0005459681    
0.0257661000    0.0215286980    0.0005564253    
0.0259887610    0.0211298640    0.0005453890    
0.0262114220    0.0204023710    0.0005387733    
0.0264340830    0.0204185310    0.0005316533    
0.0266567440    0.0212197620    0.0005386351    
0.0268794050    0.0219283770    0.0005453201    
0.0271020660    0.0203925800    0.0005237482    
0.0273247270    0.0206932770    0.0005244269    
0.0275473880    0.0205448190    0.0005215026    
0.0277700490    0.0202634060    0.0005148571    
0.0279927100    0.0212996160    0.0005232515    
0.0282153710    0.0195862420    0.0005042042    
0.0284380320    0.0206556080    0.0005147840    
0.0286606930    0.0204674750    0.0005080483    
0.0288833540    0.0209630510    0.0005151389    
0.0291060150    0.0205568730    0.0005096397    
0.0293286760    0.0203688070    0.0005002341    
0.0295513370    0.0203843400    0.0004949755    
0.0297739980    0.0209708020    0.0005075727    
0.0299966590    0.0205691690    0.0004941030    
0.0302193200    0.0198902010    0.0004929603    
0.0304419810    0.0205643380    0.0005021670    
0.0306646420    0.0202884090    0.0004847088    
0.0308873030    0.0206301340    0.0004866627    
0.0311099640    0.0202065670    0.0004828914    
0.0313326250    0.0209576390    0.0004863360    
0.0315552860    0.0209832640    0.0004929399    
0.0317779470    0.0204630150    0.0004872146    
0.0320006080    0.0201087620    0.0004720055    
0.0322232690    0.0199311350    0.0004718833    
0.0324459300    0.0206031750    0.0004761911    
0.0326685910    0.0202610590    0.0004714425    
0.0328912520    0.0207046620    0.0004781537    
0.0331139130    0.0204491800    0.0004690130    
0.0333365740    0.0209719690    0.0004765126    
0.0335592350    0.0202626290    0.0004638810    
0.0337818960    0.0193927450    0.0004534531    
0.0340045570    0.0200604720    0.0004604612    
0.0342272170    0.0206575230    0.0004654201    
0.0344498780    0.0199970800    0.0004597334    
0.0346725390    0.0202203080    0.0004537307    
0.0348952000    0.0202382770    0.0004518643    
0.0351178610    0.0201185190    0.0004525875    
0.0353405220    0.0203492800    0.0004531021    
0.0355631830    0.0200460950    0.0004480204    
0.0357858440    0.0205567730    0.0004536913    
0.0360085050    0.0199256610    0.0004480223    
0.0362311660    0.0195629480    0.0004386488    
0.0364538270    0.0200631590    0.0004406560    
0.0366764880    0.0196571470    0.0004358580    
0.0368991490    0.0193637870    0.0004304127    
0.0371218100    0.0197097460    0.0004329983    
0.0373444710    0.0203454950    0.0004447169    
0.0375671320    0.0198113490    0.0004382012    
0.0377897930    0.0204635810    0.0004338270    
0.0380124540    0.0194639380    0.0004257529    
0.0382351150    0.0201344800    0.0004330246    
0.0384577760    0.0198848340    0.0004261797    
0.0386804370    0.0198092560    0.0004286152    
0.0389030980    0.0196199730    0.0004233322    
0.0391257590    0.0190481370    0.0004142858    
0.0393484200    0.0202715770    0.0004259449    
0.0395710810    0.0200929060    0.0004246349    
0.0397937420    0.0191237220    0.0004142673    
0.0400164030    0.0197500910    0.0004227097    
0.0402390640    0.0194125810    0.0004135019    
0.0404617250    0.0198109190    0.0004152585    
0.0406843860    0.0204287700    0.0004176100    
0.0409070470    0.0197061430    0.0004144302    
0.0411297080    0.0193694460    0.0004068996    
0.0413523690    0.0204575090    0.0004192500    
0.0415750300    0.0193384570    0.0004110845    
0.0417976910    0.0193793350    0.0004008755    
0.0420203520    0.0204192090    0.0004130364    
0.0422430130    0.0194629070    0.0004047751    
0.0424656740    0.0202060470    0.0004070624    
0.0426883350    0.0201835010    0.0004088544    
0.0429109960    0.0197431130    0.0004056328    
0.0431336570    0.0200817880    0.0004033333    
0.0433563180    0.0197210190    0.0004031419    
0.0435789790    0.0199685250    0.0003992906    
0.0438016400    0.0196294580    0.0003980398    
0.0440243010    0.0199369980    0.0003970757    
0.0442469620    0.0200806010    0.0004008911    
0.0444696230    0.0199606790    0.0003982589    
0.0446922840    0.0199607890    0.0003970773    
0.0449149450    0.0194921820    0.0003871431    
0.0451376060    0.0194643980    0.0003916449    
0.0453602670    0.0197528720    0.0003904004    
0.0455829280    0.0200074440    0.0003924537    
0.0458055890    0.0199377270    0.0003940539    
0.0460282500    0.0200146910    0.0003900529    
0.0462509110    0.0197589910    0.0003851428    
0.0464735720    0.0202472820    0.0003900928    
0.0466962330    0.0192789890    0.0003823811    
0.0469188940    0.0197882190    0.0003863001    
0.0471415550    0.0198853400    0.0003892358    
0.0473642160    0.0197397580    0.0003823783    
0.0475868770    0.0186200790    0.0003695304    
0.0478095380    0.0195333730    0.0003768282    
0.0480321990    0.0194584300    0.0003769287    
0.0482548600    0.0195136200    0.0003758183    
0.0484775210    0.0200211630    0.0003844541    
0.0487001820    0.0194249580    0.0003731431    
0.0489228430    0.0195687720    0.0003743206    
0.0491455040    0.0198709980    0.0003745912    
0.0493681650    0.0197398870    0.0003765618    
0.0495908260    0.0202199840    0.0003747012    
0.0498134870    0.0195948420    0.0003723748    
0.0500361480    0.0195687220    0.0003711420    
0.0502588090    0.0198745620    0.0003684267    
0.0504814700    0.0197807610    0.0003723613    
0.0507041310    0.0194774470    0.0003651023    
0.0509267920    0.0196527370    0.0003682587    
0.0511494530    0.0193438600    0.0003629172    
0.0513721140    0.0193257470    0.0003659418    
0.0515947750    0.0199433830    0.0003668146    
0.0518174360    0.0192305760    0.0003580300    
0.0520400970    0.0198325350    0.0003610693    
0.0522627580    0.0194957950    0.0003610332    
0.0524854190    0.0194200040    0.0003632605    
0.0527080800    0.0191905420    0.0003639039    
0.0529307410    0.0188139790    0.0003620082    
0.0531534020    0.0195900110    0.0003680539    
0.0533760630    0.0197406840    0.0003706231    
0.0535987240    0.0197015460    0.0003685269    
0.0538213850    0.0199631960    0.0003752639    
0.0540440460    0.0199633480    0.0003734894    
0.0542667070    0.0188155390    0.0003650923    
0.0544893680    0.0197291520    0.0003740502    
0.0547120290    0.0200263450    0.0003742752    
0.0549346900    0.0193542010    0.0003681343    
0.0551573510    0.0193322930    0.0003722570    
0.0553800120    0.0197378510    0.0003729437    
0.0556026730    0.0199627750    0.0003828391    
0.0558253340    0.0189621810    0.0003762456    
0.0560479950    0.0190965780    0.0003775768    
0.0562706560    0.0200460130    0.0003905891    
0.0564933170    0.0189631750    0.0003831922    
0.0567159780    0.0191385470    0.0003803445    
0.0569386390    0.0195954940    0.0003908949    
0.0571613000    0.0189025710    0.0003756549    
0.0573839610    0.0192654440    0.0003760946    
0.0576066220    0.0194460840    0.0003788997    
0.0578292830    0.0198969880    0.0003819992    
0.0580519440    0.0198076900    0.0003826189    
0.0582746050    0.0198092060    0.0003809463    
0.0584972660    0.0192943500    0.0003745240    
0.0587199270    0.0199205820    0.0003772729    
0.0589425880    0.0191797830    0.0003680263    
0.0591652490    0.0195776580    0.0003740119    
0.0593879100    0.0194850480    0.0003703552    
0.0596105710    0.0194931330    0.0003700413    
0.0598332320    0.0192847690    0.0003712043    
0.0600558930    0.0188915020    0.0003650574    
0.0602785540    0.0199286150    0.0003745477    
0.0605012150    0.0197395790    0.0003719817    
0.0607238760    0.0199986580    0.0003716863    
0.0609465370    0.0197393710    0.0003721761    
0.0611691980    0.0195908070    0.0003713605    
0.0613918590    0.0188417110    0.0003602154    
0.0616145200    0.0196845340    0.0003708786    
0.0618371810    0.0200122990    0.0003702808    
0.0620598420    0.0200123910    0.0003706634    
0.0622825030    0.0198223950    0.0003745412    
0.0625051640    0.0196547710    0.0003677163    
0.0627278250    0.0191833900    0.0003625320    
0.0629504860    0.0186233600    0.0003542971    
0.0631731470    0.0196742200    0.0003686613    
0.0633958080    0.0195309770    0.0003694308    
0.0636184690    0.0196836840    0.0003760375    
0.0638411300    0.0197429530    0.0003751895    
0.0640637910    0.0197685770    0.0003780734    
0.0642864520    0.0193231450    0.0003729809    
0.0645091130    0.0201541380    0.0003842545    
0.0647317740    0.0192073960    0.0003755343    
0.0649544350    0.0194288980    0.0003772779    
0.0651770960    0.0192682320    0.0003736652    
0.0653997570    0.0202958650    0.0003826685    
0.0656224180    0.0198552370    0.0003793148    
0.0658450790    0.0198798950    0.0003740949    
0.0660677400    0.0192117090    0.0003693194    
0.0662904010    0.0196295280    0.0003777704    
0.0665130620    0.0193154530    0.0003731105    
0.0667357230    0.0200009420    0.0003864240    
0.0669583840    0.0197264260    0.0003824790    
0.0671810450    0.0192818350    0.0003760565    
0.0674037060    0.0194780130    0.0003843679    
0.0676263670    0.0194031230    0.0003808196    
0.0678490280    0.0192846530    0.0003773334    
0.0680716890    0.0196078880    0.0003813292    
0.0682943500    0.0199134220    0.0003800797    
0.0685170110    0.0197299790    0.0003744699    
0.0687396720    0.0199363430    0.0003754231    
0.0689623330    0.0189531510    0.0003648887    
0.0691849940    0.0202209770    0.0003795067    
0.0694076550    0.0205053420    0.0003819619    
0.0696303160    0.0187743850    0.0003625912    
0.0698529770    0.0192536460    0.0003664205    
0.0700756380    0.0197750420    0.0003665818    
0.0702982990    0.0193122750    0.0003662123    
0.0705209600    0.0199310470    0.0003693469    
0.0707436210    0.0190024140    0.0003589837    
0.0709662820    0.0195067900    0.0003680526    
0.0711889430    0.0195386690    0.0003638290    
0.0714116040    0.0192852000    0.0003621993    
0.0716342650    0.0192031320    0.0003599603    
0.0718569260    0.0193566450    0.0003599407    
0.0720795870    0.0199723880    0.0003670998    
0.0723022480    0.0196069210    0.0003642798    
0.0725249090    0.0194043890    0.0003580536    
0.0727475700    0.0196700830    0.0003635757    
0.0729702310    0.0193708010    0.0003579216    
0.0731928920    0.0197392730    0.0003627538    
0.0734155530    0.0190829110    0.0003559600    
0.0736382140    0.0199334320    0.0003614713    
0.0738608750    0.0198731050    0.0003632556    
0.0740835360    0.0196820570    0.0003606079    
0.0743061970    0.0196390200    0.0003551412    
0.0745288580    0.0194681370    0.0003572286    
0.0747515190    0.0199662860    0.0003624846    
0.0749741800    0.0194239510    0.0003542182    
0.0751968410    0.0198613960    0.0003609970    
0.0754195020    0.0193440220    0.0003541768    
0.0756421630    0.0190800920    0.0003488769    
0.0758648240    0.0193962830    0.0003526014    
0.0760874850    0.0200052240    0.0003579216    
0.0763101460    0.0200435500    0.0003579205    
0.0765328070    0.0202536250    0.0003634728    
0.0767554680    0.0194456110    0.0003537320    
0.0769781290    0.0202786810    0.0003591539    
0.0772007900    0.0196229640    0.0003504659    
0.0774234510    0.0192264150    0.0003488799    
0.0776461120    0.0199229310    0.0003548062    
0.0778687730    0.0197287460    0.0003519065    
0.0780914340    0.0198843490    0.0003558159    
0.0783140950    0.0188698890    0.0003411211    
0.0785367560    0.0196679240    0.0003538747    
0.0787594170    0.0195547000    0.0003496932    
0.0789820780    0.0190700980    0.0003435635    
0.0792047390    0.0199613040    0.0003526490    
0.0794274000    0.0199109090    0.0003536959    
0.0796500610    0.0195549430    0.0003470988    
0.0798727220    0.0195803550    0.0003470036    
0.0800953830    0.0197719820    0.0003478956    
0.0803180440    0.0188194390    0.0003417764    
0.0805407050    0.0195650730    0.0003481572    
0.0807633660    0.0195164000    0.0003474011    
0.0809860270    0.0197162740    0.0003478861    
0.0812086880    0.0196725830    0.0003444974    
0.0814313490    0.0193410570    0.0003431402    
0.0816540100    0.0198833460    0.0003471254    
0.0818766710    0.0198524920    0.0003476479    
0.0820993320    0.0192524840    0.0003417302    
0.0823219930    0.0190874850    0.0003416660    
0.0825446540    0.0196549520    0.0003441887    
0.0827673150    0.0186008510    0.0003325825    
0.0829899760    0.0196901390    0.0003415731    
0.0832126370    0.0196696260    0.0003429242    
0.0834352980    0.0190699010    0.0003369009    
0.0836579590    0.0195657920    0.0003404936    
0.0838806200    0.0201535170    0.0003466510    
0.0841032810    0.0198275230    0.0003417015    
0.0843259420    0.0195066040    0.0003378812    
0.0845486030    0.0192783830    0.0003358991    
0.0847712640    0.0197436820    0.0003378569    
0.0849939250    0.0192613520    0.0003342856    
0.0852165860    0.0195677880    0.0003373757    
0.0854392470    0.0195870180    0.0003343449    
0.0856619080    0.0198534290    0.0003390901    
0.0858845690    0.0190537790    0.0003291992    
0.0861072300    0.0190986300    0.0003318616    
0.0863298910    0.0196254840    0.0003381694    
0.0865525520    0.0193739190    0.0003330938    
0.0867752130    0.0187807830    0.0003253090    
0.0869978740    0.0198451010    0.0003352519    
0.0872205350    0.0185857160    0.0003240271    
0.0874431960    0.0196590860    0.0003332527    
0.0876658570    0.0193492380    0.0003318855    
0.0878885180    0.0200325600    0.0003382740    
0.0881111790    0.0188473760    0.0003276937    
0.0883338400    0.0187752590    0.0003222775    
0.0885565010    0.0191969980    0.0003302961    
0.0887791620    0.0195051360    0.0003286190    
0.0890018230    0.0199135750    0.0003352625    
0.0892244840    0.0197094840    0.0003341071    
0.0894471450    0.0196949600    0.0003325732    
0.0896698060    0.0191397870    0.0003266156    
0.0898924670    0.0195651550    0.0003317558    
0.0901151280    0.0194475270    0.0003271844    
0.0903377890    0.0197408250    0.0003324012    
0.0905604500    0.0196099620    0.0003297772    
0.0907831110    0.0193911110    0.0003271160    
0.0910057720    0.0190794160    0.0003259653    
0.0912284330    0.0190293490    0.0003208764    
0.0914510940    0.0193178170    0.0003269045    
0.0916737550    0.0194807740    0.0003274658    
0.0918964160    0.0195543380    0.0003294479    
0.0921190770    0.0192132280    0.0003236091    
0.0923417380    0.0198999650    0.0003294768    
0.0925643990    0.0190752860    0.0003217882    
0.0927870600    0.0201351000    0.0003319624    
0.0930097210    0.0193685520    0.0003228092    
0.0932323820    0.0188517970    0.0003208149    
