# Diamond Light Source Ltd.
# Data extracted from: /dls/b21/data/2018/cm19678-3/processed/b21-386631_00181.dat
q(1/A)          Column          Error           
0.0035000000    2.1038549000    0.0246813030    
0.0037226610    1.8744003000    0.0228060290    
0.0039453220    1.6208093000    0.0192926150    
0.0041679830    1.2688866000    0.0140184930    
0.0043906440    1.0021994000    0.0119165990    
0.0046133050    0.7868778700    0.0101366110    
0.0048359660    0.5866293400    0.0082788244    
0.0050586270    0.4773469200    0.0073403249    
0.0052812880    0.4318653100    0.0066012539    
0.0055039490    0.3792326300    0.0058818735    
0.0057266100    0.3245277500    0.0052638428    
0.0059492710    0.2647620800    0.0047545006    
0.0061719320    0.2292807900    0.0042635222    
0.0063945930    0.2075036600    0.0041051621    
0.0066172539    0.1876148000    0.0036653585    
0.0068399149    0.1691957200    0.0034259694    
0.0070625759    0.1509285300    0.0032025585    
0.0072852369    0.1286426100    0.0029124347    
0.0075078979    0.1102100700    0.0026824710    
0.0077305589    0.0999570330    0.0025059839    
0.0079532199    0.0970226430    0.0024347134    
0.0081758809    0.0945416460    0.0024257401    
0.0083985419    0.0840302850    0.0021329957    
0.0086212029    0.0766126750    0.0020366782    
0.0088438639    0.0748008380    0.0019962867    
0.0090665249    0.0647573480    0.0017939769    
0.0092891859    0.0626978940    0.0018424626    
0.0095118469    0.0587348610    0.0017149321    
0.0097345079    0.0572444200    0.0016443030    
0.0099571689    0.0543189760    0.0015687075    
0.0101798300    0.0525068430    0.0015423189    
0.0104024910    0.0483722880    0.0014753410    
0.0106251520    0.0468892170    0.0014574807    
0.0108478130    0.0473907800    0.0014269413    
0.0110704740    0.0429176180    0.0012928401    
0.0112931350    0.0421123780    0.0012844155    
0.0115157960    0.0404224250    0.0012510426    
0.0117384570    0.0388922660    0.0012165719    
0.0119611180    0.0382737700    0.0012103229    
0.0121837790    0.0366280050    0.0011641144    
0.0124064400    0.0349291260    0.0010894095    
0.0126291010    0.0351867560    0.0010797345    
0.0128517620    0.0367279250    0.0011058816    
0.0130744230    0.0343480130    0.0010615202    
0.0132970840    0.0335581130    0.0010441127    
0.0135197450    0.0310257460    0.0009895676    
0.0137424060    0.0311499670    0.0009777427    
0.0139650670    0.0304818330    0.0009456563    
0.0141877280    0.0290254720    0.0009248284    
0.0144103890    0.0286592760    0.0009031304    
0.0146330500    0.0311345890    0.0009353481    
0.0148557110    0.0281154540    0.0008851146    
0.0150783720    0.0281185570    0.0008778481    
0.0153010330    0.0287697320    0.0008754351    
0.0155236940    0.0279811090    0.0008582193    
0.0157463550    0.0264353070    0.0008197241    
0.0159690160    0.0272693130    0.0008293949    
0.0161916770    0.0259652210    0.0008047605    
0.0164143380    0.0244609910    0.0007870195    
0.0166369990    0.0255208120    0.0007791026    
0.0168596600    0.0243720680    0.0007546581    
0.0170823210    0.0252838020    0.0007619890    
0.0173049820    0.0249795520    0.0007586999    
0.0175276430    0.0254620960    0.0007740705    
0.0177503040    0.0234429730    0.0007238106    
0.0179729650    0.0248423730    0.0007377115    
0.0181956260    0.0250791970    0.0007270096    
0.0184182870    0.0246345830    0.0007171404    
0.0186409480    0.0228755070    0.0006954359    
0.0188636090    0.0241126800    0.0007095034    
0.0190862700    0.0231008160    0.0006933712    
0.0193089310    0.0216180810    0.0006697046    
0.0195315920    0.0228055980    0.0006644600    
0.0197542530    0.0234545760    0.0006748296    
0.0199769140    0.0220372130    0.0006541220    
0.0201995750    0.0217663280    0.0006399094    
0.0204222360    0.0230027870    0.0006634806    
0.0206448970    0.0228090390    0.0006559849    
0.0208675580    0.0233270950    0.0006497319    
0.0210902190    0.0215472250    0.0006304780    
0.0213128800    0.0213075090    0.0006184539    
0.0215355410    0.0212585310    0.0006103836    
0.0217582020    0.0224502790    0.0006272594    
0.0219808630    0.0214999040    0.0006130331    
0.0222035240    0.0214381480    0.0006066051    
0.0224261850    0.0216314820    0.0006039110    
0.0226488460    0.0218392780    0.0006022480    
0.0228715070    0.0204088710    0.0005807450    
0.0230941680    0.0212516750    0.0005926151    
0.0233168290    0.0216566180    0.0005997246    
0.0235394900    0.0211325080    0.0005858850    
0.0237621510    0.0211789210    0.0005707381    
0.0239848120    0.0214591970    0.0005751668    
0.0242074730    0.0219058870    0.0005764707    
0.0244301340    0.0209827950    0.0005648378    
0.0246527950    0.0208930590    0.0005688478    
0.0248754560    0.0221252100    0.0005722250    
0.0250981170    0.0209604210    0.0005582008    
0.0253207780    0.0199513220    0.0005283381    
0.0255434390    0.0213084100    0.0005518388    
0.0257661000    0.0216334780    0.0005578307    
0.0259887610    0.0201764500    0.0005329932    
0.0262114220    0.0206481650    0.0005420605    
0.0264340830    0.0204501040    0.0005321147    
0.0266567440    0.0217844770    0.0005458072    
0.0268794050    0.0197352220    0.0005173811    
0.0271020660    0.0205309980    0.0005255727    
0.0273247270    0.0207636760    0.0005253681    
0.0275473880    0.0220316230    0.0005400946    
0.0277700490    0.0210392200    0.0005246705    
0.0279927100    0.0205708290    0.0005142707    
0.0282153710    0.0201741590    0.0005117643    
0.0284380320    0.0199152780    0.0005055225    
0.0286606930    0.0205848860    0.0005095519    
0.0288833540    0.0211063100    0.0005169452    
0.0291060150    0.0204091350    0.0005078534    
0.0293286760    0.0215154170    0.0005141699    
0.0295513370    0.0202439590    0.0004933151    
0.0297739980    0.0206798890    0.0005040877    
0.0299966590    0.0207867640    0.0004967568    
0.0302193200    0.0208960130    0.0005053187    
0.0304419810    0.0204210690    0.0005004623    
0.0306646420    0.0210798660    0.0004941197    
0.0308873030    0.0210359440    0.0004914726    
0.0311099640    0.0199103120    0.0004793840    
0.0313326250    0.0206342740    0.0004826153    
0.0315552860    0.0201417400    0.0004830001    
0.0317779470    0.0207105590    0.0004901993    
0.0320006080    0.0199463660    0.0004701403    
0.0322232690    0.0207394730    0.0004814029    
0.0324459300    0.0205960840    0.0004761544    
0.0326685910    0.0191787030    0.0004587209    
0.0328912520    0.0203551720    0.0004741460    
0.0331139130    0.0215612570    0.0004816430    
0.0333365740    0.0201637740    0.0004672852    
0.0335592350    0.0199903130    0.0004607971    
0.0337818960    0.0206159990    0.0004675804    
0.0340045570    0.0196097200    0.0004553019    
0.0342272170    0.0201055840    0.0004592040    
0.0344498780    0.0208254430    0.0004692034    
0.0346725390    0.0199288350    0.0004504914    
0.0348952000    0.0203127600    0.0004527381    
0.0351178610    0.0203056450    0.0004547306    
0.0353405220    0.0204742380    0.0004545344    
0.0355631830    0.0201801000    0.0004495581    
0.0357858440    0.0201700980    0.0004494468    
0.0360085050    0.0202317160    0.0004514928    
0.0362311660    0.0195961790    0.0004390629    
0.0364538270    0.0205219420    0.0004457081    
0.0366764880    0.0206081630    0.0004463193    
0.0368991490    0.0195014330    0.0004319808    
0.0371218100    0.0203890040    0.0004404382    
0.0373444710    0.0203396410    0.0004446952    
0.0375671320    0.0191268210    0.0004306052    
0.0377897930    0.0190600450    0.0004187251    
0.0380124540    0.0194210660    0.0004253241    
0.0382351150    0.0185082420    0.0004152085    
0.0384577760    0.0199068860    0.0004264565    
0.0386804370    0.0195811280    0.0004261805    
0.0389030980    0.0194592590    0.0004216349    
0.0391257590    0.0202053180    0.0004267248    
0.0393484200    0.0194429300    0.0004171880    
0.0395710810    0.0202044360    0.0004258523    
0.0397937420    0.0196569280    0.0004200428    
0.0400164030    0.0199348250    0.0004247224    
0.0402390640    0.0198567500    0.0004182454    
0.0404617250    0.0191095060    0.0004078798    
0.0406843860    0.0202960380    0.0004162907    
0.0409070470    0.0197098900    0.0004145090    
0.0411297080    0.0205273090    0.0004189247    
0.0413523690    0.0195075070    0.0004094387    
0.0415750300    0.0196742630    0.0004146777    
0.0417976910    0.0199553040    0.0004068277    
0.0420203520    0.0194203210    0.0004028453    
0.0422430130    0.0198539180    0.0004088597    
0.0424656740    0.0199392210    0.0004044042    
0.0426883350    0.0202701750    0.0004097703    
0.0429109960    0.0199135770    0.0004074189    
0.0431336570    0.0193645010    0.0003961023    
0.0433563180    0.0195681570    0.0004016147    
0.0435789790    0.0196848350    0.0003964818    
0.0438016400    0.0197300640    0.0003990965    
0.0440243010    0.0191260720    0.0003889535    
0.0442469620    0.0194920520    0.0003950100    
0.0444696230    0.0199962650    0.0003986516    
0.0446922840    0.0198460770    0.0003959723    
0.0449149450    0.0194728160    0.0003869875    
0.0451376060    0.0197203170    0.0003942487    
0.0453602670    0.0196408660    0.0003893290    
0.0455829280    0.0208813020    0.0004009708    
0.0458055890    0.0197000380    0.0003917353    
0.0460282500    0.0205811130    0.0003955712    
0.0462509110    0.0195299800    0.0003829408    
0.0464735720    0.0197700350    0.0003855046    
0.0466962330    0.0198060620    0.0003876098    
0.0469188940    0.0195430730    0.0003839363    
0.0471415550    0.0196452690    0.0003869159    
0.0473642160    0.0197583280    0.0003825945    
0.0475868770    0.0199219180    0.0003822665    
0.0478095380    0.0194352930    0.0003759167    
0.0480321990    0.0193087690    0.0003755120    
0.0482548600    0.0202340270    0.0003827291    
0.0484775210    0.0197517670    0.0003818951    
0.0487001820    0.0194143130    0.0003730763    
0.0489228430    0.0187847230    0.0003667800    
0.0491455040    0.0194439440    0.0003705794    
0.0493681650    0.0194562500    0.0003738822    
0.0495908260    0.0190987390    0.0003641987    
0.0498134870    0.0193225310    0.0003698134    
0.0500361480    0.0198963030    0.0003742711    
0.0502588090    0.0204931350    0.0003741517    
0.0504814700    0.0192096350    0.0003669812    
0.0507041310    0.0200424480    0.0003703951    
0.0509267920    0.0202500330    0.0003738485    
0.0511494530    0.0192998670    0.0003625387    
0.0513721140    0.0192462540    0.0003652231    
0.0515947750    0.0191104190    0.0003591068    
0.0518174360    0.0195675800    0.0003611878    
0.0520400970    0.0204083170    0.0003663079    
0.0522627580    0.0196733650    0.0003627081    
0.0524854190    0.0196955460    0.0003658633    
0.0527080800    0.0194495610    0.0003663864    
0.0529307410    0.0197023510    0.0003704916    
0.0531534020    0.0193032520    0.0003653849    
0.0533760630    0.0200228220    0.0003732977    
0.0535987240    0.0194226060    0.0003659435    
0.0538213850    0.0194378310    0.0003703284    
0.0540440460    0.0194709350    0.0003688895    
0.0542667070    0.0197473190    0.0003740586    
0.0544893680    0.0199244150    0.0003759324    
0.0547120290    0.0200721300    0.0003747384    
0.0549346900    0.0198061090    0.0003724427    
0.0551573510    0.0200600820    0.0003792354    
0.0553800120    0.0201010550    0.0003763952    
0.0556026730    0.0192762960    0.0003762348    
0.0558253340    0.0200410120    0.0003868373    
0.0560479950    0.0197498250    0.0003840170    
0.0562706560    0.0199051980    0.0003892518    
0.0564933170    0.0192533340    0.0003861494    
0.0567159780    0.0193992290    0.0003829624    
0.0569386390    0.0198643900    0.0003936051    
0.0571613000    0.0192347080    0.0003789768    
0.0573839610    0.0196656510    0.0003800170    
0.0576066220    0.0195014700    0.0003794750    
0.0578292830    0.0194679850    0.0003778945    
0.0580519440    0.0191535380    0.0003762836    
0.0582746050    0.0196737540    0.0003796777    
0.0584972660    0.0189489960    0.0003711923    
0.0587199270    0.0196670960    0.0003749005    
0.0589425880    0.0199391840    0.0003752770    
0.0591652490    0.0197600420    0.0003757857    
0.0593879100    0.0192141640    0.0003678068    
0.0596105710    0.0196233050    0.0003713100    
0.0598332320    0.0196600540    0.0003748344    
0.0600558930    0.0187257580    0.0003634870    
0.0602785540    0.0195099580    0.0003706279    
0.0605012150    0.0199186100    0.0003737003    
0.0607238760    0.0194220780    0.0003663239    
0.0609465370    0.0198413830    0.0003731720    
0.0611691980    0.0194185120    0.0003697591    
0.0613918590    0.0197476080    0.0003688083    
0.0616145200    0.0196113970    0.0003702241    
0.0618371810    0.0188100660    0.0003590204    
0.0620598420    0.0198513970    0.0003692045    
0.0622825030    0.0195288770    0.0003717932    
0.0625051640    0.0193695140    0.0003650728    
0.0627278250    0.0196461560    0.0003669135    
0.0629504860    0.0190988080    0.0003588252    
0.0631731470    0.0195121350    0.0003671744    
0.0633958080    0.0188916880    0.0003633689    
0.0636184690    0.0195293520    0.0003745960    
0.0638411300    0.0197253130    0.0003750575    
0.0640637910    0.0195336790    0.0003758562    
0.0642864520    0.0194132270    0.0003738848    
0.0645091130    0.0202019350    0.0003847464    
0.0647317740    0.0191008920    0.0003745273    
0.0649544350    0.0191394910    0.0003744931    
0.0651770960    0.0196777720    0.0003776513    
0.0653997570    0.0197873590    0.0003778802    
0.0656224180    0.0195835950    0.0003767470    
0.0658450790    0.0195949950    0.0003714399    
0.0660677400    0.0196059180    0.0003731247    
0.0662904010    0.0200622830    0.0003819482    
0.0665130620    0.0194344630    0.0003742938    
0.0667357230    0.0195567100    0.0003821449    
0.0669583840    0.0199823660    0.0003849888    
0.0671810450    0.0196376130    0.0003795461    
0.0674037060    0.0197775830    0.0003873492    
0.0676263670    0.0195413740    0.0003822102    
0.0678490280    0.0197092350    0.0003815008    
0.0680716890    0.0198563900    0.0003837745    
0.0682943500    0.0198228820    0.0003792508    
0.0685170110    0.0196839690    0.0003740686    
0.0687396720    0.0192118240    0.0003685732    
0.0689623330    0.0194415640    0.0003695955    
0.0691849940    0.0199541120    0.0003770300    
0.0694076550    0.0195058390    0.0003725719    
0.0696303160    0.0194993750    0.0003695610    
0.0698529770    0.0190829380    0.0003648272    
0.0700756380    0.0191398990    0.0003606810    
0.0702982990    0.0203022340    0.0003755168    
0.0705209600    0.0194967080    0.0003653350    
0.0707436210    0.0195147540    0.0003638255    
0.0709662820    0.0201147760    0.0003737799    
0.0711889430    0.0196711300    0.0003650949    
0.0714116040    0.0196630770    0.0003657654    
0.0716342650    0.0192742700    0.0003606607    
0.0718569260    0.0202975480    0.0003686201    
0.0720795870    0.0201718980    0.0003689638    
0.0723022480    0.0202740390    0.0003704605    
0.0725249090    0.0193486050    0.0003575725    
0.0727475700    0.0192772540    0.0003599611    
0.0729702310    0.0200690280    0.0003643498    
0.0731928920    0.0194696510    0.0003603021    
0.0734155530    0.0189736410    0.0003549732    
0.0736382140    0.0197470940    0.0003598121    
0.0738608750    0.0193323110    0.0003583131    
0.0740835360    0.0204523490    0.0003676316    
0.0743061970    0.0196042130    0.0003548601    
0.0745288580    0.0193931650    0.0003565739    
0.0747515190    0.0194764250    0.0003580443    
0.0749741800    0.0202740090    0.0003619205    
0.0751968410    0.0193729720    0.0003565645    
0.0754195020    0.0193282410    0.0003540660    
0.0756421630    0.0190645790    0.0003487682    
0.0758648240    0.0197397590    0.0003557435    
0.0760874850    0.0204445630    0.0003618648    
0.0763101460    0.0190309290    0.0003487953    
0.0765328070    0.0192984260    0.0003548320    
0.0767554680    0.0201379500    0.0003600083    
0.0769781290    0.0197417540    0.0003544009    
0.0772007900    0.0197519040    0.0003516489    
0.0774234510    0.0194010330    0.0003504939    
0.0776461120    0.0190545690    0.0003470208    
0.0778687730    0.0192553500    0.0003476919    
0.0780914340    0.0194232450    0.0003516996    
0.0783140950    0.0193730690    0.0003456722    
0.0785367560    0.0194169310    0.0003516429    
0.0787594170    0.0197085300    0.0003510994    
0.0789820780    0.0194637410    0.0003471243    
0.0792047390    0.0193980510    0.0003476710    
0.0794274000    0.0197764420    0.0003525330    
0.0796500610    0.0195524990    0.0003471101    
0.0798727220    0.0194610620    0.0003459778    
0.0800953830    0.0196165550    0.0003465585    
0.0803180440    0.0194562450    0.0003475438    
0.0805407050    0.0190049040    0.0003431696    
0.0807633660    0.0197551440    0.0003495528    
0.0809860270    0.0195296980    0.0003462691    
0.0812086880    0.0193082600    0.0003413250    
0.0814313490    0.0195456710    0.0003449833    
0.0816540100    0.0197659000    0.0003461316    
0.0818766710    0.0187480670    0.0003378716    
0.0820993320    0.0198688950    0.0003471907    
0.0823219930    0.0193602620    0.0003441315    
0.0825446540    0.0193994660    0.0003419769    
0.0827673150    0.0192943200    0.0003387576    
0.0829899760    0.0186685910    0.0003326261    
0.0832126370    0.0193743780    0.0003403731    
0.0834352980    0.0198890930    0.0003440937    
0.0836579590    0.0190479740    0.0003359896    
0.0838806200    0.0192627910    0.0003389362    
0.0841032810    0.0192128540    0.0003363953    
0.0843259420    0.0193990930    0.0003369808    
0.0845486030    0.0196157080    0.0003388572    
0.0847712640    0.0205512110    0.0003447297    
0.0849939250    0.0197350340    0.0003384033    
0.0852165860    0.0197285920    0.0003387913    
0.0854392470    0.0196021580    0.0003345059    
0.0856619080    0.0196197050    0.0003371203    
0.0858845690    0.0189777590    0.0003285730    
0.0861072300    0.0194137110    0.0003346197    
0.0863298910    0.0197807480    0.0003395368    
0.0865525520    0.0193947860    0.0003333048    
0.0867752130    0.0195733760    0.0003321340    
0.0869978740    0.0199508380    0.0003361758    
0.0872205350    0.0197983990    0.0003344630    
0.0874431960    0.0193012090    0.0003302369    
0.0876658570    0.0197116210    0.0003350108    
0.0878885180    0.0191908080    0.0003311222    
0.0881111790    0.0187768780    0.0003271114    
0.0883338400    0.0196309030    0.0003295706    
0.0885565010    0.0195530570    0.0003333769    
0.0887791620    0.0198355610    0.0003314223    
0.0890018230    0.0196463760    0.0003330373    
0.0892244840    0.0201267560    0.0003376573    
0.0894471450    0.0195470460    0.0003313535    
0.0896698060    0.0194054360    0.0003289057    
0.0898924670    0.0194563450    0.0003308634    
0.0901151280    0.0195283020    0.0003278943    
0.0903377890    0.0194870640    0.0003302892    
0.0905604500    0.0193640810    0.0003277344    
0.0907831110    0.0197093970    0.0003298211    
0.0910057720    0.0191220340    0.0003263602    
0.0912284330    0.0196174310    0.0003258278    
0.0914510940    0.0192274280    0.0003261698    
0.0916737550    0.0195560510    0.0003281290    
0.0918964160    0.0194081640    0.0003282455    
0.0921190770    0.0188952370    0.0003209505    
0.0923417380    0.0192435640    0.0003240282    
0.0925643990    0.0194752590    0.0003251753    
0.0927870600    0.0188744290    0.0003214328    
0.0930097210    0.0190170770    0.0003198972    
0.0932323820    0.0200239450    0.0003306695    
