# Diamond Light Source Ltd.
# Data extracted from: /dls/b21/data/2018/cm19678-3/processed/b21-386631_00183.dat
q(1/A)          Column          Error           
0.0035000000    2.0661744000    0.0244590480    
0.0037226610    1.8718674000    0.0227903980    
0.0039453220    1.6419051000    0.0194175770    
0.0041679830    1.2902347000    0.0141357930    
0.0043906440    0.9772427500    0.0117671790    
0.0046133050    0.7894744800    0.0101532250    
0.0048359660    0.6013391500    0.0083818984    
0.0050586270    0.4667278300    0.0072581501    
0.0052812880    0.4149057000    0.0064702767    
0.0055039490    0.3869796100    0.0059415909    
0.0057266100    0.3246069600    0.0052644351    
0.0059492710    0.2670622600    0.0047750634    
0.0061719320    0.2267394900    0.0042397881    
0.0063945930    0.2032766300    0.0040630955    
0.0066172539    0.1826703300    0.0036167025    
0.0068399149    0.1730078400    0.0034643164    
0.0070625759    0.1386939600    0.0030699835    
0.0072852369    0.1241565500    0.0028611753    
0.0075078979    0.1149087800    0.0027390307    
0.0077305589    0.1019027200    0.0025302320    
0.0079532199    0.0972651840    0.0024377316    
0.0081758809    0.0855153080    0.0023070154    
0.0083985419    0.0840828300    0.0021336422    
0.0086212029    0.0742289620    0.0020047243    
0.0088438639    0.0720823430    0.0019596567    
0.0090665249    0.0675391890    0.0018320871    
0.0092891859    0.0661618050    0.0018926562    
0.0095118469    0.0621886710    0.0017646171    
0.0097345079    0.0563459530    0.0016313326    
0.0099571689    0.0549068790    0.0015771589    
0.0101798300    0.0530041750    0.0015495912    
0.0104024910    0.0500362440    0.0015004872    
0.0106251520    0.0462540870    0.0014475622    
0.0108478130    0.0435230710    0.0013674606    
0.0110704740    0.0434230810    0.0013004187    
0.0112931350    0.0439135610    0.0013115832    
0.0115157960    0.0386019070    0.0012225347    
0.0117384570    0.0386251460    0.0012123754    
0.0119611180    0.0392681410    0.0012259328    
0.0121837790    0.0383291840    0.0011908298    
0.0124064400    0.0348265300    0.0010877981    
0.0126291010    0.0369420790    0.0011063280    
0.0128517620    0.0344629910    0.0010712302    
0.0130744230    0.0338224720    0.0010533580    
0.0132970840    0.0322905420    0.0010241938    
0.0135197450    0.0309304710    0.0009880377    
0.0137424060    0.0307504170    0.0009714426    
0.0139650670    0.0303932420    0.0009442721    
0.0141877280    0.0310581380    0.0009566545    
0.0144103890    0.0288010290    0.0009053526    
0.0146330500    0.0306563090    0.0009281272    
0.0148557110    0.0285607460    0.0008920878    
0.0150783720    0.0273232640    0.0008653365    
0.0153010330    0.0289023760    0.0008774425    
0.0155236940    0.0259011180    0.0008256975    
0.0157463550    0.0264348040    0.0008197085    
0.0159690160    0.0263859010    0.0008158421    
0.0161916770    0.0260894380    0.0008066755    
0.0164143380    0.0262330280    0.0008150205    
0.0166369990    0.0257581680    0.0007827097    
0.0168596600    0.0248389410    0.0007618447    
0.0170823210    0.0258803850    0.0007709190    
0.0173049820    0.0255782060    0.0007677301    
0.0175276430    0.0245673970    0.0007603418    
0.0177503040    0.0230849670    0.0007182557    
0.0179729650    0.0247104620    0.0007357433    
0.0181956260    0.0234981280    0.0007037134    
0.0184182870    0.0245297330    0.0007156058    
0.0186409480    0.0240167120    0.0007125648    
0.0188636090    0.0238825810    0.0007061033    
0.0190862700    0.0229546990    0.0006911684    
0.0193089310    0.0232981230    0.0006952341    
0.0195315920    0.0221082320    0.0006542157    
0.0197542530    0.0231046480    0.0006697703    
0.0199769140    0.0225027700    0.0006609890    
0.0201995750    0.0228570320    0.0006557400    
0.0204222360    0.0234999050    0.0006706052    
0.0206448970    0.0241480690    0.0006749590    
0.0208675580    0.0236161980    0.0006537395    
0.0210902190    0.0216759490    0.0006323524    
0.0213128800    0.0219533180    0.0006277503    
0.0215355410    0.0217488340    0.0006173765    
0.0217582020    0.0222746000    0.0006247944    
0.0219808630    0.0214820160    0.0006127723    
0.0222035240    0.0226735430    0.0006238325    
0.0224261850    0.0216142110    0.0006036642    
0.0226488460    0.0221377980    0.0006063444    
0.0228715070    0.0226063200    0.0006112049    
0.0230941680    0.0209703450    0.0005886739    
0.0233168290    0.0219551420    0.0006038381    
0.0235394900    0.0218467970    0.0005956987    
0.0237621510    0.0212092790    0.0005711416    
0.0239848120    0.0219983420    0.0005823418    
0.0242074730    0.0208284010    0.0005621092    
0.0244301340    0.0210584190    0.0005658494    
0.0246527950    0.0206603490    0.0005656656    
0.0248754560    0.0206300710    0.0005525471    
0.0250981170    0.0208559660    0.0005568029    
0.0253207780    0.0211821370    0.0005443859    
0.0255434390    0.0207792350    0.0005449383    
0.0257661000    0.0218775900    0.0005609639    
0.0259887610    0.0212038770    0.0005463901    
0.0262114220    0.0207331530    0.0005431697    
0.0264340830    0.0210727610    0.0005401497    
0.0266567440    0.0209498960    0.0005352448    
0.0268794050    0.0213489000    0.0005381126    
0.0271020660    0.0207996850    0.0005289955    
0.0273247270    0.0202182780    0.0005184174    
0.0275473880    0.0206145340    0.0005224313    
0.0277700490    0.0195995970    0.0005063971    
0.0279927100    0.0207504300    0.0005165060    
0.0282153710    0.0208228680    0.0005199222    
0.0284380320    0.0205821510    0.0005139118    
0.0286606930    0.0203070080    0.0005060961    
0.0288833540    0.0200803670    0.0005042200    
0.0291060150    0.0217229940    0.0005239402    
0.0293286760    0.0204337280    0.0005010736    
0.0295513370    0.0205441030    0.0004969539    
0.0297739980    0.0205689100    0.0005027285    
0.0299966590    0.0205252040    0.0004936168    
0.0302193200    0.0196736500    0.0004903114    
0.0304419810    0.0203225630    0.0004992490    
0.0306646420    0.0210910470    0.0004942460    
0.0308873030    0.0211044380    0.0004922674    
0.0311099640    0.0199561010    0.0004799303    
0.0313326250    0.0202726760    0.0004783634    
0.0315552860    0.0198054750    0.0004789467    
0.0317779470    0.0198747980    0.0004802021    
0.0320006080    0.0206551770    0.0004784163    
0.0322232690    0.0211301710    0.0004859116    
0.0324459300    0.0200453000    0.0004697400    
0.0326685910    0.0199024630    0.0004672918    
0.0328912520    0.0200234540    0.0004702622    
0.0331139130    0.0200438410    0.0004643811    
0.0333365740    0.0195678020    0.0004603233    
0.0335592350    0.0197456350    0.0004579641    
0.0337818960    0.0204883510    0.0004661261    
0.0340045570    0.0211632960    0.0004729893    
0.0342272170    0.0200527630    0.0004585960    
0.0344498780    0.0195248030    0.0004543109    
0.0346725390    0.0197044260    0.0004479436    
0.0348952000    0.0203224650    0.0004528419    
0.0351178610    0.0200710450    0.0004520919    
0.0353405220    0.0203023090    0.0004526176    
0.0355631830    0.0206303810    0.0004545416    
0.0357858440    0.0198792870    0.0004461907    
0.0360085050    0.0201708790    0.0004508092    
0.0362311660    0.0206975790    0.0004512287    
0.0364538270    0.0203182720    0.0004434866    
0.0366764880    0.0197958330    0.0004374302    
0.0368991490    0.0193958070    0.0004308052    
0.0371218100    0.0198938860    0.0004350534    
0.0373444710    0.0196586860    0.0004371837    
0.0375671320    0.0202897500    0.0004434984    
0.0377897930    0.0202647110    0.0004317508    
0.0380124540    0.0194765830    0.0004259276    
0.0382351150    0.0199609500    0.0004311914    
0.0384577760    0.0197786090    0.0004250762    
0.0386804370    0.0201836690    0.0004326838    
0.0389030980    0.0203815880    0.0004315074    
0.0391257590    0.0201418500    0.0004260500    
0.0393484200    0.0199080360    0.0004221444    
0.0395710810    0.0202130270    0.0004259388    
0.0397937420    0.0198450420    0.0004220439    
0.0400164030    0.0191472030    0.0004162435    
0.0402390640    0.0201470820    0.0004212880    
0.0404617250    0.0201625390    0.0004189633    
0.0406843860    0.0204664190    0.0004180304    
0.0409070470    0.0199100100    0.0004166040    
0.0411297080    0.0199284660    0.0004127649    
0.0413523690    0.0198336880    0.0004128436    
0.0415750300    0.0195515280    0.0004133783    
0.0417976910    0.0201788570    0.0004090963    
0.0420203520    0.0199798210    0.0004086032    
0.0422430130    0.0196262110    0.0004065045    
0.0424656740    0.0197419960    0.0004023954    
0.0426883350    0.0192923330    0.0003997606    
0.0429109960    0.0197381550    0.0004056166    
0.0431336570    0.0199798960    0.0004023432    
0.0433563180    0.0196996650    0.0004029581    
0.0435789790    0.0192292820    0.0003918635    
0.0438016400    0.0196570350    0.0003983534    
0.0440243010    0.0198771320    0.0003965130    
0.0442469620    0.0202761510    0.0004028728    
0.0444696230    0.0200038320    0.0003987233    
0.0446922840    0.0195454860    0.0003929584    
0.0449149450    0.0193801600    0.0003860620    
0.0451376060    0.0196805340    0.0003938471    
0.0453602670    0.0197408170    0.0003903147    
0.0455829280    0.0197490860    0.0003899450    
0.0458055890    0.0196685060    0.0003914179    
0.0460282500    0.0201549660    0.0003914508    
0.0462509110    0.0200852380    0.0003883427    
0.0464735720    0.0198899310    0.0003866681    
0.0466962330    0.0200863490    0.0003903390    
0.0469188940    0.0189242140    0.0003778048    
0.0471415550    0.0200411460    0.0003907911    
0.0473642160    0.0199579760    0.0003845189    
0.0475868770    0.0194374370    0.0003775862    
0.0478095380    0.0200020480    0.0003813548    
0.0480321990    0.0200532800    0.0003826795    
0.0482548600    0.0196834610    0.0003774825    
0.0484775210    0.0192714520    0.0003772195    
0.0487001820    0.0202168840    0.0003807060    
0.0489228430    0.0193572790    0.0003723242    
0.0491455040    0.0193305710    0.0003694939    
0.0493681650    0.0202892930    0.0003817988    
0.0495908260    0.0197720280    0.0003705591    
0.0498134870    0.0200228580    0.0003764520    
0.0500361480    0.0192270950    0.0003679195    
0.0502588090    0.0197345140    0.0003671577    
0.0504814700    0.0195317610    0.0003700419    
0.0507041310    0.0195013150    0.0003653572    
0.0509267920    0.0201944340    0.0003733314    
0.0511494530    0.0198170590    0.0003673607    
0.0513721140    0.0194815240    0.0003674451    
0.0515947750    0.0198388290    0.0003658831    
0.0518174360    0.0193338690    0.0003590209    
0.0520400970    0.0195860890    0.0003588496    
0.0522627580    0.0200608340    0.0003662590    
0.0524854190    0.0193485700    0.0003626228    
0.0527080800    0.0191593170    0.0003636389    
0.0529307410    0.0202593160    0.0003756882    
0.0531534020    0.0202573100    0.0003743020    
0.0533760630    0.0192986540    0.0003664815    
0.0535987240    0.0196566550    0.0003681383    
0.0538213850    0.0193457420    0.0003694466    
0.0540440460    0.0192818700    0.0003670906    
0.0542667070    0.0206113590    0.0003821508    
0.0544893680    0.0199524080    0.0003761928    
0.0547120290    0.0198618660    0.0003727669    
0.0549346900    0.0200578570    0.0003747986    
0.0551573510    0.0198948070    0.0003776663    
0.0553800120    0.0198539950    0.0003740714    
0.0556026730    0.0200322800    0.0003835378    
0.0558253340    0.0188384920    0.0003750486    
0.0560479950    0.0197718490    0.0003842274    
0.0562706560    0.0189076750    0.0003793694    
0.0564933170    0.0193613920    0.0003872278    
0.0567159780    0.0193988600    0.0003829551    
0.0569386390    0.0196378420    0.0003913505    
0.0571613000    0.0198764830    0.0003852437    
0.0573839610    0.0194449790    0.0003778753    
0.0576066220    0.0202616500    0.0003867967    
0.0578292830    0.0197903640    0.0003810069    
0.0580519440    0.0190792520    0.0003755496    
0.0582746050    0.0199078480    0.0003819263    
0.0584972660    0.0195448710    0.0003769799    
0.0587199270    0.0200454780    0.0003784861    
0.0589425880    0.0194514590    0.0003706553    
0.0591652490    0.0197739590    0.0003759145    
0.0593879100    0.0197277630    0.0003726866    
0.0596105710    0.0194262110    0.0003694371    
0.0598332320    0.0197668760    0.0003758477    
0.0600558930    0.0195085670    0.0003710033    
0.0602785540    0.0194603030    0.0003701524    
0.0605012150    0.0200794850    0.0003752028    
0.0607238760    0.0196358930    0.0003683313    
0.0609465370    0.0197287120    0.0003721074    
0.0611691980    0.0190309060    0.0003660467    
0.0613918590    0.0190102420    0.0003618538    
0.0616145200    0.0195271570    0.0003694246    
0.0618371810    0.0192551120    0.0003632393    
0.0620598420    0.0196999570    0.0003677901    
0.0622825030    0.0199036460    0.0003753401    
0.0625051640    0.0195755660    0.0003670060    
0.0627278250    0.0197006010    0.0003674181    
0.0629504860    0.0192669810    0.0003603982    
0.0631731470    0.0197328600    0.0003692419    
0.0633958080    0.0195762530    0.0003698904    
0.0636184690    0.0192990590    0.0003723772    
0.0638411300    0.0199032190    0.0003767414    
0.0640637910    0.0188824390    0.0003695342    
0.0642864520    0.0197512880    0.0003771226    
0.0645091130    0.0199084560    0.0003819379    
0.0647317740    0.0190417810    0.0003739438    
0.0649544350    0.0198572110    0.0003814465    
0.0651770960    0.0197788650    0.0003786165    
0.0653997570    0.0191447360    0.0003716899    
0.0656224180    0.0195324890    0.0003762515    
0.0658450790    0.0194678880    0.0003702297    
0.0660677400    0.0193783170    0.0003709491    
0.0662904010    0.0192184150    0.0003738256    
0.0665130620    0.0190880860    0.0003709398    
0.0667357230    0.0192949900    0.0003795756    
0.0669583840    0.0195517880    0.0003808148    
0.0671810450    0.0203341160    0.0003862146    
0.0674037060    0.0197089310    0.0003866727    
0.0676263670    0.0197054640    0.0003838080    
0.0678490280    0.0204472970    0.0003885746    
0.0680716890    0.0196112430    0.0003813945    
0.0682943500    0.0191477280    0.0003727328    
0.0685170110    0.0196835950    0.0003740614    
0.0687396720    0.0194165120    0.0003705279    
0.0689623330    0.0197714210    0.0003727141    
0.0691849940    0.0197685150    0.0003752689    
0.0694076550    0.0195695140    0.0003731760    
0.0696303160    0.0199052340    0.0003733836    
0.0698529770    0.0190407280    0.0003644200    
0.0700756380    0.0196968650    0.0003658878    
0.0702982990    0.0184751670    0.0003582181    
0.0705209600    0.0195511030    0.0003658408    
0.0707436210    0.0194804680    0.0003635023    
0.0709662820    0.0198921350    0.0003717020    
0.0711889430    0.0190473630    0.0003592563    
0.0714116040    0.0197239370    0.0003663275    
0.0716342650    0.0198475320    0.0003659814    
0.0718569260    0.0193130970    0.0003595663    
0.0720795870    0.0198408340    0.0003659201    
0.0723022480    0.0200773480    0.0003686555    
0.0725249090    0.0194539660    0.0003585413    
0.0727475700    0.0196667270    0.0003635758    
0.0729702310    0.0195725530    0.0003598115    
0.0731928920    0.0192025780    0.0003578189    
0.0734155530    0.0192920470    0.0003579359    
0.0736382140    0.0201597480    0.0003635486    
0.0738608750    0.0196772750    0.0003614924    
0.0740835360    0.0194078860    0.0003581181    
0.0743061970    0.0196359570    0.0003551439    
0.0745288580    0.0201860780    0.0003637869    
0.0747515190    0.0195616200    0.0003588231    
0.0749741800    0.0191171610    0.0003514398    
0.0751968410    0.0200157330    0.0003624279    
0.0754195020    0.0188868360    0.0003499963    
0.0756421630    0.0195810170    0.0003534572    
0.0758648240    0.0194573010    0.0003531858    
0.0760874850    0.0195859290    0.0003541811    
0.0763101460    0.0192862690    0.0003511240    
0.0765328070    0.0188609500    0.0003507838    
0.0767554680    0.0199638010    0.0003584448    
0.0769781290    0.0195696030    0.0003528490    
0.0772007900    0.0191067090    0.0003458546    
0.0774234510    0.0187928110    0.0003449529    
0.0776461120    0.0193449180    0.0003496514    
0.0778687730    0.0201213650    0.0003554213    
0.0780914340    0.0198049650    0.0003551353    
0.0783140950    0.0198722830    0.0003500943    
0.0785367560    0.0194866120    0.0003522700    
0.0787594170    0.0196018280    0.0003501443    
0.0789820780    0.0198038570    0.0003501408    
0.0792047390    0.0194537630    0.0003481667    
0.0794274000    0.0199834410    0.0003543698    
0.0796500610    0.0192501880    0.0003444129    
0.0798727220    0.0191039530    0.0003427856    
0.0800953830    0.0194325100    0.0003449256    
0.0803180440    0.0192944670    0.0003460926    
0.0805407050    0.0195374380    0.0003479410    
0.0807633660    0.0190929780    0.0003436413    
0.0809860270    0.0192407770    0.0003436949    
0.0812086880    0.0195613090    0.0003435512    
0.0814313490    0.0195452990    0.0003449767    
0.0816540100    0.0192806300    0.0003418530    
0.0818766710    0.0195758000    0.0003452463    
0.0820993320    0.0194620470    0.0003436144    
0.0823219930    0.0197330230    0.0003474253    
0.0825446540    0.0200742680    0.0003478705    
0.0827673150    0.0197697600    0.0003429027    
0.0829899760    0.0196994340    0.0003416829    
0.0832126370    0.0191886410    0.0003387344    
0.0834352980    0.0195434450    0.0003410874    
0.0836579590    0.0194980230    0.0003399324    
0.0838806200    0.0191491170    0.0003379314    
0.0841032810    0.0196247740    0.0003399790    
0.0843259420    0.0195567700    0.0003383443    
0.0845486030    0.0194397280    0.0003373306    
0.0847712640    0.0196314110    0.0003369238    
0.0849939250    0.0196302120    0.0003375002    
0.0852165860    0.0197631240    0.0003390844    
0.0854392470    0.0194191250    0.0003329373    
0.0856619080    0.0198336560    0.0003389502    
0.0858845690    0.0201777070    0.0003387983    
0.0861072300    0.0194883200    0.0003352589    
0.0863298910    0.0191859110    0.0003343894    
0.0865525520    0.0194975180    0.0003341832    
0.0867752130    0.0194884670    0.0003314097    
0.0869978740    0.0195086250    0.0003324261    
0.0872205350    0.0196285190    0.0003330218    
0.0874431960    0.0196850510    0.0003335013    
0.0876658570    0.0194493400    0.0003327714    
0.0878885180    0.0193332720    0.0003323458    
0.0881111790    0.0192380990    0.0003311013    
0.0883338400    0.0190108510    0.0003243209    
0.0885565010    0.0195924730    0.0003337095    
0.0887791620    0.0199514710    0.0003323860    
0.0890018230    0.0191661440    0.0003289386    
0.0892244840    0.0193616510    0.0003311741    
0.0894471450    0.0194455710    0.0003304891    
0.0896698060    0.0196001770    0.0003305488    
0.0898924670    0.0196360190    0.0003323845    
0.0901151280    0.0190159210    0.0003235610    
0.0903377890    0.0192347840    0.0003281412    
0.0905604500    0.0197020650    0.0003305790    
0.0907831110    0.0194551390    0.0003276837    
0.0910057720    0.0199126050    0.0003330351    
0.0912284330    0.0196549390    0.0003261360    
0.0914510940    0.0198301560    0.0003312395    
0.0916737550    0.0192143360    0.0003252465    
0.0918964160    0.0192301500    0.0003267335    
0.0921190770    0.0198107290    0.0003286306    
0.0923417380    0.0196523960    0.0003274490    
0.0925643990    0.0196703430    0.0003267968    
0.0927870600    0.0194926230    0.0003266512    
0.0930097210    0.0198346380    0.0003266981    
0.0932323820    0.0194775170    0.0003261235    
