# Diamond Light Source Ltd.
# Data extracted from: /dls/b21/data/2018/cm19678-3/processed/b21-386631_00184.dat
q(1/A)          Column          Error           
0.0035000000    2.1280556000    0.0248221440    
0.0037226610    1.8726287000    0.0227945990    
0.0039453220    1.6533242000    0.0194846120    
0.0041679830    1.2838362000    0.0141004300    
0.0043906440    0.9753637000    0.0117556370    
0.0046133050    0.7881387400    0.0101444400    
0.0048359660    0.6113635400    0.0084513126    
0.0050586270    0.4643398600    0.0072394208    
0.0052812880    0.4264931300    0.0065598803    
0.0055039490    0.3803056700    0.0058900212    
0.0057266100    0.3224602600    0.0052468990    
0.0059492710    0.2695279700    0.0047969650    
0.0061719320    0.2316460200    0.0042853345    
0.0063945930    0.1981526700    0.0040114835    
0.0066172539    0.1815893200    0.0036059166    
0.0068399149    0.1736949300    0.0034711229    
0.0070625759    0.1445325000    0.0031338758    
0.0072852369    0.1213826400    0.0028289788    
0.0075078979    0.1172547300    0.0027667965    
0.0077305589    0.1033437700    0.0025480114    
0.0079532199    0.0999496190    0.0024710953    
0.0081758809    0.0924824730    0.0023991093    
0.0083985419    0.0815891880    0.0021017254    
0.0086212029    0.0746592620    0.0020104883    
0.0088438639    0.0697888250    0.0019281918    
0.0090665249    0.0664930090    0.0018178077    
0.0092891859    0.0626401790    0.0018415619    
0.0095118469    0.0613851950    0.0017531473    
0.0097345079    0.0576189850    0.0016496268    
0.0099571689    0.0550406950    0.0015790496    
0.0101798300    0.0495592850    0.0014983607    
0.0104024910    0.0509342400    0.0015138632    
0.0106251520    0.0456634160    0.0014382624    
0.0108478130    0.0479895590    0.0014358867    
0.0110704740    0.0426036280    0.0012880654    
0.0112931350    0.0431284510    0.0012997810    
0.0115157960    0.0410008690    0.0012599261    
0.0117384570    0.0375962500    0.0011960961    
0.0119611180    0.0375444270    0.0011987013    
0.0121837790    0.0363669460    0.0011599254    
0.0124064400    0.0354707470    0.0010977921    
0.0126291010    0.0344227450    0.0010679176    
0.0128517620    0.0339622370    0.0010633989    
0.0130744230    0.0330666890    0.0010415028    
0.0132970840    0.0302103250    0.0009906356    
0.0135197450    0.0323179580    0.0010099362    
0.0137424060    0.0317005720    0.0009863180    
0.0139650670    0.0312721670    0.0009578100    
0.0141877280    0.0303792440    0.0009461231    
0.0144103890    0.0299667300    0.0009234751    
0.0146330500    0.0293345280    0.0009078809    
0.0148557110    0.0282253030    0.0008868168    
0.0150783720    0.0278703140    0.0008739395    
0.0153010330    0.0282886230    0.0008680596    
0.0155236940    0.0271635540    0.0008455645    
0.0157463550    0.0270438100    0.0008290812    
0.0159690160    0.0261578770    0.0008122938    
0.0161916770    0.0269115040    0.0008192704    
0.0164143380    0.0269410050    0.0008259295    
0.0166369990    0.0238783180    0.0007535930    
0.0168596600    0.0274783490    0.0008012849    
0.0170823210    0.0258794010    0.0007708897    
0.0173049820    0.0264528510    0.0007807312    
0.0175276430    0.0244723380    0.0007588550    
0.0177503040    0.0238885690    0.0007306364    
0.0179729650    0.0237894870    0.0007218886    
0.0181956260    0.0248459560    0.0007236004    
0.0184182870    0.0228378790    0.0006904736    
0.0186409480    0.0235929860    0.0007062376    
0.0188636090    0.0222951290    0.0006822199    
0.0190862700    0.0234532750    0.0006986208    
0.0193089310    0.0227993450    0.0006877388    
0.0195315920    0.0233463350    0.0006722721    
0.0197542530    0.0222495130    0.0006572464    
0.0199769140    0.0233173420    0.0006728334    
0.0201995750    0.0220848850    0.0006445567    
0.0204222360    0.0227335720    0.0006595678    
0.0206448970    0.0218833550    0.0006425174    
0.0208675580    0.0217333150    0.0006271255    
0.0210902190    0.0216566780    0.0006320593    
0.0213128800    0.0229038180    0.0006411838    
0.0215355410    0.0226242360    0.0006296668    
0.0217582020    0.0220985070    0.0006223080    
0.0219808630    0.0213413710    0.0006107514    
0.0222035240    0.0216085580    0.0006089939    
0.0224261850    0.0220011500    0.0006090320    
0.0226488460    0.0222033840    0.0006072303    
0.0228715070    0.0211182590    0.0005907350    
0.0230941680    0.0219775400    0.0006026335    
0.0233168290    0.0202604050    0.0005800537    
0.0235394900    0.0220408750    0.0005983274    
0.0237621510    0.0215314440    0.0005754521    
0.0239848120    0.0219204300    0.0005812986    
0.0242074730    0.0220108240    0.0005778333    
0.0244301340    0.0214985360    0.0005717210    
0.0246527950    0.0212325800    0.0005734348    
0.0248754560    0.0210880450    0.0005586360    
0.0250981170    0.0206470680    0.0005539968    
0.0253207780    0.0202999430    0.0005329189    
0.0255434390    0.0214929720    0.0005542077    
0.0257661000    0.0216466280    0.0005579843    
0.0259887610    0.0204146440    0.0005361148    
0.0262114220    0.0206185290    0.0005416559    
0.0264340830    0.0212104090    0.0005419006    
0.0266567440    0.0199235230    0.0005219590    
0.0268794050    0.0209412000    0.0005329395    
0.0271020660    0.0207719880    0.0005286332    
0.0273247270    0.0199516650    0.0005149781    
0.0275473880    0.0206269900    0.0005225792    
0.0277700490    0.0197820190    0.0005087386    
0.0279927100    0.0208653460    0.0005179243    
0.0282153710    0.0202508970    0.0005127220    
0.0284380320    0.0204402250    0.0005121271    
0.0286606930    0.0201170470    0.0005037138    
0.0288833540    0.0207885930    0.0005130250    
0.0291060150    0.0195486880    0.0004970184    
0.0293286760    0.0203592310    0.0005001498    
0.0295513370    0.0198100610    0.0004879858    
0.0297739980    0.0214527790    0.0005134066    
0.0299966590    0.0201801740    0.0004894411    
0.0302193200    0.0200394780    0.0004948396    
0.0304419810    0.0202236770    0.0004980235    
0.0306646420    0.0202332010    0.0004840811    
0.0308873030    0.0200013790    0.0004792210    
0.0311099640    0.0204054630    0.0004852944    
0.0313326250    0.0200913100    0.0004762097    
0.0315552860    0.0199321210    0.0004804665    
0.0317779470    0.0202685070    0.0004849258    
0.0320006080    0.0202998100    0.0004742739    
0.0322232690    0.0205259910    0.0004789052    
0.0324459300    0.0200775600    0.0004701090    
0.0326685910    0.0201979290    0.0004707387    
0.0328912520    0.0205748900    0.0004766846    
0.0331139130    0.0196665320    0.0004599808    
0.0333365740    0.0211805010    0.0004789077    
0.0335592350    0.0197448850    0.0004579467    
0.0337818960    0.0196392250    0.0004563561    
0.0340045570    0.0205599630    0.0004661896    
0.0342272170    0.0194647030    0.0004518131    
0.0344498780    0.0201477310    0.0004614926    
0.0346725390    0.0195611180    0.0004463032    
0.0348952000    0.0201804290    0.0004512481    
0.0351178610    0.0198666270    0.0004497752    
0.0353405220    0.0197263940    0.0004461433    
0.0355631830    0.0203391800    0.0004513137    
0.0357858440    0.0192876840    0.0004394930    
0.0360085050    0.0194044140    0.0004421528    
0.0362311660    0.0204607080    0.0004486307    
0.0364538270    0.0203175000    0.0004434698    
0.0366764880    0.0194664510    0.0004337676    
0.0368991490    0.0192802490    0.0004295118    
0.0371218100    0.0197599380    0.0004335781    
0.0373444710    0.0204162570    0.0004455193    
0.0375671320    0.0197849040    0.0004379378    
0.0377897930    0.0206594690    0.0004359275    
0.0380124540    0.0198018380    0.0004294611    
0.0382351150    0.0197180240    0.0004285514    
0.0384577760    0.0196316930    0.0004234865    
0.0386804370    0.0192832050    0.0004229139    
0.0389030980    0.0202072430    0.0004296497    
0.0391257590    0.0191768360    0.0004157106    
0.0393484200    0.0194418220    0.0004171642    
0.0395710810    0.0202840610    0.0004266784    
0.0397937420    0.0194045000    0.0004173252    
0.0400164030    0.0201960930    0.0004274844    
0.0402390640    0.0199172810    0.0004188705    
0.0404617250    0.0194218120    0.0004111875    
0.0406843860    0.0195179200    0.0004082211    
0.0409070470    0.0199005370    0.0004164969    
0.0411297080    0.0193036320    0.0004062347    
0.0413523690    0.0200735420    0.0004153245    
0.0415750300    0.0202412240    0.0004205983    
0.0417976910    0.0200619810    0.0004079020    
0.0420203520    0.0190933320    0.0003994281    
0.0422430130    0.0199622380    0.0004099619    
0.0424656740    0.0199052770    0.0004040484    
0.0426883350    0.0202027530    0.0004090766    
0.0429109960    0.0198290910    0.0004065422    
0.0431336570    0.0193552950    0.0003959968    
0.0433563180    0.0195505570    0.0004014226    
0.0435789790    0.0202346970    0.0004019698    
0.0438016400    0.0203585860    0.0004053919    
0.0440243010    0.0201848440    0.0003995628    
0.0442469620    0.0198191250    0.0003982989    
0.0444696230    0.0202335410    0.0004009984    
0.0446922840    0.0200345460    0.0003978367    
0.0449149450    0.0198869790    0.0003910700    
0.0451376060    0.0205230930    0.0004021817    
0.0453602670    0.0193619350    0.0003865435    
0.0455829280    0.0202179840    0.0003945395    
0.0458055890    0.0204934140    0.0003995341    
0.0460282500    0.0196752430    0.0003867568    
0.0462509110    0.0194387680    0.0003820346    
0.0464735720    0.0196862250    0.0003846756    
0.0466962330    0.0199035400    0.0003885514    
0.0469188940    0.0198813600    0.0003872339    
0.0471415550    0.0196822480    0.0003872688    
0.0473642160    0.0197720170    0.0003827161    
0.0475868770    0.0194293640    0.0003775006    
0.0478095380    0.0195068900    0.0003765977    
0.0480321990    0.0199210740    0.0003814087    
0.0482548600    0.0197333860    0.0003779538    
0.0484775210    0.0197875590    0.0003822300    
0.0487001820    0.0197644790    0.0003764151    
0.0489228430    0.0193851880    0.0003725854    
0.0491455040    0.0194075230    0.0003702216    
0.0493681650    0.0196922240    0.0003761320    
0.0495908260    0.0202573980    0.0003750727    
0.0498134870    0.0190383310    0.0003670733    
0.0500361480    0.0200218900    0.0003754398    
0.0502588090    0.0197610860    0.0003673978    
0.0504814700    0.0192506020    0.0003673618    
0.0507041310    0.0198701880    0.0003687894    
0.0509267920    0.0193516890    0.0003654516    
0.0511494530    0.0188833730    0.0003585953    
0.0513721140    0.0186352990    0.0003593693    
0.0515947750    0.0201619620    0.0003688438    
0.0518174360    0.0194997990    0.0003605514    
0.0520400970    0.0197628550    0.0003604584    
0.0522627580    0.0200065780    0.0003657565    
0.0524854190    0.0194769560    0.0003638170    
0.0527080800    0.0191723920    0.0003637560    
0.0529307410    0.0195688640    0.0003692238    
0.0531534020    0.0187834630    0.0003604216    
0.0533760630    0.0201260680    0.0003742483    
0.0535987240    0.0197110630    0.0003686404    
0.0538213850    0.0193873370    0.0003698365    
0.0540440460    0.0190644950    0.0003650086    
0.0542667070    0.0199941710    0.0003763786    
0.0544893680    0.0195970170    0.0003728203    
0.0547120290    0.0197491780    0.0003717009    
0.0549346900    0.0196369040    0.0003708378    
0.0551573510    0.0198008530    0.0003767663    
0.0553800120    0.0199096220    0.0003745879    
0.0556026730    0.0199874610    0.0003831012    
0.0558253340    0.0195844180    0.0003823944    
0.0560479950    0.0198084300    0.0003845753    
0.0562706560    0.0197518330    0.0003877383    
0.0564933170    0.0194690760    0.0003882958    
0.0567159780    0.0198592630    0.0003874655    
0.0569386390    0.0200816210    0.0003957402    
0.0571613000    0.0197039990    0.0003835612    
0.0573839610    0.0199215350    0.0003824705    
0.0576066220    0.0195963470    0.0003803861    
0.0578292830    0.0192248230    0.0003755163    
0.0580519440    0.0195442170    0.0003800910    
0.0582746050    0.0181632980    0.0003648014    
0.0584972660    0.0197622550    0.0003790633    
0.0587199270    0.0195302000    0.0003735828    
0.0589425880    0.0199309840    0.0003751891    
0.0591652490    0.0196588700    0.0003748118    
0.0593879100    0.0202198360    0.0003772988    
0.0596105710    0.0196783900    0.0003718202    
0.0598332320    0.0197089550    0.0003752895    
0.0600558930    0.0196700970    0.0003725290    
0.0602785540    0.0196144510    0.0003716085    
0.0605012150    0.0192093910    0.0003669766    
0.0607238760    0.0194278790    0.0003663682    
0.0609465370    0.0196998890    0.0003718284    
0.0611691980    0.0198327870    0.0003736718    
0.0613918590    0.0192161450    0.0003638012    
0.0616145200    0.0203440920    0.0003770659    
0.0618371810    0.0191104860    0.0003618657    
0.0620598420    0.0195481510    0.0003663633    
0.0622825030    0.0205186620    0.0003810877    
0.0625051640    0.0193821700    0.0003651817    
0.0627278250    0.0191516830    0.0003622564    
0.0629504860    0.0189426730    0.0003573453    
0.0631731470    0.0198219280    0.0003700672    
0.0633958080    0.0192330600    0.0003666268    
0.0636184690    0.0196216410    0.0003754693    
0.0638411300    0.0192963320    0.0003709461    
0.0640637910    0.0203497370    0.0003836160    
0.0642864520    0.0192609130    0.0003724045    
0.0645091130    0.0194680740    0.0003776828    
0.0647317740    0.0195918010    0.0003792988    
0.0649544350    0.0194168300    0.0003771858    
0.0651770960    0.0201767190    0.0003823983    
0.0653997570    0.0193532720    0.0003737016    
0.0656224180    0.0195389940    0.0003763070    
0.0658450790    0.0196713240    0.0003721520    
0.0660677400    0.0198178180    0.0003751249    
0.0662904010    0.0199520720    0.0003808868    
0.0665130620    0.0193901060    0.0003738557    
0.0667357230    0.0192942560    0.0003795612    
0.0669583840    0.0202482370    0.0003875305    
0.0671810450    0.0196291590    0.0003794536    
0.0674037060    0.0192530280    0.0003821671    
0.0676263670    0.0195552110    0.0003823346    
0.0678490280    0.0193462920    0.0003779611    
0.0680716890    0.0196327490    0.0003815963    
0.0682943500    0.0196621330    0.0003776991    
0.0685170110    0.0194411650    0.0003717437    
0.0687396720    0.0195218330    0.0003715245    
0.0689623330    0.0197987730    0.0003729647    
0.0691849940    0.0196039230    0.0003736963    
0.0694076550    0.0197253200    0.0003746515    
0.0696303160    0.0200655620    0.0003748772    
0.0698529770    0.0195351840    0.0003691144    
0.0700756380    0.0194378510    0.0003634672    
0.0702982990    0.0199815920    0.0003725291    
0.0705209600    0.0193997620    0.0003644152    
0.0707436210    0.0187675510    0.0003567821    
0.0709662820    0.0192524100    0.0003656693    
0.0711889430    0.0201443110    0.0003694494    
0.0714116040    0.0189475950    0.0003590389    
0.0716342650    0.0189694970    0.0003577877    
0.0718569260    0.0193458340    0.0003598641    
0.0720795870    0.0203529530    0.0003706054    
0.0723022480    0.0192101640    0.0003605993    
0.0725249090    0.0190897990    0.0003551629    
0.0727475700    0.0193635290    0.0003607554    
0.0729702310    0.0195122800    0.0003592502    
0.0731928920    0.0202686180    0.0003676100    
0.0734155530    0.0191717810    0.0003568117    
0.0736382140    0.0192673970    0.0003554048    
0.0738608750    0.0194706640    0.0003595827    
0.0740835360    0.0203124190    0.0003663614    
0.0743061970    0.0200591310    0.0003589435    
0.0745288580    0.0194117260    0.0003567344    
0.0747515190    0.0199821070    0.0003626523    
0.0749741800    0.0192327230    0.0003524937    
0.0751968410    0.0194965510    0.0003576897    
0.0754195020    0.0200470430    0.0003605793    
0.0756421630    0.0196632130    0.0003541915    
0.0758648240    0.0198860800    0.0003570494    
0.0760874850    0.0197837260    0.0003559583    
0.0763101460    0.0193942050    0.0003520985    
0.0765328070    0.0197735610    0.0003591633    
0.0767554680    0.0198214600    0.0003571579    
0.0769781290    0.0200205470    0.0003568844    
0.0772007900    0.0196193150    0.0003504567    
0.0774234510    0.0191719910    0.0003484089    
0.0776461120    0.0199761400    0.0003553034    
0.0778687730    0.0197815950    0.0003524010    
0.0780914340    0.0197596370    0.0003547220    
0.0783140950    0.0192794520    0.0003448262    
0.0785367560    0.0202882310    0.0003594358    
0.0787594170    0.0189443780    0.0003442157    
0.0789820780    0.0194440600    0.0003469389    
0.0792047390    0.0198767280    0.0003519245    
0.0794274000    0.0197501790    0.0003522888    
0.0796500610    0.0196561340    0.0003480188    
0.0798727220    0.0200380920    0.0003510596    
0.0800953830    0.0193521840    0.0003442054    
0.0803180440    0.0196041220    0.0003488521    
0.0805407050    0.0191277450    0.0003442671    
0.0807633660    0.0198096800    0.0003500249    
0.0809860270    0.0194917500    0.0003459226    
0.0812086880    0.0196872690    0.0003446489    
0.0814313490    0.0195932650    0.0003453932    
0.0816540100    0.0190374590    0.0003396839    
0.0818766710    0.0198307800    0.0003474809    
0.0820993320    0.0195341050    0.0003442434    
0.0823219930    0.0196099400    0.0003463335    
0.0825446540    0.0196635950    0.0003442873    
0.0827673150    0.0198998510    0.0003440225    
0.0829899760    0.0195090470    0.0003400213    
0.0832126370    0.0197081200    0.0003432824    
0.0834352980    0.0200903510    0.0003458204    
0.0836579590    0.0192720850    0.0003379508    
0.0838806200    0.0190827920    0.0003373393    
0.0841032810    0.0192942120    0.0003370972    
0.0843259420    0.0193921330    0.0003369107    
0.0845486030    0.0200126180    0.0003422586    
0.0847712640    0.0196942700    0.0003374563    
0.0849939250    0.0189795990    0.0003318538    
0.0852165860    0.0193725940    0.0003357111    
0.0854392470    0.0198407730    0.0003365261    
0.0856619080    0.0191725780    0.0003332472    
0.0858845690    0.0188970380    0.0003278641    
0.0861072300    0.0190435000    0.0003314044    
0.0863298910    0.0203216070    0.0003441376    
0.0865525520    0.0192963110    0.0003324481    
0.0867752130    0.0196060730    0.0003324018    
0.0869978740    0.0197004700    0.0003340503    
0.0872205350    0.0197238210    0.0003338229    
0.0874431960    0.0196560530    0.0003332492    
0.0876658570    0.0198756050    0.0003363918    
0.0878885180    0.0196695990    0.0003352177    
0.0881111790    0.0195108840    0.0003334342    
0.0883338400    0.0198676870    0.0003315428    
0.0885565010    0.0196258310    0.0003339871    
0.0887791620    0.0197735200    0.0003308941    
0.0890018230    0.0190750920    0.0003281501    
0.0892244840    0.0193099350    0.0003307252    
0.0894471450    0.0194279820    0.0003303333    
0.0896698060    0.0189695290    0.0003251813    
0.0898924670    0.0194833660    0.0003310837    
0.0901151280    0.0197914410    0.0003300867    
0.0903377890    0.0198666040    0.0003334806    
0.0905604500    0.0189858130    0.0003245083    
0.0907831110    0.0195316660    0.0003283213    
0.0910057720    0.0193604430    0.0003283790    
0.0912284330    0.0201087490    0.0003298733    
0.0914510940    0.0192927250    0.0003267139    
0.0916737550    0.0201935550    0.0003334250    
0.0918964160    0.0195791460    0.0003296788    
0.0921190770    0.0197554630    0.0003281657    
0.0923417380    0.0190624260    0.0003224903    
0.0925643990    0.0191375450    0.0003223344    
0.0927870600    0.0191963010    0.0003241527    
0.0930097210    0.0192688930    0.0003219991    
0.0932323820    0.0190836380    0.0003228030    
