# Diamond Light Source Ltd.
# Data extracted from: /dls/b21/data/2018/cm19678-3/processed/b21-386631_00186.dat
q(1/A)          Column          Error           
0.0035000000    2.1157238000    0.0247541980    
0.0037226610    1.9254270000    0.0231175190    
0.0039453220    1.6311284000    0.0193565700    
0.0041679830    1.3104403000    0.0142481260    
0.0043906440    0.9724253600    0.0117398500    
0.0046133050    0.7763818500    0.0100701510    
0.0048359660    0.6024494400    0.0083908560    
0.0050586270    0.4613315700    0.0072171211    
0.0052812880    0.4199722900    0.0065106115    
0.0055039490    0.3793360000    0.0058834769    
0.0057266100    0.3315338500    0.0053210839    
0.0059492710    0.2688481900    0.0047917015    
0.0061719320    0.2258539800    0.0042321178    
0.0063945930    0.1994365400    0.0040251214    
0.0066172539    0.1851589600    0.0036417863    
0.0068399149    0.1706990300    0.0034416247    
0.0070625759    0.1447160900    0.0031363823    
0.0072852369    0.1245884800    0.0028665657    
0.0075078979    0.1144198300    0.0027335954    
0.0077305589    0.1031264600    0.0025457505    
0.0079532199    0.0979046880    0.0024460889    
0.0081758809    0.0943806480    0.0024240041    
0.0083985419    0.0850821930    0.0021465973    
0.0086212029    0.0775000870    0.0020487189    
0.0088438639    0.0697052470    0.0019273545    
0.0090665249    0.0644767270    0.0017903296    
0.0092891859    0.0644480410    0.0018682554    
0.0095118469    0.0602033660    0.0017364750    
0.0097345079    0.0553702540    0.0016173824    
0.0099571689    0.0568261590    0.0016047210    
0.0101798300    0.0517961010    0.0015320536    
0.0104024910    0.0491056300    0.0014866848    
0.0106251520    0.0495756390    0.0014988551    
0.0108478130    0.0443093500    0.0013799586    
0.0110704740    0.0428514060    0.0012920185    
0.0112931350    0.0416928220    0.0012781755    
0.0115157960    0.0421375350    0.0012774817    
0.0117384570    0.0403112880    0.0012387358    
0.0119611180    0.0389733190    0.0012215001    
0.0121837790    0.0370450780    0.0011708829    
0.0124064400    0.0364000880    0.0011122635    
0.0126291010    0.0360248870    0.0010926671    
0.0128517620    0.0339068170    0.0010627060    
0.0130744230    0.0343901910    0.0010623165    
0.0132970840    0.0344121290    0.0010574591    
0.0135197450    0.0323601820    0.0010107623    
0.0137424060    0.0296235590    0.0009536161    
0.0139650670    0.0309890180    0.0009536211    
0.0141877280    0.0291512860    0.0009269570    
0.0144103890    0.0284678140    0.0009002313    
0.0146330500    0.0291755530    0.0009055667    
0.0148557110    0.0284575850    0.0008906051    
0.0150783720    0.0287567320    0.0008878749    
0.0153010330    0.0270722360    0.0008493316    
0.0155236940    0.0270935190    0.0008446129    
0.0157463550    0.0274595330    0.0008355670    
0.0159690160    0.0277561710    0.0008368801    
0.0161916770    0.0276938060    0.0008312299    
0.0164143380    0.0251008800    0.0007973557    
0.0166369990    0.0252422770    0.0007749449    
0.0168596600    0.0255473940    0.0007727456    
0.0170823210    0.0250150470    0.0007580317    
0.0173049820    0.0239260540    0.0007426299    
0.0175276430    0.0247628710    0.0007634720    
0.0177503040    0.0224657870    0.0007086611    
0.0179729650    0.0248710570    0.0007382379    
0.0181956260    0.0232520120    0.0007001205    
0.0184182870    0.0242027660    0.0007109242    
0.0186409480    0.0231143670    0.0006991525    
0.0188636090    0.0246621970    0.0007176403    
0.0190862700    0.0230862960    0.0006932478    
0.0193089310    0.0235331930    0.0006988345    
0.0195315920    0.0225019760    0.0006601120    
0.0197542530    0.0241989800    0.0006855483    
0.0199769140    0.0222762760    0.0006577500    
0.0201995750    0.0222803440    0.0006475093    
0.0204222360    0.0226644960    0.0006586735    
0.0206448970    0.0232492940    0.0006623757    
0.0208675580    0.0223016410    0.0006353769    
0.0210902190    0.0233061340    0.0006557957    
0.0213128800    0.0216365190    0.0006232953    
0.0215355410    0.0222986170    0.0006252222    
0.0217582020    0.0218954270    0.0006195441    
0.0219808630    0.0212959520    0.0006102017    
0.0222035240    0.0211864580    0.0006031159    
0.0224261850    0.0217891610    0.0006061907    
0.0226488460    0.0212637990    0.0005943413    
0.0228715070    0.0219682460    0.0006026052    
0.0230941680    0.0223153830    0.0006073478    
0.0233168290    0.0207322290    0.0005868657    
0.0235394900    0.0206995800    0.0005799317    
0.0237621510    0.0210770020    0.0005694407    
0.0239848120    0.0215575680    0.0005765622    
0.0242074730    0.0217145910    0.0005740263    
0.0244301340    0.0212318590    0.0005682577    
0.0246527950    0.0212240870    0.0005734146    
0.0248754560    0.0211838170    0.0005599953    
0.0250981170    0.0209661350    0.0005583530    
0.0253207780    0.0216921310    0.0005509807    
0.0255434390    0.0212856280    0.0005516189    
0.0257661000    0.0211214120    0.0005512644    
0.0259887610    0.0214072330    0.0005490839    
0.0262114220    0.0209527120    0.0005461178    
0.0264340830    0.0202063880    0.0005290066    
0.0266567440    0.0207508220    0.0005327734    
0.0268794050    0.0209888050    0.0005336328    
0.0271020660    0.0199040780    0.0005175568    
0.0273247270    0.0208092260    0.0005260158    
0.0275473880    0.0202629640    0.0005180328    
0.0277700490    0.0213328830    0.0005283914    
0.0279927100    0.0195218950    0.0005010558    
0.0282153710    0.0202965300    0.0005133840    
0.0284380320    0.0209475480    0.0005185291    
0.0286606930    0.0208175990    0.0005124939    
0.0288833540    0.0204281690    0.0005086421    
0.0291060150    0.0198332270    0.0005007050    
0.0293286760    0.0199849250    0.0004956125    
0.0295513370    0.0217164830    0.0005110114    
0.0297739980    0.0209927970    0.0005079563    
0.0299966590    0.0198662110    0.0004856988    
0.0302193200    0.0190437800    0.0004824690    
0.0304419810    0.0205002450    0.0005014999    
0.0306646420    0.0203325540    0.0004853482    
0.0308873030    0.0202836270    0.0004826700    
0.0311099640    0.0201581920    0.0004824246    
0.0313326250    0.0211705750    0.0004889135    
0.0315552860    0.0207960210    0.0004908491    
0.0317779470    0.0199850450    0.0004816023    
0.0320006080    0.0202621640    0.0004739120    
0.0322232690    0.0202421460    0.0004756608    
0.0324459300    0.0207778750    0.0004783163    
0.0326685910    0.0203362840    0.0004724261    
0.0328912520    0.0203938630    0.0004746611    
0.0331139130    0.0201034960    0.0004651394    
0.0333365740    0.0211441550    0.0004785755    
0.0335592350    0.0197726430    0.0004583440    
0.0337818960    0.0207807370    0.0004695088    
0.0340045570    0.0202918120    0.0004632158    
0.0342272170    0.0199537010    0.0004575285    
0.0344498780    0.0194776250    0.0004538279    
0.0346725390    0.0193842160    0.0004443537    
0.0348952000    0.0197732460    0.0004467461    
0.0351178610    0.0207084390    0.0004592812    
0.0353405220    0.0198237390    0.0004473164    
0.0355631830    0.0198049300    0.0004454203    
0.0357858440    0.0195044120    0.0004420281    
0.0360085050    0.0194612020    0.0004428723    
0.0362311660    0.0192669570    0.0004354184    
0.0364538270    0.0201305410    0.0004414974    
0.0366764880    0.0204300750    0.0004444472    
0.0368991490    0.0201384690    0.0004390395    
0.0371218100    0.0195285310    0.0004311029    
0.0373444710    0.0197227700    0.0004379595    
0.0375671320    0.0196944570    0.0004370077    
0.0377897930    0.0198105520    0.0004269476    
0.0380124540    0.0203208110    0.0004351242    
0.0382351150    0.0196965720    0.0004283888    
0.0384577760    0.0194188450    0.0004212539    
0.0386804370    0.0201246070    0.0004321133    
0.0389030980    0.0195468080    0.0004226399    
0.0391257590    0.0198592550    0.0004231124    
0.0393484200    0.0200839690    0.0004240674    
0.0395710810    0.0201111830    0.0004249263    
0.0397937420    0.0199585680    0.0004233111    
0.0400164030    0.0197954360    0.0004232926    
0.0402390640    0.0200031540    0.0004198417    
0.0404617250    0.0198723370    0.0004159979    
0.0406843860    0.0205065500    0.0004185010    
0.0409070470    0.0200204530    0.0004178188    
0.0411297080    0.0190448890    0.0004035695    
0.0413523690    0.0197191280    0.0004117096    
0.0415750300    0.0196796260    0.0004147908    
0.0417976910    0.0196952640    0.0004042234    
0.0420203520    0.0194674080    0.0004033884    
0.0422430130    0.0200867270    0.0004113059    
0.0424656740    0.0192144730    0.0003970407    
0.0426883350    0.0194471060    0.0004014195    
0.0429109960    0.0206277180    0.0004147165    
0.0431336570    0.0197101690    0.0003996765    
0.0433563180    0.0198703090    0.0004047586    
0.0435789790    0.0194425760    0.0003940883    
0.0438016400    0.0200988200    0.0004028637    
0.0440243010    0.0195268870    0.0003930614    
0.0442469620    0.0199938070    0.0004001163    
0.0444696230    0.0204548550    0.0004032520    
0.0446922840    0.0200411500    0.0003979679    
0.0449149450    0.0196242870    0.0003885426    
0.0451376060    0.0200095160    0.0003971831    
0.0453602670    0.0190440960    0.0003834209    
0.0455829280    0.0203786820    0.0003961696    
0.0458055890    0.0201651230    0.0003963864    
0.0460282500    0.0195904680    0.0003859863    
0.0462509110    0.0194677070    0.0003823819    
0.0464735720    0.0197227900    0.0003850962    
0.0466962330    0.0194320770    0.0003839851    
0.0469188940    0.0199935390    0.0003883888    
0.0471415550    0.0199860110    0.0003903101    
0.0473642160    0.0190671300    0.0003758940    
0.0475868770    0.0197292490    0.0003804654    
0.0478095380    0.0190696700    0.0003724147    
0.0480321990    0.0199641640    0.0003818839    
0.0482548600    0.0192764450    0.0003736138    
0.0484775210    0.0198088530    0.0003824987    
0.0487001820    0.0199717880    0.0003784464    
0.0489228430    0.0196709540    0.0003753835    
0.0491455040    0.0195128270    0.0003712858    
0.0493681650    0.0193609400    0.0003730162    
0.0495908260    0.0192498300    0.0003656863    
0.0498134870    0.0193915160    0.0003705235    
0.0500361480    0.0195848200    0.0003713805    
0.0502588090    0.0192551320    0.0003627238    
0.0504814700    0.0197688770    0.0003723355    
0.0507041310    0.0194659200    0.0003650787    
0.0509267920    0.0197584840    0.0003693336    
0.0511494530    0.0196934100    0.0003662662    
0.0513721140    0.0190781880    0.0003636745    
0.0515947750    0.0191898770    0.0003599016    
0.0518174360    0.0198329980    0.0003636787    
0.0520400970    0.0195852240    0.0003588940    
0.0522627580    0.0196787280    0.0003628070    
0.0524854190    0.0195445590    0.0003645079    
0.0527080800    0.0203868740    0.0003751621    
0.0529307410    0.0202373490    0.0003755392    
0.0531534020    0.0202908900    0.0003746667    
0.0533760630    0.0192416280    0.0003659930    
0.0535987240    0.0201313600    0.0003726113    
0.0538213850    0.0189914560    0.0003661014    
0.0540440460    0.0199096700    0.0003730732    
0.0542667070    0.0197527020    0.0003741606    
0.0544893680    0.0196034760    0.0003729432    
0.0547120290    0.0191608480    0.0003661829    
0.0549346900    0.0193981850    0.0003686376    
0.0551573510    0.0201014070    0.0003796775    
0.0553800120    0.0201699840    0.0003770914    
0.0556026730    0.0199573230    0.0003828754    
0.0558253340    0.0194414950    0.0003810593    
0.0560479950    0.0200464950    0.0003869432    
0.0562706560    0.0190806970    0.0003811568    
0.0564933170    0.0193592910    0.0003872633    
0.0567159780    0.0199338680    0.0003882566    
0.0569386390    0.0203534830    0.0003984756    
0.0571613000    0.0207187990    0.0003933792    
0.0573839610    0.0196342850    0.0003797656    
0.0576066220    0.0193812220    0.0003783548    
0.0578292830    0.0199575560    0.0003826687    
0.0580519440    0.0194988990    0.0003797126    
0.0582746050    0.0201481910    0.0003842808    
0.0584972660    0.0199360540    0.0003807893    
0.0587199270    0.0190648420    0.0003691660    
0.0589425880    0.0196478870    0.0003725764    
0.0591652490    0.0190505850    0.0003690283    
0.0593879100    0.0195292790    0.0003708611    
0.0596105710    0.0196848770    0.0003719428    
0.0598332320    0.0191721690    0.0003702047    
0.0600558930    0.0195636590    0.0003715810    
0.0602785540    0.0201209470    0.0003764379    
0.0605012150    0.0197417010    0.0003720877    
0.0607238760    0.0193513490    0.0003657061    
0.0609465370    0.0205558560    0.0003798832    
0.0611691980    0.0192618230    0.0003683144    
0.0613918590    0.0200630320    0.0003717927    
0.0616145200    0.0192532110    0.0003668776    
0.0618371810    0.0194457940    0.0003650867    
0.0620598420    0.0195477270    0.0003664197    
0.0622825030    0.0192439140    0.0003691209    
0.0625051640    0.0192853190    0.0003643282    
0.0627278250    0.0190551800    0.0003614021    
0.0629504860    0.0195355910    0.0003629546    
0.0631731470    0.0202846060    0.0003744230    
0.0633958080    0.0193302840    0.0003676128    
0.0636184690    0.0192974990    0.0003724165    
0.0638411300    0.0197306900    0.0003751597    
0.0640637910    0.0194087920    0.0003747039    
0.0642864520    0.0198362770    0.0003779882    
0.0645091130    0.0193645490    0.0003767394    
0.0647317740    0.0194733830    0.0003782131    
0.0649544350    0.0192253330    0.0003753831    
0.0651770960    0.0190669050    0.0003717940    
0.0653997570    0.0200598330    0.0003805249    
0.0656224180    0.0192264440    0.0003733466    
0.0658450790    0.0198257090    0.0003736711    
0.0660677400    0.0187660100    0.0003650947    
0.0662904010    0.0188021520    0.0003698088    
0.0665130620    0.0191297060    0.0003713981    
0.0667357230    0.0204583540    0.0003909081    
0.0669583840    0.0193571660    0.0003789699    
0.0671810450    0.0197383560    0.0003805703    
0.0674037060    0.0189710150    0.0003794203    
0.0676263670    0.0189933510    0.0003768641    
0.0678490280    0.0190055030    0.0003746791    
0.0680716890    0.0196763170    0.0003820824    
0.0682943500    0.0201839180    0.0003827410    
0.0685170110    0.0186440730    0.0003641032    
0.0687396720    0.0192524250    0.0003690128    
0.0689623330    0.0194257790    0.0003694957    
0.0691849940    0.0198882930    0.0003764589    
0.0694076550    0.0192050710    0.0003697387    
0.0696303160    0.0195116960    0.0003697281    
0.0698529770    0.0199392920    0.0003729741    
0.0700756380    0.0192199020    0.0003614833    
0.0702982990    0.0202035540    0.0003746542    
0.0705209600    0.0195431090    0.0003658193    
0.0707436210    0.0196829100    0.0003654395    
0.0709662820    0.0193838130    0.0003669755    
0.0711889430    0.0189309140    0.0003582087    
0.0714116040    0.0195663520    0.0003649143    
0.0716342650    0.0198128160    0.0003657145    
0.0718569260    0.0191379300    0.0003579842    
0.0720795870    0.0190028010    0.0003581611    
0.0723022480    0.0198394420    0.0003665183    
0.0725249090    0.0196975950    0.0003608320    
0.0727475700    0.0197800350    0.0003646748    
0.0729702310    0.0192342020    0.0003567399    
0.0731928920    0.0202219430    0.0003672470    
0.0734155530    0.0195766750    0.0003606192    
0.0736382140    0.0194049070    0.0003567295    
0.0738608750    0.0189323620    0.0003546356    
0.0740835360    0.0190037260    0.0003544213    
0.0743061970    0.0196288320    0.0003551312    
0.0745288580    0.0190967850    0.0003538870    
0.0747515190    0.0191788760    0.0003553472    
0.0749741800    0.0190128730    0.0003505310    
0.0751968410    0.0197327340    0.0003599091    
0.0754195020    0.0204623800    0.0003643555    
0.0756421630    0.0199888010    0.0003571707    
0.0758648240    0.0193218920    0.0003520060    
0.0760874850    0.0191880190    0.0003506160    
0.0763101460    0.0194837250    0.0003529683    
0.0765328070    0.0190687530    0.0003527623    
0.0767554680    0.0195576120    0.0003548313    
0.0769781290    0.0198616850    0.0003555242    
0.0772007900    0.0193377200    0.0003479899    
0.0774234510    0.0197546730    0.0003537221    
0.0776461120    0.0200838700    0.0003563189    
0.0778687730    0.0188775220    0.0003443107    
0.0780914340    0.0193712100    0.0003512760    
0.0783140950    0.0199089260    0.0003504680    
0.0785367560    0.0196833950    0.0003540958    
0.0787594170    0.0194010830    0.0003483975    
0.0789820780    0.0197415150    0.0003496402    
0.0792047390    0.0192786780    0.0003466469    
0.0794274000    0.0188640870    0.0003443521    
0.0796500610    0.0195146820    0.0003468215    
0.0798727220    0.0194294520    0.0003457439    
0.0800953830    0.0190401040    0.0003414750    
0.0803180440    0.0198589760    0.0003511702    
0.0805407050    0.0197414800    0.0003498042    
0.0807633660    0.0199213850    0.0003510683    
0.0809860270    0.0194797520    0.0003458731    
0.0812086880    0.0193135230    0.0003414181    
0.0814313490    0.0193865510    0.0003436230    
0.0816540100    0.0201775060    0.0003497646    
0.0818766710    0.0198494980    0.0003477021    
0.0820993320    0.0199592710    0.0003480268    
0.0823219930    0.0200079980    0.0003498886    
0.0825446540    0.0192298820    0.0003405253    
0.0827673150    0.0199004610    0.0003440845    
0.0829899760    0.0196518250    0.0003413195    
0.0832126370    0.0195531190    0.0003419862    
0.0834352980    0.0197932850    0.0003433107    
0.0836579590    0.0196341280    0.0003411666    
0.0838806200    0.0194648990    0.0003407561    
0.0841032810    0.0200075530    0.0003433287    
0.0843259420    0.0196385920    0.0003391008    
0.0845486030    0.0197381610    0.0003399596    
0.0847712640    0.0190934270    0.0003323236    
0.0849939250    0.0196475450    0.0003376984    
0.0852165860    0.0196932330    0.0003385337    
0.0854392470    0.0195960820    0.0003344996    
0.0856619080    0.0197293490    0.0003381070    
0.0858845690    0.0189715510    0.0003285641    
0.0861072300    0.0194363110    0.0003348600    
0.0863298910    0.0192498040    0.0003349946    
0.0865525520    0.0191708930    0.0003314205    
0.0867752130    0.0191164440    0.0003282791    
0.0869978740    0.0193046660    0.0003307320    
0.0872205350    0.0187977810    0.0003259459    
0.0874431960    0.0199112100    0.0003354605    
0.0876658570    0.0193468020    0.0003319414    
0.0878885180    0.0197218010    0.0003357176    
0.0881111790    0.0191240050    0.0003301662    
0.0883338400    0.0196694610    0.0003299391    
0.0885565010    0.0199165790    0.0003365074    
0.0887791620    0.0196526390    0.0003299355    
0.0890018230    0.0192394970    0.0003296155    
0.0892244840    0.0191576450    0.0003294728    
0.0894471450    0.0193725830    0.0003299164    
0.0896698060    0.0195724350    0.0003303629    
0.0898924670    0.0196755130    0.0003327671    
0.0901151280    0.0200237560    0.0003320730    
0.0903377890    0.0200635410    0.0003351847    
0.0905604500    0.0192417480    0.0003267420    
0.0907831110    0.0195491460    0.0003285223    
0.0910057720    0.0189043830    0.0003245418    
0.0912284330    0.0190543940    0.0003211618    
0.0914510940    0.0197031090    0.0003302249    
0.0916737550    0.0186306740    0.0003203152    
0.0918964160    0.0191857800    0.0003264040    
0.0921190770    0.0194020710    0.0003252708    
0.0923417380    0.0191778610    0.0003235186    
0.0925643990    0.0198607290    0.0003284224    
0.0927870600    0.0194490270    0.0003263333    
0.0930097210    0.0196035860    0.0003248370    
0.0932323820    0.0193084110    0.0003247520    
