# Diamond Light Source Ltd.
# Data extracted from: /dls/b21/data/2018/cm19678-3/processed/b21-386631_00201.dat
q(1/A)          Column          Error           
0.0035000000    2.0922395000    0.0246282210    
0.0037226610    1.9125472000    0.0230511040    
0.0039453220    1.6255637000    0.0193327790    
0.0041679830    1.2938634000    0.0141645010    
0.0043906440    0.9553398400    0.0116418320    
0.0046133050    0.7682353500    0.0100219770    
0.0048359660    0.5968267900    0.0083556085    
0.0050586270    0.4582701700    0.0071965801    
0.0052812880    0.4344174900    0.0066248046    
0.0055039490    0.3800648300    0.0058919469    
0.0057266100    0.3291160000    0.0053041846    
0.0059492710    0.2734655100    0.0048349884    
0.0061719320    0.2205932500    0.0041845422    
0.0063945930    0.2032867900    0.0040657358    
0.0066172539    0.1849778900    0.0036417486    
0.0068399149    0.1681537900    0.0034175059    
0.0070625759    0.1471680800    0.0031643561    
0.0072852369    0.1253020200    0.0028761395    
0.0075078979    0.1107379600    0.0026905422    
0.0077305589    0.1007091200    0.0025169416    
0.0079532199    0.0956739370    0.0024192195    
0.0081758809    0.0912306470    0.0023843512    
0.0083985419    0.0788211590    0.0020670958    
0.0086212029    0.0751891090    0.0020189088    
0.0088438639    0.0748395760    0.0019980322    
0.0090665249    0.0626973920    0.0017662989    
0.0092891859    0.0642387430    0.0018661127    
0.0095118469    0.0628680170    0.0017753378    
0.0097345079    0.0556597550    0.0016223818    
0.0099571689    0.0576063560    0.0016164733    
0.0101798300    0.0500767160    0.0015071320    
0.0104024910    0.0464044560    0.0014459094    
0.0106251520    0.0458583130    0.0014422565    
0.0108478130    0.0468898820    0.0014202536    
0.0110704740    0.0412157590    0.0012677272    
0.0112931350    0.0427917790    0.0012955315    
0.0115157960    0.0394642570    0.0012368870    
0.0117384570    0.0385210220    0.0012114967    
0.0119611180    0.0393555490    0.0012280633    
0.0121837790    0.0356358760    0.0011489467    
0.0124064400    0.0356865350    0.0011018352    
0.0126291010    0.0346329520    0.0010718629    
0.0128517620    0.0356062650    0.0010895340    
0.0130744230    0.0349158400    0.0010709171    
0.0132970840    0.0325260630    0.0010285644    
0.0135197450    0.0324227890    0.0010122241    
0.0137424060    0.0290681220    0.0009450862    
0.0139650670    0.0304899830    0.0009463646    
0.0141877280    0.0294742550    0.0009325242    
0.0144103890    0.0300053300    0.0009246646    
0.0146330500    0.0290347010    0.0009038108    
0.0148557110    0.0278152760    0.0008809186    
0.0150783720    0.0270007030    0.0008607510    
0.0153010330    0.0269914900    0.0008484702    
0.0155236940    0.0265923750    0.0008371659    
0.0157463550    0.0263151500    0.0008183622    
0.0159690160    0.0276564810    0.0008357759    
0.0161916770    0.0270210890    0.0008214653    
0.0164143380    0.0255305810    0.0008045369    
0.0166369990    0.0240519580    0.0007568150    
0.0168596600    0.0248465950    0.0007624382    
0.0170823210    0.0263725900    0.0007787016    
0.0173049820    0.0255409630    0.0007676504    
0.0175276430    0.0259646690    0.0007821535    
0.0177503040    0.0241654700    0.0007353318    
0.0179729650    0.0239078660    0.0007241484    
0.0181956260    0.0235275020    0.0007045931    
0.0184182870    0.0256055190    0.0007315863    
0.0186409480    0.0238562230    0.0007106238    
0.0188636090    0.0227000920    0.0006888310    
0.0190862700    0.0241919490    0.0007099941    
0.0193089310    0.0236803750    0.0007013522    
0.0195315920    0.0229499720    0.0006669700    
0.0197542530    0.0236778480    0.0006784511    
0.0199769140    0.0225697790    0.0006623861    
0.0201995750    0.0216801080    0.0006390337    
0.0204222360    0.0216515370    0.0006440944    
0.0206448970    0.0216848720    0.0006400088    
0.0208675580    0.0215438780    0.0006247884    
0.0210902190    0.0218138690    0.0006347574    
0.0213128800    0.0218549510    0.0006267337    
0.0215355410    0.0213548890    0.0006121418    
0.0217582020    0.0221094250    0.0006228625    
0.0219808630    0.0217538850    0.0006170229    
0.0222035240    0.0201068930    0.0005878304    
0.0224261850    0.0219450850    0.0006086471    
0.0226488460    0.0216832520    0.0006004621    
0.0228715070    0.0205498150    0.0005831055    
0.0230941680    0.0219231210    0.0006022744    
0.0233168290    0.0210015180    0.0005909477    
0.0235394900    0.0219066330    0.0005968866    
0.0237621510    0.0205274180    0.0005622368    
0.0239848120    0.0208527760    0.0005673306    
0.0242074730    0.0211582160    0.0005668961    
0.0244301340    0.0209172830    0.0005643024    
0.0246527950    0.0215235470    0.0005777223    
0.0248754560    0.0213522910    0.0005624870    
0.0250981170    0.0214327400    0.0005648023    
0.0253207780    0.0215588240    0.0005495482    
0.0255434390    0.0222217950    0.0005638887    
0.0257661000    0.0206375910    0.0005451750    
0.0259887610    0.0204973290    0.0005375453    
0.0262114220    0.0205026100    0.0005404789    
0.0264340830    0.0204891410    0.0005329501    
0.0266567440    0.0208665480    0.0005345128    
0.0268794050    0.0206150830    0.0005291139    
0.0271020660    0.0215665740    0.0005389959    
0.0273247270    0.0204298830    0.0005214488    
0.0275473880    0.0209584580    0.0005271005    
0.0277700490    0.0203446080    0.0005162542    
0.0279927100    0.0222309720    0.0005349489    
0.0282153710    0.0207059190    0.0005187841    
0.0284380320    0.0217513350    0.0005286369    
0.0286606930    0.0210143480    0.0005151566    
0.0288833540    0.0202322370    0.0005064394    
0.0291060150    0.0200673280    0.0005038926    
0.0293286760    0.0209882840    0.0005081447    
0.0295513370    0.0201605550    0.0004926007    
0.0297739980    0.0206684380    0.0005042583    
0.0299966590    0.0206102910    0.0004949480    
0.0302193200    0.0205424540    0.0005013338    
0.0304419810    0.0203111270    0.0004994204    
0.0306646420    0.0213725370    0.0004978441    
0.0308873030    0.0202915650    0.0004829956    
0.0311099640    0.0202352880    0.0004835778    
0.0313326250    0.0198233430    0.0004733279    
0.0315552860    0.0205028380    0.0004876103    
0.0317779470    0.0198647910    0.0004803811    
0.0320006080    0.0203592430    0.0004752735    
0.0322232690    0.0206754990    0.0004809556    
0.0324459300    0.0206655250    0.0004772498    
0.0326685910    0.0199383280    0.0004680049    
0.0328912520    0.0203912870    0.0004748585    
0.0331139130    0.0214262140    0.0004804277    
0.0333365740    0.0194838380    0.0004596217    
0.0335592350    0.0201744450    0.0004631993    
0.0337818960    0.0203228380    0.0004645296    
0.0340045570    0.0197079500    0.0004567217    
0.0342272170    0.0189962310    0.0004466303    
0.0344498780    0.0202901110    0.0004634185    
0.0346725390    0.0200349340    0.0004519669    
0.0348952000    0.0201053910    0.0004506984    
0.0351178610    0.0206773020    0.0004591556    
0.0353405220    0.0193072620    0.0004416623    
0.0355631830    0.0203052150    0.0004512270    
0.0357858440    0.0198840820    0.0004465234    
0.0360085050    0.0193991450    0.0004423774    
0.0362311660    0.0203491690    0.0004476943    
0.0364538270    0.0202661340    0.0004431940    
0.0366764880    0.0193850680    0.0004331386    
0.0368991490    0.0199757320    0.0004374714    
0.0371218100    0.0199187540    0.0004355973    
0.0373444710    0.0205983080    0.0004477893    
0.0375671320    0.0198686260    0.0004391460    
0.0377897930    0.0193321830    0.0004219633    
0.0380124540    0.0198926270    0.0004307217    
0.0382351150    0.0198180310    0.0004299135    
0.0384577760    0.0198582150    0.0004261969    
0.0386804370    0.0196609560    0.0004273111    
0.0389030980    0.0200777720    0.0004285468    
0.0391257590    0.0204647960    0.0004297203    
0.0393484200    0.0211697670    0.0004355882    
0.0395710810    0.0194115080    0.0004176692    
0.0397937420    0.0199237700    0.0004231445    
0.0400164030    0.0204486090    0.0004304255    
0.0402390640    0.0194666350    0.0004143713    
0.0404617250    0.0196908950    0.0004142928    
0.0406843860    0.0202355320    0.0004159254    
0.0409070470    0.0195595920    0.0004131796    
0.0411297080    0.0199105780    0.0004128374    
0.0413523690    0.0195745420    0.0004103939    
0.0415750300    0.0199697630    0.0004180374    
0.0417976910    0.0192740130    0.0004000687    
0.0420203520    0.0201302970    0.0004103953    
0.0422430130    0.0203167280    0.0004138522    
0.0424656740    0.0197009770    0.0004022283    
0.0426883350    0.0194989150    0.0004021463    
0.0429109960    0.0193622310    0.0004019864    
0.0431336570    0.0200941070    0.0004037436    
0.0433563180    0.0201947030    0.0004082446    
0.0435789790    0.0199569290    0.0003994583    
0.0438016400    0.0196573580    0.0003986056    
0.0440243010    0.0200207730    0.0003981918    
0.0442469620    0.0198446540    0.0003988120    
0.0444696230    0.0197105410    0.0003960368    
0.0446922840    0.0194670850    0.0003924146    
0.0449149450    0.0191502800    0.0003840053    
0.0451376060    0.0203127830    0.0004003733    
0.0453602670    0.0198118560    0.0003912606    
0.0455829280    0.0191570480    0.0003842956    
0.0458055890    0.0191315470    0.0003862792    
0.0460282500    0.0194189320    0.0003844768    
0.0462509110    0.0198622550    0.0003864223    
0.0464735720    0.0193427900    0.0003815510    
0.0466962330    0.0196861390    0.0003866723    
0.0469188940    0.0194387470    0.0003831457    
0.0471415550    0.0195015990    0.0003857357    
0.0473642160    0.0198494090    0.0003837112    
0.0475868770    0.0197187760    0.0003805466    
0.0478095380    0.0192845000    0.0003746859    
0.0480321990    0.0194933990    0.0003775352    
0.0482548600    0.0200487350    0.0003812070    
0.0484775210    0.0194212220    0.0003789191    
0.0487001820    0.0196607330    0.0003756676    
0.0489228430    0.0197113130    0.0003759483    
0.0491455040    0.0193759500    0.0003701585    
0.0493681650    0.0190270060    0.0003699624    
0.0495908260    0.0203460740    0.0003761348    
0.0498134870    0.0197006460    0.0003736440    
0.0500361480    0.0202309570    0.0003776378    
0.0502588090    0.0195813570    0.0003659587    
0.0504814700    0.0191209710    0.0003663586    
0.0507041310    0.0197929800    0.0003683092    
0.0509267920    0.0193420640    0.0003655959    
0.0511494530    0.0205305000    0.0003741486    
0.0513721140    0.0199569190    0.0003721338    
0.0515947750    0.0189988170    0.0003582770    
0.0518174360    0.0204193910    0.0003691927    
0.0520400970    0.0200911270    0.0003636738    
0.0522627580    0.0200725210    0.0003665946    
0.0524854190    0.0190189160    0.0003597451    
0.0527080800    0.0199917830    0.0003716870    
0.0529307410    0.0192034450    0.0003659958    
0.0531534020    0.0199017700    0.0003712345    
0.0533760630    0.0194412380    0.0003680627    
0.0535987240    0.0197502590    0.0003692443    
0.0538213850    0.0202034960    0.0003777840    
0.0540440460    0.0201036830    0.0003750661    
0.0542667070    0.0195304240    0.0003722276    
0.0544893680    0.0197571940    0.0003745818    
0.0547120290    0.0197746170    0.0003721797    
0.0549346900    0.0201600640    0.0003759871    
0.0551573510    0.0203360150    0.0003820697    
0.0553800120    0.0194695230    0.0003706632    
0.0556026730    0.0191235680    0.0003749719    
0.0558253340    0.0199236380    0.0003859402    
0.0560479950    0.0194601430    0.0003814248    
0.0562706560    0.0194876660    0.0003853847    
0.0564933170    0.0201532640    0.0003953141    
0.0567159780    0.0199226900    0.0003883337    
0.0569386390    0.0195530680    0.0003907489    
0.0571613000    0.0197817120    0.0003845643    
0.0573839610    0.0189325580    0.0003730961    
0.0576066220    0.0195254770    0.0003799421    
0.0578292830    0.0196168050    0.0003795695    
0.0580519440    0.0203169370    0.0003877815    
0.0582746050    0.0198813800    0.0003819107    
0.0584972660    0.0197294680    0.0003789926    
0.0587199270    0.0193406980    0.0003720053    
0.0589425880    0.0203738940    0.0003795792    
0.0591652490    0.0182459800    0.0003613242    
0.0593879100    0.0194492990    0.0003702782    
0.0596105710    0.0199780850    0.0003748821    
0.0598332320    0.0198416720    0.0003767934    
0.0600558930    0.0196459830    0.0003725403    
0.0602785540    0.0186316470    0.0003624121    
0.0605012150    0.0201045850    0.0003756718    
0.0607238760    0.0193214660    0.0003655987    
0.0609465370    0.0195144500    0.0003703125    
0.0611691980    0.0193366740    0.0003692061    
0.0613918590    0.0193305500    0.0003651175    
0.0616145200    0.0194605960    0.0003690249    
0.0618371810    0.0194781480    0.0003655653    
0.0620598420    0.0191333270    0.0003626886    
0.0622825030    0.0200206560    0.0003766770    
0.0625051640    0.0197516010    0.0003688828    
0.0627278250    0.0198350030    0.0003688996    
0.0629504860    0.0192775660    0.0003607224    
0.0631731470    0.0200065720    0.0003720262    
0.0633958080    0.0198036600    0.0003722650    
0.0636184690    0.0198915130    0.0003782860    
0.0638411300    0.0196853340    0.0003749077    
0.0640637910    0.0194997980    0.0003757612    
0.0642864520    0.0201580870    0.0003812244    
0.0645091130    0.0201314290    0.0003843108    
0.0647317740    0.0196685060    0.0003802853    
0.0649544350    0.0197573120    0.0003807235    
0.0651770960    0.0195278340    0.0003764413    
0.0653997570    0.0195299320    0.0003756451    
0.0656224180    0.0198762020    0.0003797846    
0.0658450790    0.0197319110    0.0003729647    
0.0660677400    0.0199144430    0.0003762804    
0.0662904010    0.0198976860    0.0003806122    
0.0665130620    0.0195377800    0.0003755183    
0.0667357230    0.0194985440    0.0003818110    
0.0669583840    0.0201109360    0.0003864630    
0.0671810450    0.0202273300    0.0003854398    
0.0674037060    0.0195968460    0.0003858125    
0.0676263670    0.0205234920    0.0003919381    
0.0678490280    0.0196299880    0.0003809674    
0.0680716890    0.0199476730    0.0003848923    
0.0682943500    0.0194695180    0.0003760866    
0.0685170110    0.0196797310    0.0003742584    
0.0687396720    0.0195257400    0.0003718008    
0.0689623330    0.0197609620    0.0003728483    
0.0691849940    0.0190728240    0.0003688368    
0.0694076550    0.0196367270    0.0003740499    
0.0696303160    0.0199651800    0.0003741791    
0.0698529770    0.0202447140    0.0003759997    
0.0700756380    0.0194152530    0.0003634897    
0.0702982990    0.0197847950    0.0003709287    
0.0705209600    0.0199525220    0.0003698083    
0.0707436210    0.0193146610    0.0003621782    
0.0709662820    0.0194649740    0.0003679191    
0.0711889430    0.0201024140    0.0003693026    
0.0714116040    0.0196600340    0.0003659621    
0.0716342650    0.0200480240    0.0003680551    
0.0718569260    0.0197863190    0.0003641722    
0.0720795870    0.0188993820    0.0003573562    
0.0723022480    0.0194517930    0.0003630937    
0.0725249090    0.0196701550    0.0003607533    
0.0727475700    0.0197182300    0.0003642790    
0.0729702310    0.0199943900    0.0003638954    
0.0731928920    0.0194869420    0.0003606838    
0.0734155530    0.0194823950    0.0003599221    
0.0736382140    0.0190952890    0.0003540417    
0.0738608750    0.0197018730    0.0003619442    
0.0740835360    0.0202988850    0.0003664751    
0.0743061970    0.0199563430    0.0003582532    
0.0745288580    0.0193842170    0.0003567110    
0.0747515190    0.0190983990    0.0003547707    
0.0749741800    0.0193674660    0.0003539541    
0.0751968410    0.0201655970    0.0003640094    
0.0754195020    0.0193390470    0.0003543829    
0.0756421630    0.0194202350    0.0003522230    
0.0758648240    0.0196870310    0.0003554867    
0.0760874850    0.0196424760    0.0003549137    
0.0763101460    0.0197200110    0.0003552723    
0.0765328070    0.0194201650    0.0003561685    
0.0767554680    0.0190608450    0.0003504637    
0.0769781290    0.0195494770    0.0003528878    
0.0772007900    0.0201899210    0.0003557454    
0.0774234510    0.0191649870    0.0003485696    
0.0776461120    0.0202106850    0.0003576132    
0.0778687730    0.0200396560    0.0003549205    
0.0780914340    0.0195236690    0.0003528246    
0.0783140950    0.0191869540    0.0003442194    
0.0785367560    0.0185800550    0.0003441932    
0.0787594170    0.0196075440    0.0003504142    
0.0789820780    0.0200269600    0.0003523275    
0.0792047390    0.0200895000    0.0003540309    
0.0794274000    0.0198699980    0.0003535833    
0.0796500610    0.0191138380    0.0003434055    
0.0798727220    0.0195958690    0.0003473877    
0.0800953830    0.0199533360    0.0003497357    
0.0803180440    0.0192253500    0.0003456880    
0.0805407050    0.0202443230    0.0003544008    
0.0807633660    0.0187143190    0.0003404292    
0.0809860270    0.0196152100    0.0003472399    
0.0812086880    0.0192897400    0.0003413712    
0.0814313490    0.0196428890    0.0003460530    
0.0816540100    0.0197659570    0.0003463450    
0.0818766710    0.0196429470    0.0003460540    
0.0820993320    0.0198629830    0.0003473526    
0.0823219930    0.0197576900    0.0003478596    
0.0825446540    0.0190672320    0.0003392445    
0.0827673150    0.0189190860    0.0003356538    
0.0829899760    0.0194214340    0.0003394754    
0.0832126370    0.0202184620    0.0003479225    
0.0834352980    0.0199374180    0.0003447235    
0.0836579590    0.0201276490    0.0003455931    
0.0838806200    0.0194656360    0.0003409257    
0.0841032810    0.0192659900    0.0003370674    
0.0843259420    0.0192237030    0.0003356604    
0.0845486030    0.0195519420    0.0003385142    
0.0847712640    0.0188338170    0.0003302146    
0.0849939250    0.0191551030    0.0003335992    
0.0852165860    0.0196538520    0.0003383570    
0.0854392470    0.0194776910    0.0003336474    
0.0856619080    0.0198816480    0.0003395721    
0.0858845690    0.0196789180    0.0003347936    
0.0861072300    0.0196512730    0.0003368680    
0.0863298910    0.0194666490    0.0003370375    
0.0865525520    0.0198029050    0.0003370006    
0.0867752130    0.0194394720    0.0003311996    
0.0869978740    0.0193685360    0.0003314373    
0.0872205350    0.0194607110    0.0003318024    
0.0874431960    0.0194663990    0.0003318511    
0.0876658570    0.0195762650    0.0003340640    
0.0878885180    0.0194661240    0.0003336941    
0.0881111790    0.0198498250    0.0003365344    
0.0883338400    0.0199597560    0.0003325241    
0.0885565010    0.0196624930    0.0003345142    
0.0887791620    0.0196492920    0.0003300654    
0.0890018230    0.0195970790    0.0003328238    
0.0892244840    0.0198622760    0.0003356379    
0.0894471450    0.0197173300    0.0003329984    
0.0896698060    0.0193902530    0.0003289793    
0.0898924670    0.0195535300    0.0003318928    
0.0901151280    0.0197011750    0.0003295451    
0.0903377890    0.0193933480    0.0003296968    
0.0905604500    0.0195045460    0.0003291233    
0.0907831110    0.0201978510    0.0003340885    
0.0910057720    0.0195359580    0.0003300765    
0.0912284330    0.0193869170    0.0003241071    
0.0914510940    0.0194339140    0.0003281183    
0.0916737550    0.0191060570    0.0003245315    
0.0918964160    0.0197488830    0.0003313179    
0.0921190770    0.0194970780    0.0003262224    
0.0923417380    0.0196059450    0.0003272661    
0.0925643990    0.0196786240    0.0003270698    
0.0927870600    0.0195937200    0.0003277018    
0.0930097210    0.0189596700    0.0003196106    
0.0932323820    0.0191464910    0.0003235423    
