# Diamond Light Source Ltd.
# Data extracted from: /dls/b21/data/2018/cm19678-3/processed/b21-386631_00209.dat
q(1/A)          Column          Error           
0.0035000000    2.1083221000    0.0247303070    
0.0037226610    1.9334627000    0.0231839390    
0.0039453220    1.6037882000    0.0192087660    
0.0041679830    1.3179343000    0.0143000530    
0.0043906440    0.9660070000    0.0117102510    
0.0046133050    0.7732872000    0.0100579700    
0.0048359660    0.5887666500    0.0083015505    
0.0050586270    0.4582131300    0.0071983476    
0.0052812880    0.4265978500    0.0065669307    
0.0055039490    0.3830407600    0.0059167900    
0.0057266100    0.3280356200    0.0052971018    
0.0059492710    0.2685016700    0.0047923810    
0.0061719320    0.2254153200    0.0042313333    
0.0063945930    0.2032492500    0.0040666120    
0.0066172539    0.1807873400    0.0036013700    
0.0068399149    0.1657553800    0.0033940906    
0.0070625759    0.1446035500    0.0031376299    
0.0072852369    0.1281536400    0.0029095785    
0.0075078979    0.1129647200    0.0027182954    
0.0077305589    0.0956727870    0.0024539552    
0.0079532199    0.0992218400    0.0024644259    
0.0081758809    0.0920350820    0.0023955775    
0.0083985419    0.0857043490    0.0021561269    
0.0086212029    0.0784900080    0.0020633842    
0.0088438639    0.0708291340    0.0019443591    
0.0090665249    0.0647276210    0.0017952212    
0.0092891859    0.0622713010    0.0018378793    
0.0095118469    0.0589437090    0.0017195647    
0.0097345079    0.0583911940    0.0016622249    
0.0099571689    0.0592303860    0.0016396053    
0.0101798300    0.0497444560    0.0015025862    
0.0104024910    0.0470641610    0.0014565992    
0.0106251520    0.0461588770    0.0014474206    
0.0108478130    0.0471339810    0.0014243839    
0.0110704740    0.0411631060    0.0012673072    
0.0112931350    0.0405025770    0.0012607901    
0.0115157960    0.0395661410    0.0012388639    
0.0117384570    0.0388116210    0.0012164322    
0.0119611180    0.0366573270    0.0011855827    
0.0121837790    0.0354724890    0.0011466627    
0.0124064400    0.0342447690    0.0010796805    
0.0126291010    0.0343223420    0.0010673741    
0.0128517620    0.0339268460    0.0010638564    
0.0130744230    0.0327024040    0.0010367359    
0.0132970840    0.0333272000    0.0010414750    
0.0135197450    0.0310198280    0.0009903869    
0.0137424060    0.0303158760    0.0009654542    
0.0139650670    0.0307145020    0.0009501350    
0.0141877280    0.0310275460    0.0009570752    
0.0144103890    0.0291684290    0.0009119588    
0.0146330500    0.0291088850    0.0009052433    
0.0148557110    0.0289490520    0.0008989695    
0.0150783720    0.0278135720    0.0008738805    
0.0153010330    0.0276753080    0.0008594153    
0.0155236940    0.0282437780    0.0008630343    
0.0157463550    0.0272226490    0.0008326098    
0.0159690160    0.0260055200    0.0008106957    
0.0161916770    0.0261381370    0.0008081813    
0.0164143380    0.0255716710    0.0008054319    
0.0166369990    0.0247339670    0.0007677063    
0.0168596600    0.0269220150    0.0007938869    
0.0170823210    0.0256065980    0.0007675458    
0.0173049820    0.0245870610    0.0007534108    
0.0175276430    0.0246132550    0.0007617611    
0.0177503040    0.0255908720    0.0007569409    
0.0179729650    0.0246468500    0.0007354812    
0.0181956260    0.0224651820    0.0006887144    
0.0184182870    0.0232996850    0.0006980836    
0.0186409480    0.0234896570    0.0007053601    
0.0188636090    0.0230905470    0.0006949438    
0.0190862700    0.0231434970    0.0006946523    
0.0193089310    0.0223439290    0.0006814835    
0.0195315920    0.0217034070    0.0006488030    
0.0197542530    0.0240425640    0.0006838668    
0.0199769140    0.0231088800    0.0006704566    
0.0201995750    0.0232954950    0.0006626172    
0.0204222360    0.0225659750    0.0006577576    
0.0206448970    0.0225865680    0.0006533807    
0.0208675580    0.0237871950    0.0006567140    
0.0210902190    0.0219936410    0.0006375638    
0.0213128800    0.0241703480    0.0006593003    
0.0215355410    0.0216489670    0.0006165320    
0.0217582020    0.0214382800    0.0006135248    
0.0219808630    0.0218723530    0.0006188912    
0.0222035240    0.0221827910    0.0006176200    
0.0224261850    0.0216883400    0.0006052625    
0.0226488460    0.0219295430    0.0006040486    
0.0228715070    0.0222180630    0.0006064988    
0.0230941680    0.0219366210    0.0006026453    
0.0233168290    0.0209978130    0.0005910774    
0.0235394900    0.0221642230    0.0006005704    
0.0237621510    0.0196771610    0.0005506390    
0.0239848120    0.0207883940    0.0005666285    
0.0242074730    0.0207152970    0.0005611038    
0.0244301340    0.0212805230    0.0005693563    
0.0246527950    0.0221729750    0.0005865538    
0.0248754560    0.0225664120    0.0005784358    
0.0250981170    0.0219076220    0.0005712009    
0.0253207780    0.0217543210    0.0005522042    
0.0255434390    0.0218345830    0.0005591264    
0.0257661000    0.0212699530    0.0005536348    
0.0259887610    0.0212011400    0.0005468645    
0.0262114220    0.0205152350    0.0005408117    
0.0264340830    0.0214450060    0.0005454079    
0.0266567440    0.0216192190    0.0005442351    
0.0268794050    0.0206413670    0.0005296141    
0.0271020660    0.0205150150    0.0005258532    
0.0273247270    0.0205090520    0.0005226191    
0.0275473880    0.0209581000    0.0005272582    
0.0277700490    0.0206586270    0.0005203833    
0.0279927100    0.0206474780    0.0005157037    
0.0282153710    0.0204845610    0.0005161624    
0.0284380320    0.0203120340    0.0005110047    
0.0286606930    0.0198268130    0.0005005431    
0.0288833540    0.0202700650    0.0005070686    
0.0291060150    0.0212317990    0.0005184660    
0.0293286760    0.0205457320    0.0005029137    
0.0295513370    0.0206908430    0.0004991908    
0.0297739980    0.0203611000    0.0005006491    
0.0299966590    0.0211938620    0.0005020607    
0.0302193200    0.0209223780    0.0005061043    
0.0304419810    0.0204587980    0.0005013869    
0.0306646420    0.0195291000    0.0004760364    
0.0308873030    0.0195563190    0.0004743104    
0.0311099640    0.0201321140    0.0004824919    
0.0313326250    0.0206158540    0.0004828453    
0.0315552860    0.0208751800    0.0004921695    
0.0317779470    0.0198189050    0.0004799737    
0.0320006080    0.0205161040    0.0004772478    
0.0322232690    0.0194455940    0.0004665748    
0.0324459300    0.0199614050    0.0004691933    
0.0326685910    0.0207090590    0.0004771115    
0.0328912520    0.0210788090    0.0004829460    
0.0331139130    0.0202644980    0.0004673658    
0.0333365740    0.0202661230    0.0004689022    
0.0335592350    0.0202613590    0.0004643389    
0.0337818960    0.0200697400    0.0004617700    
0.0340045570    0.0203237630    0.0004639451    
0.0342272170    0.0199115670    0.0004574049    
0.0344498780    0.0199954720    0.0004601831    
0.0346725390    0.0202105070    0.0004540827    
0.0348952000    0.0198751460    0.0004482482    
0.0351178610    0.0204247790    0.0004564838    
0.0353405220    0.0202896590    0.0004528987    
0.0355631830    0.0198361140    0.0004461216    
0.0357858440    0.0199264280    0.0004471362    
0.0360085050    0.0205012620    0.0004549101    
0.0362311660    0.0199576210    0.0004435027    
0.0364538270    0.0201622380    0.0004421926    
0.0366764880    0.0200458320    0.0004405943    
0.0368991490    0.0197387820    0.0004350029    
0.0371218100    0.0194353660    0.0004304117    
0.0373444710    0.0200168200    0.0004415594    
0.0375671320    0.0198420130    0.0004389869    
0.0377897930    0.0197956660    0.0004271230    
0.0380124540    0.0201941650    0.0004341075    
0.0382351150    0.0195222840    0.0004268249    
0.0384577760    0.0201267190    0.0004292006    
0.0386804370    0.0201377080    0.0004325941    
0.0389030980    0.0205203120    0.0004333773    
0.0391257590    0.0204954570    0.0004301745    
0.0393484200    0.0197030570    0.0004203573    
0.0395710810    0.0195133850    0.0004188927    
0.0397937420    0.0200079780    0.0004241683    
0.0400164030    0.0201167070    0.0004270495    
0.0402390640    0.0204847680    0.0004252002    
0.0404617250    0.0201303990    0.0004190197    
0.0406843860    0.0202736560    0.0004164452    
0.0409070470    0.0207943180    0.0004261524    
0.0411297080    0.0196573150    0.0004103296    
0.0413523690    0.0201031670    0.0004160265    
0.0415750300    0.0193340880    0.0004114567    
0.0417976910    0.0192775730    0.0004002288    
0.0420203520    0.0201259500    0.0004104773    
0.0422430130    0.0198652940    0.0004093545    
0.0424656740    0.0193926370    0.0003991911    
0.0426883350    0.0191291700    0.0003984379    
0.0429109960    0.0190401180    0.0003987514    
0.0431336570    0.0198223770    0.0004011279    
0.0433563180    0.0193978630    0.0004002325    
0.0435789790    0.0198492120    0.0003985014    
0.0438016400    0.0201466420    0.0004036601    
0.0440243010    0.0202629130    0.0004007158    
0.0442469620    0.0194639070    0.0003950892    
0.0444696230    0.0197226790    0.0003962807    
0.0446922840    0.0194078380    0.0003919376    
0.0449149450    0.0189232220    0.0003818395    
0.0451376060    0.0197804410    0.0003952138    
0.0453602670    0.0200482760    0.0003937094    
0.0455829280    0.0201639280    0.0003943868    
0.0458055890    0.0194320780    0.0003894212    
0.0460282500    0.0194461250    0.0003848643    
0.0462509110    0.0197390810    0.0003853408    
0.0464735720    0.0197312520    0.0003854819    
0.0466962330    0.0192194850    0.0003821795    
0.0469188940    0.0194733880    0.0003836050    
0.0471415550    0.0197808130    0.0003886068    
0.0473642160    0.0197206120    0.0003825821    
0.0475868770    0.0200248630    0.0003836068    
0.0478095380    0.0192016780    0.0003739956    
0.0480321990    0.0190225240    0.0003730624    
0.0482548600    0.0206558070    0.0003870545    
0.0484775210    0.0193370140    0.0003782132    
0.0487001820    0.0192131610    0.0003714813    
0.0489228430    0.0194149360    0.0003732261    
0.0491455040    0.0192463650    0.0003690322    
0.0493681650    0.0196505540    0.0003760915    
0.0495908260    0.0198645970    0.0003717720    
0.0498134870    0.0196631410    0.0003734031    
0.0500361480    0.0196720860    0.0003724999    
0.0502588090    0.0194565420    0.0003649028    
0.0504814700    0.0193715540    0.0003688649    
0.0507041310    0.0191811140    0.0003626833    
0.0509267920    0.0205156280    0.0003766397    
0.0511494530    0.0192741210    0.0003626313    
0.0513721140    0.0191360010    0.0003645118    
0.0515947750    0.0194499490    0.0003626173    
0.0518174360    0.0198174710    0.0003638224    
0.0520400970    0.0196819320    0.0003600621    
0.0522627580    0.0194283380    0.0003607752    
0.0524854190    0.0192553190    0.0003620854    
0.0527080800    0.0194854960    0.0003670633    
0.0529307410    0.0196968740    0.0003707821    
0.0531534020    0.0193527750    0.0003661911    
0.0533760630    0.0194462380    0.0003682233    
0.0535987240    0.0193548770    0.0003656422    
0.0538213850    0.0191556610    0.0003679701    
0.0540440460    0.0195559220    0.0003700350    
0.0542667070    0.0196489300    0.0003734701    
0.0544893680    0.0201175630    0.0003780989    
0.0547120290    0.0196816570    0.0003714181    
0.0549346900    0.0190708860    0.0003658021    
0.0551573510    0.0192495880    0.0003718382    
0.0553800120    0.0199475440    0.0003753014    
0.0556026730    0.0190912030    0.0003747698    
0.0558253340    0.0192102850    0.0003790847    
0.0560479950    0.0205568210    0.0003921458    
0.0562706560    0.0193547720    0.0003841866    
0.0564933170    0.0196070260    0.0003900400    
0.0567159780    0.0196622930    0.0003859063    
0.0569386390    0.0196901260    0.0003922367    
0.0571613000    0.0199509880    0.0003863251    
0.0573839610    0.0199374090    0.0003829870    
0.0576066220    0.0189752710    0.0003746660    
0.0578292830    0.0194819070    0.0003783786    
0.0580519440    0.0199591490    0.0003844701    
0.0582746050    0.0189539980    0.0003730119    
0.0584972660    0.0194356600    0.0003762759    
0.0587199270    0.0199039040    0.0003774991    
0.0589425880    0.0201670790    0.0003777640    
0.0591652490    0.0198037100    0.0003765481    
0.0593879100    0.0193695780    0.0003696323    
0.0596105710    0.0193920840    0.0003694568    
0.0598332320    0.0202977930    0.0003812170    
0.0600558930    0.0196156690    0.0003723674    
0.0602785540    0.0193626060    0.0003695665    
0.0605012150    0.0192389550    0.0003676084    
0.0607238760    0.0195064160    0.0003674574    
0.0609465370    0.0199483570    0.0003745221    
0.0611691980    0.0203431680    0.0003788096    
0.0613918590    0.0191561370    0.0003635785    
0.0616145200    0.0203478310    0.0003774595    
0.0618371810    0.0192224020    0.0003632693    
0.0620598420    0.0190763160    0.0003622593    
0.0622825030    0.0192600320    0.0003695661    
0.0625051640    0.0192950040    0.0003647064    
0.0627278250    0.0193323300    0.0003643073    
0.0629504860    0.0191881270    0.0003599954    
0.0631731470    0.0191051670    0.0003636606    
0.0633958080    0.0194727540    0.0003692554    
0.0636184690    0.0199397540    0.0003788610    
0.0638411300    0.0196831670    0.0003750025    
0.0640637910    0.0192872000    0.0003738222    
0.0642864520    0.0199829350    0.0003796815    
0.0645091130    0.0195565430    0.0003789003    
0.0647317740    0.0187903920    0.0003718137    
0.0649544350    0.0200484390    0.0003836363    
0.0651770960    0.0194382030    0.0003756920    
0.0653997570    0.0187611480    0.0003682907    
0.0656224180    0.0194309860    0.0003756227    
0.0658450790    0.0200050590    0.0003756529    
0.0660677400    0.0195710000    0.0003731365    
0.0662904010    0.0196622490    0.0003784702    
0.0665130620    0.0197303610    0.0003774806    
0.0667357230    0.0196900960    0.0003837999    
0.0669583840    0.0197591980    0.0003831865    
0.0671810450    0.0196885940    0.0003803893    
0.0674037060    0.0192820990    0.0003828195    
0.0676263670    0.0193003680    0.0003801967    
0.0678490280    0.0190872150    0.0003757792    
0.0680716890    0.0196181260    0.0003818173    
0.0682943500    0.0193652000    0.0003751931    
0.0685170110    0.0201476470    0.0003787982    
0.0687396720    0.0187231010    0.0003641910    
0.0689623330    0.0197731310    0.0003730779    
0.0691849940    0.0201265840    0.0003790055    
0.0694076550    0.0194491950    0.0003723741    
0.0696303160    0.0196125890    0.0003709745    
0.0698529770    0.0190553060    0.0003648996    
0.0700756380    0.0189641700    0.0003593530    
0.0702982990    0.0198804810    0.0003719391    
0.0705209600    0.0196904730    0.0003674850    
0.0707436210    0.0197274930    0.0003661410    
0.0709662820    0.0202841520    0.0003756969    
0.0711889430    0.0193340980    0.0003622880    
0.0714116040    0.0194199340    0.0003638325    
0.0716342650    0.0194248210    0.0003624008    
0.0718569260    0.0195637660    0.0003622299    
0.0720795870    0.0197561680    0.0003654792    
0.0723022480    0.0194502080    0.0003631907    
0.0725249090    0.0197219900    0.0003613395    
0.0727475700    0.0194475490    0.0003618814    
0.0729702310    0.0191452030    0.0003561937    
0.0731928920    0.0199064230    0.0003646575    
0.0734155530    0.0198403680    0.0003633255    
0.0736382140    0.0195142800    0.0003580150    
0.0738608750    0.0190087460    0.0003556300    
0.0740835360    0.0199274020    0.0003632181    
0.0743061970    0.0193251060    0.0003526503    
0.0745288580    0.0197639780    0.0003602992    
0.0747515190    0.0200531390    0.0003636421    
0.0749741800    0.0197807030    0.0003578204    
0.0751968410    0.0196717570    0.0003596353    
0.0754195020    0.0193444580    0.0003545416    
0.0756421630    0.0198732540    0.0003564172    
0.0758648240    0.0195835420    0.0003546602    
0.0760874850    0.0192888170    0.0003518124    
0.0763101460    0.0191557530    0.0003502604    
0.0765328070    0.0197458620    0.0003592533    
0.0767554680    0.0185761030    0.0003460852    
0.0769781290    0.0198674630    0.0003558558    
0.0772007900    0.0187472330    0.0003429053    
0.0774234510    0.0189737940    0.0003469333    
0.0776461120    0.0191974120    0.0003486407    
0.0778687730    0.0196179980    0.0003512748    
0.0780914340    0.0195165520    0.0003528689    
0.0783140950    0.0194212200    0.0003464211    
0.0785367560    0.0198100890    0.0003555131    
0.0787594170    0.0199266650    0.0003533630    
0.0789820780    0.0189725160    0.0003430324    
0.0792047390    0.0190281070    0.0003446578    
0.0794274000    0.0192652430    0.0003482682    
0.0796500610    0.0196997470    0.0003487364    
0.0798727220    0.0196140980    0.0003476562    
0.0800953830    0.0195485230    0.0003462764    
0.0803180440    0.0187645000    0.0003416248    
0.0805407050    0.0197229000    0.0003499147    
0.0807633660    0.0195128000    0.0003477229    
0.0809860270    0.0192213350    0.0003438417    
0.0812086880    0.0194587880    0.0003429693    
0.0814313490    0.0197525900    0.0003471248    
0.0816540100    0.0194077070    0.0003432977    
0.0818766710    0.0195940410    0.0003457293    
0.0820993320    0.0196746390    0.0003458083    
0.0823219930    0.0196901890    0.0003473718    
0.0825446540    0.0202989660    0.0003501383    
0.0827673150    0.0191452490    0.0003377580    
0.0829899760    0.0195224560    0.0003404619    
0.0832126370    0.0193442750    0.0003404226    
0.0834352980    0.0196037820    0.0003419322    
0.0836579590    0.0193800430    0.0003392186    
0.0838806200    0.0194358000    0.0003407693    
0.0841032810    0.0192955570    0.0003374298    
0.0843259420    0.0199334160    0.0003419056    
0.0845486030    0.0192121120    0.0003356628    
0.0847712640    0.0195579850    0.0003366068    
0.0849939250    0.0195738390    0.0003373296    
0.0852165860    0.0194677800    0.0003368551    
0.0854392470    0.0188091480    0.0003279723    
0.0856619080    0.0196675610    0.0003378428    
0.0858845690    0.0196853380    0.0003349513    
0.0861072300    0.0199580660    0.0003395919    
0.0863298910    0.0193501810    0.0003361312    
0.0865525520    0.0199298710    0.0003381833    
0.0867752130    0.0196716490    0.0003332742    
0.0869978740    0.0196017920    0.0003335298    
0.0872205350    0.0195462840    0.0003326334    
0.0874431960    0.0196482070    0.0003334998    
0.0876658570    0.0192917010    0.0003317292    
0.0878885180    0.0191175120    0.0003307944    
0.0881111790    0.0195651740    0.0003342156    
0.0883338400    0.0195064210    0.0003288274    
0.0885565010    0.0192361220    0.0003309693    
0.0887791620    0.0195559840    0.0003293822    
0.0890018230    0.0191962640    0.0003295041    
0.0892244840    0.0199426100    0.0003364195    
0.0894471450    0.0193862040    0.0003302921    
0.0896698060    0.0197149530    0.0003318244    
0.0898924670    0.0197797730    0.0003339101    
0.0901151280    0.0192003420    0.0003254295    
0.0903377890    0.0192202120    0.0003283228    
0.0905604500    0.0198166410    0.0003318481    
0.0907831110    0.0202489950    0.0003346142    
0.0910057720    0.0193024530    0.0003281990    
0.0912284330    0.0196265670    0.0003262046    
0.0914510940    0.0191908890    0.0003261607    
0.0916737550    0.0197742050    0.0003302588    
0.0918964160    0.0189323380    0.0003244961    
0.0921190770    0.0193015410    0.0003246824    
0.0923417380    0.0195797560    0.0003271482    
0.0925643990    0.0193806950    0.0003246844    
0.0927870600    0.0192822220    0.0003251866    
0.0930097210    0.0194403730    0.0003237366    
0.0932323820    0.0194646390    0.0003263198    
