# Diamond Light Source Ltd.
# Data extracted from: /dls/b21/data/2018/cm19678-3/processed/b21-386631_00211.dat
q(1/A)          Column          Error           
0.0035000000    2.0718223000    0.0245207530    
0.0037226610    1.8614550000    0.0227531820    
0.0039453220    1.6150891000    0.0192806090    
0.0041679830    1.2877849000    0.0141386830    
0.0043906440    0.9822006000    0.0118106200    
0.0046133050    0.7822691200    0.0101184630    
0.0048359660    0.5886771400    0.0083027647    
0.0050586270    0.4683726300    0.0072793288    
0.0052812880    0.4121230400    0.0064559935    
0.0055039490    0.3852226900    0.0059349372    
0.0057266100    0.3104673800    0.0051544501    
0.0059492710    0.2779487800    0.0048770449    
0.0061719320    0.2193969100    0.0041753925    
0.0063945930    0.2035024300    0.0040700486    
0.0066172539    0.1854611900    0.0036484365    
0.0068399149    0.1655509600    0.0033927511    
0.0070625759    0.1478690700    0.0031735653    
0.0072852369    0.1231218500    0.0028525201    
0.0075078979    0.1191008700    0.0027917674    
0.0077305589    0.1052868600    0.0025748743    
0.0079532199    0.0952242850    0.0024148076    
0.0081758809    0.0885826060    0.0023507383    
0.0083985419    0.0806955920    0.0020926391    
0.0086212029    0.0766798180    0.0020399052    
0.0088438639    0.0715548170    0.0019547286    
0.0090665249    0.0642084640    0.0017884048    
0.0092891859    0.0639812790    0.0018633568    
0.0095118469    0.0642897570    0.0017962518    
0.0097345079    0.0578964210    0.0016555355    
0.0099571689    0.0543981260    0.0015716489    
0.0101798300    0.0496303520    0.0015011956    
0.0104024910    0.0457771700    0.0014368648    
0.0106251520    0.0482227380    0.0014797543    
0.0108478130    0.0435375740    0.0013692686    
0.0110704740    0.0415327200    0.0012732672    
0.0112931350    0.0406383790    0.0012631828    
0.0115157960    0.0371388560    0.0012005287    
0.0117384570    0.0377990360    0.0012007260    
0.0119611180    0.0365201800    0.0011836258    
0.0121837790    0.0376019830    0.0011808419    
0.0124064400    0.0360990020    0.0011087720    
0.0126291010    0.0357655690    0.0010898263    
0.0128517620    0.0344759250    0.0010726691    
0.0130744230    0.0338349110    0.0010547690    
0.0132970840    0.0328210500    0.0010337659    
0.0135197450    0.0323622770    0.0010118153    
0.0137424060    0.0315597550    0.0009852806    
0.0139650670    0.0301988700    0.0009423353    
0.0141877280    0.0303325010    0.0009465052    
0.0144103890    0.0295522280    0.0009181430    
0.0146330500    0.0277699450    0.0008843752    
0.0148557110    0.0279285670    0.0008831788    
0.0150783720    0.0285675990    0.0008858436    
0.0153010330    0.0296366940    0.0008895457    
0.0155236940    0.0278869730    0.0008577562    
0.0157463550    0.0273366610    0.0008345370    
0.0159690160    0.0266744630    0.0008212388    
0.0161916770    0.0259747610    0.0008058307    
0.0164143380    0.0260652620    0.0008133489    
0.0166369990    0.0247211260    0.0007676776    
0.0168596600    0.0251071600    0.0007668319    
0.0170823210    0.0244441140    0.0007500877    
0.0173049820    0.0241822530    0.0007473489    
0.0175276430    0.0238930210    0.0007506999    
0.0177503040    0.0249750750    0.0007479445    
0.0179729650    0.0239551830    0.0007252490    
0.0181956260    0.0240805410    0.0007132041    
0.0184182870    0.0236448400    0.0007033916    
0.0186409480    0.0234365310    0.0007047187    
0.0188636090    0.0233728350    0.0006993343    
0.0190862700    0.0238212840    0.0007049075    
0.0193089310    0.0245164710    0.0007140047    
0.0195315920    0.0223145810    0.0006580211    
0.0197542530    0.0224769490    0.0006613728    
0.0199769140    0.0227299440    0.0006650847    
0.0201995750    0.0225139070    0.0006515514    
0.0204222360    0.0224033810    0.0006555293    
0.0206448970    0.0226533390    0.0006544912    
0.0208675580    0.0225462120    0.0006394963    
0.0210902190    0.0226690700    0.0006474235    
0.0213128800    0.0216622310    0.0006242951    
0.0215355410    0.0218342510    0.0006193024    
0.0217582020    0.0229057720    0.0006343167    
0.0219808630    0.0207783380    0.0006033488    
0.0222035240    0.0216077320    0.0006096974    
0.0224261850    0.0212924140    0.0005998458    
0.0226488460    0.0216063770    0.0005997146    
0.0228715070    0.0204722330    0.0005823123    
0.0230941680    0.0221616980    0.0006058638    
0.0233168290    0.0224553450    0.0006113836    
0.0235394900    0.0220763950    0.0005995126    
0.0237621510    0.0222757560    0.0005860012    
0.0239848120    0.0214156960    0.0005752420    
0.0242074730    0.0219105030    0.0005771921    
0.0244301340    0.0211528280    0.0005677716    
0.0246527950    0.0210806780    0.0005720509    
0.0248754560    0.0217606090    0.0005681408    
0.0250981170    0.0202635030    0.0005494714    
0.0253207780    0.0210488110    0.0005432969    
0.0255434390    0.0209561960    0.0005478861    
0.0257661000    0.0217119190    0.0005594815    
0.0259887610    0.0209142110    0.0005432721    
0.0262114220    0.0208524050    0.0005453590    
0.0264340830    0.0210104630    0.0005399738    
0.0266567440    0.0211902250    0.0005389281    
0.0268794050    0.0209088470    0.0005331531    
0.0271020660    0.0206185320    0.0005272954    
0.0273247270    0.0206380830    0.0005243770    
0.0275473880    0.0204764100    0.0005212797    
0.0277700490    0.0211530340    0.0005266905    
0.0279927100    0.0204762510    0.0005136751    
0.0282153710    0.0204546330    0.0005158999    
0.0284380320    0.0199352220    0.0005063552    
0.0286606930    0.0202781070    0.0005063202    
0.0288833540    0.0198729890    0.0005021891    
0.0291060150    0.0215578950    0.0005225485    
0.0293286760    0.0205918140    0.0005035893    
0.0295513370    0.0204590650    0.0004964974    
0.0297739980    0.0195326870    0.0004904677    
0.0299966590    0.0210367050    0.0005003070    
0.0302193200    0.0195109240    0.0004888436    
0.0304419810    0.0193369360    0.0004875547    
0.0306646420    0.0199557040    0.0004813147    
0.0308873030    0.0207849510    0.0004890915    
0.0311099640    0.0205806760    0.0004879459    
0.0313326250    0.0204779420    0.0004813345    
0.0315552860    0.0200834460    0.0004828533    
0.0317779470    0.0193741800    0.0004746635    
0.0320006080    0.0207029340    0.0004795225    
0.0322232690    0.0197342380    0.0004701294    
0.0324459300    0.0197827140    0.0004671924    
0.0326685910    0.0196735560    0.0004651336    
0.0328912520    0.0205346860    0.0004767779    
0.0331139130    0.0201333200    0.0004659542    
0.0333365740    0.0194176740    0.0004590839    
0.0335592350    0.0197061200    0.0004580342    
0.0337818960    0.0203443960    0.0004650224    
0.0340045570    0.0193580120    0.0004528887    
0.0342272170    0.0195314730    0.0004531189    
0.0344498780    0.0194216090    0.0004536323    
0.0346725390    0.0203828010    0.0004561155    
0.0348952000    0.0203593380    0.0004537763    
0.0351178610    0.0195867020    0.0004471197    
0.0353405220    0.0200660600    0.0004504963    
0.0355631830    0.0205676630    0.0004543745    
0.0357858440    0.0204271460    0.0004528199    
0.0360085050    0.0209244220    0.0004596832    
0.0362311660    0.0200552340    0.0004446848    
0.0364538270    0.0199674530    0.0004401493    
0.0366764880    0.0189987230    0.0004290280    
0.0368991490    0.0192871980    0.0004300937    
0.0371218100    0.0190911740    0.0004266783    
0.0373444710    0.0201036790    0.0004426148    
0.0375671320    0.0201034650    0.0004419678    
0.0377897930    0.0192420500    0.0004212017    
0.0380124540    0.0204178730    0.0004366024    
0.0382351150    0.0201658140    0.0004338992    
0.0384577760    0.0197785560    0.0004255668    
0.0386804370    0.0195702470    0.0004265503    
0.0389030980    0.0205935340    0.0004342463    
0.0391257590    0.0205768330    0.0004311235    
0.0393484200    0.0199181770    0.0004227398    
0.0395710810    0.0204216960    0.0004286264    
0.0397937420    0.0201788090    0.0004260699    
0.0400164030    0.0198172820    0.0004239536    
0.0402390640    0.0196727090    0.0004167797    
0.0404617250    0.0197554110    0.0004151909    
0.0406843860    0.0194354200    0.0004078358    
0.0409070470    0.0199036200    0.0004170184    
0.0411297080    0.0205658100    0.0004197978    
0.0413523690    0.0199398390    0.0004144252    
0.0415750300    0.0203325960    0.0004220416    
0.0417976910    0.0197766110    0.0004054662    
0.0420203520    0.0196658660    0.0004058486    
0.0422430130    0.0200597880    0.0004114450    
0.0424656740    0.0192450640    0.0003977577    
0.0426883350    0.0195777170    0.0004031718    
0.0429109960    0.0204187450    0.0004130270    
0.0431336570    0.0199124000    0.0004021271    
0.0433563180    0.0193569180    0.0003998988    
0.0435789790    0.0194178150    0.0003942348    
0.0438016400    0.0203659760    0.0004059417    
0.0440243010    0.0201292180    0.0003994805    
0.0442469620    0.0198897740    0.0003994768    
0.0444696230    0.0196756880    0.0003958963    
0.0446922840    0.0195669210    0.0003936281    
0.0449149450    0.0198335100    0.0003910026    
0.0451376060    0.0196786380    0.0003942831    
0.0453602670    0.0194925260    0.0003883004    
0.0455829280    0.0200571350    0.0003934285    
0.0458055890    0.0198623240    0.0003937962    
0.0460282500    0.0183726810    0.0003741743    
0.0462509110    0.0198682720    0.0003866857    
0.0464735720    0.0188208340    0.0003765673    
0.0466962330    0.0190151470    0.0003802269    
0.0469188940    0.0202607240    0.0003913700    
0.0471415550    0.0197819710    0.0003887046    
0.0473642160    0.0190685170    0.0003762872    
0.0475868770    0.0203425440    0.0003867236    
0.0478095380    0.0202231980    0.0003839002    
0.0480321990    0.0198215000    0.0003809011    
0.0482548600    0.0200554900    0.0003814734    
0.0484775210    0.0199746780    0.0003844841    
0.0487001820    0.0195306880    0.0003746216    
0.0489228430    0.0195240600    0.0003743568    
0.0491455040    0.0192903180    0.0003695355    
0.0493681650    0.0192200180    0.0003720313    
0.0495908260    0.0195462670    0.0003688631    
0.0498134870    0.0193100860    0.0003701179    
0.0500361480    0.0194903050    0.0003708573    
0.0502588090    0.0193488000    0.0003639720    
0.0504814700    0.0195558400    0.0003706977    
0.0507041310    0.0193062760    0.0003639456    
0.0509267920    0.0192311450    0.0003647394    
0.0511494530    0.0198697040    0.0003682734    
0.0513721140    0.0196724430    0.0003696678    
0.0515947750    0.0204393060    0.0003718081    
0.0518174360    0.0195389450    0.0003613370    
0.0520400970    0.0194270870    0.0003578030    
0.0522627580    0.0194637860    0.0003611844    
0.0524854190    0.0193864940    0.0003633974    
0.0527080800    0.0198262110    0.0003703409    
0.0529307410    0.0201525350    0.0003751298    
0.0531534020    0.0197703750    0.0003702032    
0.0533760630    0.0197199560    0.0003708882    
0.0535987240    0.0192943780    0.0003651515    
0.0538213850    0.0198501290    0.0003746641    
0.0540440460    0.0194245200    0.0003688717    
0.0542667070    0.0191818490    0.0003690865    
0.0544893680    0.0194084660    0.0003714582    
0.0547120290    0.0193117470    0.0003679930    
0.0549346900    0.0193390930    0.0003684472    
0.0551573510    0.0193371920    0.0003727662    
0.0553800120    0.0195113680    0.0003712580    
0.0556026730    0.0196664260    0.0003804584    
0.0558253340    0.0194882500    0.0003819024    
0.0560479950    0.0189269710    0.0003763628    
0.0562706560    0.0198287710    0.0003889490    
0.0564933170    0.0191189470    0.0003852403    
0.0567159780    0.0196407260    0.0003857803    
0.0569386390    0.0195269070    0.0003906944    
0.0571613000    0.0197353390    0.0003843169    
0.0573839610    0.0191808080    0.0003757333    
0.0576066220    0.0197090120    0.0003819260    
0.0578292830    0.0193361750    0.0003770446    
0.0580519440    0.0195827410    0.0003809122    
0.0582746050    0.0194397920    0.0003778458    
0.0584972660    0.0199763230    0.0003815584    
0.0587199270    0.0195975880    0.0003746662    
0.0589425880    0.0195813840    0.0003723208    
0.0591652490    0.0193254400    0.0003720561    
0.0593879100    0.0194981570    0.0003709395    
0.0596105710    0.0201612430    0.0003767963    
0.0598332320    0.0192395470    0.0003712289    
0.0600558930    0.0192212960    0.0003686871    
0.0602785540    0.0195970370    0.0003718797    
0.0605012150    0.0194583260    0.0003697805    
0.0607238760    0.0199583000    0.0003717719    
0.0609465370    0.0202948890    0.0003778451    
0.0611691980    0.0199711390    0.0003754133    
0.0613918590    0.0187918550    0.0003601850    
0.0616145200    0.0195512900    0.0003700799    
0.0618371810    0.0192103450    0.0003632360    
0.0620598420    0.0194702110    0.0003660616    
0.0622825030    0.0194530520    0.0003714959    
0.0625051640    0.0203794530    0.0003748986    
0.0627278250    0.0199109890    0.0003698015    
0.0629504860    0.0194804540    0.0003628079    
0.0631731470    0.0199308410    0.0003715183    
0.0633958080    0.0193062830    0.0003677554    
0.0636184690    0.0196461510    0.0003761450    
0.0638411300    0.0190414790    0.0003689212    
0.0640637910    0.0198176750    0.0003790124    
0.0642864520    0.0191834870    0.0003720918    
0.0645091130    0.0190805140    0.0003743437    
0.0647317740    0.0197997770    0.0003817545    
0.0649544350    0.0195505950    0.0003789273    
0.0651770960    0.0193669370    0.0003750860    
0.0653997570    0.0197821030    0.0003782629    
0.0656224180    0.0192580160    0.0003740302    
0.0658450790    0.0202538960    0.0003780660    
0.0660677400    0.0195939370    0.0003734381    
0.0662904010    0.0191753910    0.0003738383    
0.0665130620    0.0197608090    0.0003778558    
0.0667357230    0.0191899150    0.0003789780    
0.0669583840    0.0195300840    0.0003810431    
0.0671810450    0.0192709040    0.0003764164    
0.0674037060    0.0191842210    0.0003819315    
0.0676263670    0.0186795550    0.0003741152    
0.0678490280    0.0193251470    0.0003781981    
0.0680716890    0.0189205800    0.0003750512    
0.0682943500    0.0198828820    0.0003802595    
0.0685170110    0.0198074810    0.0003756703    
0.0687396720    0.0199858570    0.0003763555    
0.0689623330    0.0195283990    0.0003708444    
0.0691849940    0.0195928740    0.0003740297    
0.0694076550    0.0196432910    0.0003743107    
0.0696303160    0.0191720210    0.0003668656    
0.0698529770    0.0197488730    0.0003715635    
0.0700756380    0.0192791620    0.0003624056    
0.0702982990    0.0190748130    0.0003644056    
0.0705209600    0.0192395110    0.0003633332    
0.0707436210    0.0190971990    0.0003603245    
0.0709662820    0.0196875090    0.0003702125    
0.0711889430    0.0196619040    0.0003654275    
0.0714116040    0.0193671940    0.0003634189    
0.0716342650    0.0193996370    0.0003622464    
0.0718569260    0.0201897660    0.0003680613    
0.0720795870    0.0201978610    0.0003696243    
0.0723022480    0.0189771350    0.0003588264    
0.0725249090    0.0197572530    0.0003617428    
0.0727475700    0.0198132520    0.0003653493    
0.0729702310    0.0194255410    0.0003588718    
0.0731928920    0.0192937580    0.0003590818    
0.0734155530    0.0195563120    0.0003607955    
0.0736382140    0.0190564040    0.0003538685    
0.0738608750    0.0198825240    0.0003637926    
0.0740835360    0.0187241910    0.0003521601    
0.0743061970    0.0193079460    0.0003525720    
0.0745288580    0.0194770620    0.0003577539    
0.0747515190    0.0188283810    0.0003524406    
0.0749741800    0.0197117910    0.0003572759    
0.0751968410    0.0195423720    0.0003585304    
0.0754195020    0.0192815500    0.0003540433    
0.0756421630    0.0189931840    0.0003485135    
0.0758648240    0.0194958630    0.0003539441    
0.0760874850    0.0191882600    0.0003509721    
0.0763101460    0.0194077490    0.0003526351    
0.0765328070    0.0192903660    0.0003551644    
0.0767554680    0.0192294290    0.0003521968    
0.0769781290    0.0197742690    0.0003550991    
0.0772007900    0.0191069610    0.0003462565    
0.0774234510    0.0196168750    0.0003528420    
0.0776461120    0.0190792590    0.0003476434    
0.0778687730    0.0202937400    0.0003573528    
0.0780914340    0.0191167260    0.0003493133    
0.0783140950    0.0193309450    0.0003456919    
0.0785367560    0.0190976300    0.0003491393    
0.0787594170    0.0196158050    0.0003506738    
0.0789820780    0.0193966840    0.0003469229    
0.0792047390    0.0191489890    0.0003458277    
0.0794274000    0.0198154920    0.0003532852    
0.0796500610    0.0192391090    0.0003447116    
0.0798727220    0.0190926400    0.0003430800    
0.0800953830    0.0198333610    0.0003488676    
0.0803180440    0.0195755270    0.0003490070    
0.0805407050    0.0187379440    0.0003411413    
0.0807633660    0.0198314400    0.0003506284    
0.0809860270    0.0202513730    0.0003530129    
0.0812086880    0.0196065370    0.0003443455    
0.0814313490    0.0196393140    0.0003462050    
0.0816540100    0.0194345620    0.0003436115    
0.0818766710    0.0192548830    0.0003428003    
0.0820993320    0.0198536480    0.0003474551    
0.0823219930    0.0200177570    0.0003503272    
0.0825446540    0.0200421330    0.0003479936    
0.0827673150    0.0194041380    0.0003401096    
0.0829899760    0.0197568620    0.0003425759    
0.0832126370    0.0194787390    0.0003416797    
0.0834352980    0.0196363660    0.0003422923    
0.0836579590    0.0194777620    0.0003401483    
0.0838806200    0.0189483190    0.0003365434    
0.0841032810    0.0196642450    0.0003407140    
0.0843259420    0.0194025060    0.0003373966    
0.0845486030    0.0196665550    0.0003396849    
0.0847712640    0.0200361420    0.0003407724    
0.0849939250    0.0194778550    0.0003365763    
0.0852165860    0.0190682470    0.0003334547    
0.0854392470    0.0200075520    0.0003383344    
0.0856619080    0.0197459770    0.0003385909    
0.0858845690    0.0189357490    0.0003285852    
0.0861072300    0.0196663370    0.0003371757    
0.0863298910    0.0199663030    0.0003415164    
0.0865525520    0.0201052240    0.0003397433    
0.0867752130    0.0198442110    0.0003348072    
0.0869978740    0.0198319350    0.0003355566    
0.0872205350    0.0197984930    0.0003348470    
0.0874431960    0.0197305650    0.0003342723    
0.0876658570    0.0200763990    0.0003384838    
0.0878885180    0.0194695940    0.0003339008    
0.0881111790    0.0199451320    0.0003375202    
0.0883338400    0.0195261860    0.0003290671    
0.0885565010    0.0199340200    0.0003369946    
0.0887791620    0.0197811400    0.0003313466    
0.0890018230    0.0196631340    0.0003335611    
0.0892244840    0.0198322450    0.0003355619    
0.0894471450    0.0197044660    0.0003330663    
0.0896698060    0.0194108220    0.0003293283    
0.0898924670    0.0196926980    0.0003332484    
0.0901151280    0.0193413170    0.0003266947    
0.0903377890    0.0195205280    0.0003309515    
0.0905604500    0.0193417690    0.0003279208    
0.0907831110    0.0190133110    0.0003243157    
0.0910057720    0.0198693190    0.0003330573    
0.0912284330    0.0194725710    0.0003249945    
0.0914510940    0.0193657960    0.0003277164    
0.0916737550    0.0194905290    0.0003279543    
0.0918964160    0.0189630130    0.0003248311    
0.0921190770    0.0197144670    0.0003282100    
0.0923417380    0.0196650230    0.0003279326    
0.0925643990    0.0192641500    0.0003237786    
0.0927870600    0.0200863490    0.0003319718    
0.0930097210    0.0195299190    0.0003245534    
0.0932323820    0.0192872080    0.0003249013    
