# Diamond Light Source Ltd.
# Data extracted from: /dls/b21/data/2018/cm19678-3/processed/b21-386631_00213.dat
q(1/A)          Column          Error           
0.0035000000    2.0862521000    0.0246038080    
0.0037226610    1.8758618000    0.0228390310    
0.0039453220    1.6051366000    0.0192194020    
0.0041679830    1.2863143000    0.0141293510    
0.0043906440    0.9915395200    0.0118655810    
0.0046133050    0.7843545900    0.0101310410    
0.0048359660    0.6089447800    0.0084437329    
0.0050586270    0.4626336800    0.0072339515    
0.0052812880    0.4240826200    0.0065484160    
0.0055039490    0.3846056700    0.0059296550    
0.0057266100    0.3169147500    0.0052072324    
0.0059492710    0.2723379500    0.0048271394    
0.0061719320    0.2224564000    0.0042040309    
0.0063945930    0.1997224700    0.0040317133    
0.0066172539    0.1860740600    0.0036541349    
0.0068399149    0.1731684700    0.0034696203    
0.0070625759    0.1465489000    0.0031590859    
0.0072852369    0.1253465500    0.0028779200    
0.0075078979    0.1129948500    0.0027190205    
0.0077305589    0.1002313900    0.0025120727    
0.0079532199    0.0978400980    0.0024475326    
0.0081758809    0.0884421140    0.0023486646    
0.0083985419    0.0855101820    0.0021539704    
0.0086212029    0.0791620400    0.0020724751    
0.0088438639    0.0730370040    0.0019746944    
0.0090665249    0.0645456740    0.0017929354    
0.0092891859    0.0626677170    0.0018439659    
0.0095118469    0.0607156710    0.0017454528    
0.0097345079    0.0583121080    0.0016613204    
0.0099571689    0.0547970480    0.0015772609    
0.0101798300    0.0518914970    0.0015348753    
0.0104024910    0.0488804220    0.0014846371    
0.0106251520    0.0490767530    0.0014926671    
0.0108478130    0.0462423740    0.0014110356    
0.0110704740    0.0439840720    0.0013101876    
0.0112931350    0.0422014390    0.0012871318    
0.0115157960    0.0397318980    0.0012416218    
0.0117384570    0.0395465500    0.0012280590    
0.0119611180    0.0387382600    0.0012189319    
0.0121837790    0.0361864010    0.0011582985    
0.0124064400    0.0360925830    0.0011085749    
0.0126291010    0.0351947660    0.0010809986    
0.0128517620    0.0381737130    0.0011286295    
0.0130744230    0.0339275210    0.0010561176    
0.0132970840    0.0343452880    0.0010574040    
0.0135197450    0.0311229900    0.0009921647    
0.0137424060    0.0308467900    0.0009740012    
0.0139650670    0.0308402940    0.0009522057    
0.0141877280    0.0311244130    0.0009586959    
0.0144103890    0.0300603380    0.0009259202    
0.0146330500    0.0289758540    0.0009032928    
0.0148557110    0.0273651290    0.0008741470    
0.0150783720    0.0288920870    0.0008907812    
0.0153010330    0.0286170150    0.0008740312    
0.0155236940    0.0273280670    0.0008490417    
0.0157463550    0.0272553830    0.0008332214    
0.0159690160    0.0269730720    0.0008257493    
0.0161916770    0.0258451660    0.0008037464    
0.0164143380    0.0250963590    0.0007980178    
0.0166369990    0.0250265840    0.0007723371    
0.0168596600    0.0250324450    0.0007656220    
0.0170823210    0.0256134290    0.0007677506    
0.0173049820    0.0231618790    0.0007313467    
0.0175276430    0.0242189240    0.0007557351    
0.0177503040    0.0245899150    0.0007420888    
0.0179729650    0.0245436600    0.0007340378    
0.0181956260    0.0254912670    0.0007337326    
0.0184182870    0.0248749700    0.0007213925    
0.0186409480    0.0239832150    0.0007128271    
0.0188636090    0.0233268370    0.0006985837    
0.0190862700    0.0245887040    0.0007161084    
0.0193089310    0.0232023040    0.0006945428    
0.0195315920    0.0224658180    0.0006601885    
0.0197542530    0.0230372080    0.0006695053    
0.0199769140    0.0228231880    0.0006663882    
0.0201995750    0.0236787600    0.0006681349    
0.0204222360    0.0219774910    0.0006492109    
0.0206448970    0.0222333810    0.0006483386    
0.0208675580    0.0227416920    0.0006422055    
0.0210902190    0.0227944480    0.0006491537    
0.0213128800    0.0213705600    0.0006200228    
0.0215355410    0.0224801870    0.0006283403    
0.0217582020    0.0219181910    0.0006204366    
0.0219808630    0.0220358360    0.0006212826    
0.0222035240    0.0220167030    0.0006153856    
0.0224261850    0.0208662340    0.0005937595    
0.0226488460    0.0213196050    0.0005956684    
0.0228715070    0.0220915080    0.0006048497    
0.0230941680    0.0212469380    0.0005931753    
0.0233168290    0.0214361310    0.0005972944    
0.0235394900    0.0217794730    0.0005954144    
0.0237621510    0.0206688430    0.0005644192    
0.0239848120    0.0216745150    0.0005786561    
0.0242074730    0.0205231920    0.0005585705    
0.0244301340    0.0217280760    0.0005753889    
0.0246527950    0.0215891090    0.0005788568    
0.0248754560    0.0211041860    0.0005594563    
0.0250981170    0.0210941320    0.0005605702    
0.0253207780    0.0211992970    0.0005451871    
0.0255434390    0.0204798580    0.0005415754    
0.0257661000    0.0211891410    0.0005526557    
0.0259887610    0.0212491240    0.0005475560    
0.0262114220    0.0210340830    0.0005476809    
0.0264340830    0.0208541030    0.0005379130    
0.0266567440    0.0205560710    0.0005307555    
0.0268794050    0.0210410540    0.0005347884    
0.0271020660    0.0221249150    0.0005461694    
0.0273247270    0.0214869650    0.0005350051    
0.0275473880    0.0208044730    0.0005253923    
0.0277700490    0.0211623850    0.0005267601    
0.0279927100    0.0212327640    0.0005230316    
0.0282153710    0.0209973970    0.0005226533    
0.0284380320    0.0201245650    0.0005087089    
0.0286606930    0.0207421800    0.0005120355    
0.0288833540    0.0206434260    0.0005117855    
0.0291060150    0.0202116820    0.0005059249    
0.0293286760    0.0207112880    0.0005050032    
0.0295513370    0.0212143740    0.0005055342    
0.0297739980    0.0201941430    0.0004986588    
0.0299966590    0.0198314210    0.0004857200    
0.0302193200    0.0210994000    0.0005083086    
0.0304419810    0.0205625830    0.0005027241    
0.0306646420    0.0203003610    0.0004854102    
0.0308873030    0.0209998840    0.0004915701    
0.0311099640    0.0198830190    0.0004795616    
0.0313326250    0.0206100420    0.0004828416    
0.0315552860    0.0205325430    0.0004881787    
0.0317779470    0.0201381230    0.0004838882    
0.0320006080    0.0209435580    0.0004822582    
0.0322232690    0.0202122400    0.0004757468    
0.0324459300    0.0204962340    0.0004755008    
0.0326685910    0.0203847330    0.0004734239    
0.0328912520    0.0205531710    0.0004769500    
0.0331139130    0.0205178870    0.0004703414    
0.0333365740    0.0198265980    0.0004638514    
0.0335592350    0.0199474350    0.0004607892    
0.0337818960    0.0199050560    0.0004599329    
0.0340045570    0.0209753960    0.0004713870    
0.0342272170    0.0204529010    0.0004636428    
0.0344498780    0.0207847360    0.0004692400    
0.0346725390    0.0197260640    0.0004486674    
0.0348952000    0.0191725990    0.0004403133    
0.0351178610    0.0196954740    0.0004483196    
0.0353405220    0.0197085670    0.0004464256    
0.0355631830    0.0190585890    0.0004373491    
0.0357858440    0.0203833690    0.0004522942    
0.0360085050    0.0203451810    0.0004532356    
0.0362311660    0.0206431630    0.0004511157    
0.0364538270    0.0196534830    0.0004366363    
0.0366764880    0.0205839410    0.0004465284    
0.0368991490    0.0198303500    0.0004360689    
0.0371218100    0.0200221460    0.0004369191    
0.0373444710    0.0203144540    0.0004448895    
0.0375671320    0.0201290350    0.0004422095    
0.0377897930    0.0210362010    0.0004403617    
0.0380124540    0.0199008530    0.0004310008    
0.0382351150    0.0201528940    0.0004337217    
0.0384577760    0.0195827820    0.0004234177    
0.0386804370    0.0192693150    0.0004232204    
0.0389030980    0.0194729470    0.0004222289    
0.0391257590    0.0196068310    0.0004208017    
0.0393484200    0.0195468430    0.0004187434    
0.0395710810    0.0197074800    0.0004210270    
0.0397937420    0.0189429410    0.0004127796    
0.0400164030    0.0200041880    0.0004259103    
0.0402390640    0.0193778810    0.0004136081    
0.0404617250    0.0200223530    0.0004179495    
0.0406843860    0.0195517570    0.0004090183    
0.0409070470    0.0196816870    0.0004146501    
0.0411297080    0.0197311000    0.0004111538    
0.0413523690    0.0200654710    0.0004156917    
0.0415750300    0.0198472520    0.0004169370    
0.0417976910    0.0201720480    0.0004094634    
0.0420203520    0.0196121250    0.0004052576    
0.0422430130    0.0197946550    0.0004086805    
0.0424656740    0.0194800050    0.0004001427    
0.0426883350    0.0195742360    0.0004031001    
0.0429109960    0.0194712080    0.0004032940    
0.0431336570    0.0194947680    0.0003978524    
0.0433563180    0.0194030370    0.0004003393    
0.0435789790    0.0200385680    0.0004004511    
0.0438016400    0.0194805520    0.0003969840    
0.0440243010    0.0205853820    0.0004039457    
0.0442469620    0.0201268940    0.0004018153    
0.0444696230    0.0201022690    0.0004001294    
0.0446922840    0.0203709980    0.0004015988    
0.0449149450    0.0195756540    0.0003884181    
0.0451376060    0.0202912220    0.0004003374    
0.0453602670    0.0191178400    0.0003845161    
0.0455829280    0.0189656300    0.0003825395    
0.0458055890    0.0191718530    0.0003868565    
0.0460282500    0.0204265450    0.0003944995    
0.0462509110    0.0196465280    0.0003844876    
0.0464735720    0.0199700400    0.0003878592    
0.0466962330    0.0197947370    0.0003879085    
0.0469188940    0.0196297550    0.0003851935    
0.0471415550    0.0197249980    0.0003881099    
0.0473642160    0.0193472430    0.0003789936    
0.0475868770    0.0194054090    0.0003776773    
0.0478095380    0.0194909680    0.0003768526    
0.0480321990    0.0197667470    0.0003803408    
0.0482548600    0.0200083960    0.0003809914    
0.0484775210    0.0196159530    0.0003809821    
0.0487001820    0.0199726490    0.0003788029    
0.0489228430    0.0193196420    0.0003723587    
0.0491455040    0.0193364320    0.0003699440    
0.0493681650    0.0197997940    0.0003775673    
0.0495908260    0.0203361950    0.0003762094    
0.0498134870    0.0194485090    0.0003714091    
0.0500361480    0.0194162860    0.0003701195    
0.0502588090    0.0199614540    0.0003696566    
0.0504814700    0.0197631320    0.0003726241    
0.0507041310    0.0193165630    0.0003640102    
0.0509267920    0.0198709550    0.0003707242    
0.0511494530    0.0199548900    0.0003690291    
0.0513721140    0.0195092050    0.0003680982    
0.0515947750    0.0195971470    0.0003640354    
0.0518174360    0.0191880550    0.0003580459    
0.0520400970    0.0202669920    0.0003654232    
0.0522627580    0.0198221910    0.0003644623    
0.0524854190    0.0200777310    0.0003697864    
0.0527080800    0.0202238430    0.0003740029    
0.0529307410    0.0196323120    0.0003702233    
0.0531534020    0.0192886290    0.0003656325    
0.0533760630    0.0192352210    0.0003662689    
0.0535987240    0.0189178410    0.0003615388    
0.0538213850    0.0198183180    0.0003743305    
0.0540440460    0.0191899460    0.0003666051    
0.0542667070    0.0196044680    0.0003730971    
0.0544893680    0.0205849540    0.0003825169    
0.0547120290    0.0196448420    0.0003711201    
0.0549346900    0.0194900580    0.0003698496    
0.0551573510    0.0197504610    0.0003766950    
0.0553800120    0.0197127250    0.0003731356    
0.0556026730    0.0195231110    0.0003790359    
0.0558253340    0.0195072330    0.0003820544    
0.0560479950    0.0196419400    0.0003833714    
0.0562706560    0.0193065400    0.0003837588    
0.0564933170    0.0195501680    0.0003895260    
0.0567159780    0.0200387670    0.0003896352    
0.0569386390    0.0198047970    0.0003934297    
0.0571613000    0.0196345550    0.0003833003    
0.0573839610    0.0197146000    0.0003808918    
0.0576066220    0.0194983150    0.0003798453    
0.0578292830    0.0190092990    0.0003738108    
0.0580519440    0.0189421740    0.0003745971    
0.0582746050    0.0200604720    0.0003837963    
0.0584972660    0.0197395980    0.0003792572    
0.0587199270    0.0197588200    0.0003761709    
0.0589425880    0.0197831660    0.0003742010    
0.0591652490    0.0194938830    0.0003736408    
0.0593879100    0.0191912990    0.0003679764    
0.0596105710    0.0195732760    0.0003712283    
0.0598332320    0.0195440760    0.0003741221    
0.0600558930    0.0195431260    0.0003717278    
0.0602785540    0.0196570530    0.0003724156    
0.0605012150    0.0194478410    0.0003696480    
0.0607238760    0.0192208150    0.0003648061    
0.0609465370    0.0196020100    0.0003713061    
0.0611691980    0.0189586250    0.0003657405    
0.0613918590    0.0188368310    0.0003605837    
0.0616145200    0.0196248560    0.0003707425    
0.0618371810    0.0193580030    0.0003645969    
0.0620598420    0.0192809580    0.0003642458    
0.0622825030    0.0202511260    0.0003790060    
0.0625051640    0.0191829300    0.0003636942    
0.0627278250    0.0196739710    0.0003675612    
0.0629504860    0.0201187920    0.0003686715    
0.0631731470    0.0194772360    0.0003672337    
0.0633958080    0.0193939010    0.0003685562    
0.0636184690    0.0193258400    0.0003730329    
0.0638411300    0.0202672790    0.0003805768    
0.0640637910    0.0204881510    0.0003853362    
0.0642864520    0.0202624740    0.0003823789    
0.0645091130    0.0188935470    0.0003724720    
0.0647317740    0.0197005870    0.0003807632    
0.0649544350    0.0197674100    0.0003809888    
0.0651770960    0.0191746530    0.0003731862    
0.0653997570    0.0188963230    0.0003696644    
0.0656224180    0.0195886960    0.0003771942    
0.0658450790    0.0197211060    0.0003730271    
0.0660677400    0.0198964430    0.0003762763    
0.0662904010    0.0197913730    0.0003797616    
0.0665130620    0.0204291160    0.0003841580    
0.0667357230    0.0196055530    0.0003830262    
0.0669583840    0.0199279970    0.0003848710    
0.0671810450    0.0198188160    0.0003816961    
0.0674037060    0.0191427980    0.0003814851    
0.0676263670    0.0202494420    0.0003894844    
0.0678490280    0.0199137200    0.0003838801    
0.0680716890    0.0199429820    0.0003850169    
0.0682943500    0.0194503490    0.0003760672    
0.0685170110    0.0194762680    0.0003724830    
0.0687396720    0.0194508590    0.0003712510    
0.0689623330    0.0198840220    0.0003741725    
0.0691849940    0.0197107530    0.0003751198    
0.0694076550    0.0194757770    0.0003726782    
0.0696303160    0.0197932940    0.0003727293    
0.0698529770    0.0194308340    0.0003685268    
0.0700756380    0.0196912180    0.0003662255    
0.0702982990    0.0193498360    0.0003669906    
0.0705209600    0.0203131470    0.0003733000    
0.0707436210    0.0200046500    0.0003687532    
0.0709662820    0.0201573150    0.0003745704    
0.0711889430    0.0190201030    0.0003593820    
0.0714116040    0.0199364810    0.0003686887    
0.0716342650    0.0191797730    0.0003601558    
0.0718569260    0.0199580840    0.0003659109    
0.0720795870    0.0192542150    0.0003608545    
0.0723022480    0.0199980860    0.0003683195    
0.0725249090    0.0191842390    0.0003564268    
0.0727475700    0.0196615440    0.0003639155    
0.0729702310    0.0198198090    0.0003624631    
0.0731928920    0.0192702820    0.0003588314    
0.0734155530    0.0195129040    0.0003603628    
0.0736382140    0.0200713670    0.0003631377    
0.0738608750    0.0197458850    0.0003625082    
0.0740835360    0.0198532520    0.0003625900    
0.0743061970    0.0193881940    0.0003532725    
0.0745288580    0.0196969800    0.0003597359    
0.0747515190    0.0194780390    0.0003584376    
0.0749741800    0.0194298840    0.0003546804    
0.0751968410    0.0196243920    0.0003592500    
0.0754195020    0.0197201020    0.0003580151    
0.0756421630    0.0193350770    0.0003516050    
0.0758648240    0.0191454650    0.0003507178    
0.0760874850    0.0196983270    0.0003555747    
0.0763101460    0.0199296040    0.0003573129    
0.0765328070    0.0196857510    0.0003587539    
0.0767554680    0.0190841210    0.0003508324    
0.0769781290    0.0189801780    0.0003478651    
0.0772007900    0.0200759950    0.0003548968    
0.0774234510    0.0200194880    0.0003564128    
0.0776461120    0.0194748640    0.0003511979    
0.0778687730    0.0195036930    0.0003502967    
0.0780914340    0.0198727540    0.0003561220    
0.0783140950    0.0203658900    0.0003547935    
0.0785367560    0.0193750320    0.0003516345    
0.0787594170    0.0191046160    0.0003460436    
0.0789820780    0.0190334120    0.0003436283    
0.0792047390    0.0195639640    0.0003495237    
0.0794274000    0.0198308610    0.0003533908    
0.0796500610    0.0200816890    0.0003521478    
0.0798727220    0.0196932960    0.0003484039    
0.0800953830    0.0195353320    0.0003462057    
0.0803180440    0.0192236570    0.0003458253    
0.0805407050    0.0194176780    0.0003472429    
0.0807633660    0.0194684200    0.0003473736    
0.0809860270    0.0188819240    0.0003408378    
0.0812086880    0.0199174740    0.0003470343    
0.0814313490    0.0191903850    0.0003421948    
0.0816540100    0.0190423630    0.0003400964    
0.0818766710    0.0194223130    0.0003442569    
0.0820993320    0.0192968690    0.0003425180    
0.0823219930    0.0188249930    0.0003396995    
0.0825446540    0.0193438350    0.0003418471    
0.0827673150    0.0192218800    0.0003384784    
0.0829899760    0.0196226890    0.0003413803    
0.0832126370    0.0196790170    0.0003434012    
0.0834352980    0.0195732180    0.0003417111    
0.0836579590    0.0199613050    0.0003443140    
0.0838806200    0.0195485590    0.0003418019    
0.0841032810    0.0192239740    0.0003368482    
0.0843259420    0.0185191470    0.0003295973    
0.0845486030    0.0194988090    0.0003382031    
0.0847712640    0.0194415110    0.0003356478    
0.0849939250    0.0191371220    0.0003335897    
0.0852165860    0.0195604270    0.0003377008    
0.0854392470    0.0198838670    0.0003372570    
0.0856619080    0.0191445610    0.0003333651    
0.0858845690    0.0198388100    0.0003362993    
0.0861072300    0.0193738510    0.0003346293    
0.0863298910    0.0195597600    0.0003379916    
0.0865525520    0.0196883650    0.0003361728    
0.0867752130    0.0196938400    0.0003335066    
0.0869978740    0.0193061610    0.0003310492    
0.0872205350    0.0194948770    0.0003322400    
0.0874431960    0.0194439470    0.0003318060    
0.0876658570    0.0197361910    0.0003355738    
0.0878885180    0.0196207160    0.0003351643    
0.0881111790    0.0194390490    0.0003331810    
0.0883338400    0.0189183470    0.0003238759    
0.0885565010    0.0193893510    0.0003323292    
0.0887791620    0.0194224700    0.0003282997    
0.0890018230    0.0190542910    0.0003283271    
0.0892244840    0.0195108240    0.0003328019    
0.0894471450    0.0188735220    0.0003259389    
0.0896698060    0.0196978660    0.0003317249    
0.0898924670    0.0199316470    0.0003352343    
0.0901151280    0.0194096020    0.0003272418    
0.0903377890    0.0197807250    0.0003331203    
0.0905604500    0.0194772950    0.0003290384    
0.0907831110    0.0191150180    0.0003251531    
0.0910057720    0.0187605810    0.0003236026    
0.0912284330    0.0196806110    0.0003266970    
0.0914510940    0.0192514570    0.0003267185    
0.0916737550    0.0193601660    0.0003268266    
0.0918964160    0.0193713240    0.0003282804    
0.0921190770    0.0194214160    0.0003257325    
0.0923417380    0.0194592240    0.0003261832    
0.0925643990    0.0195382090    0.0003260446    
0.0927870600    0.0199730660    0.0003310049    
0.0930097210    0.0194239890    0.0003236433    
0.0932323820    0.0191250870    0.0003235041    
