# Diamond Light Source Ltd.
# Data extracted from: /dls/b21/data/2018/cm19678-3/processed/b21-386631_00208.dat
q(1/A)          Column          Error           
0.0035000000    2.0999599000    0.0246798050    
0.0037226610    1.9054454000    0.0230140350    
0.0039453220    1.6325900000    0.0193793730    
0.0041679830    1.2788429000    0.0140855740    
0.0043906440    0.9812260900    0.0118014620    
0.0046133050    0.7954360200    0.0102004130    
0.0048359660    0.6098832100    0.0084486271    
0.0050586270    0.4612136900    0.0072214655    
0.0052812880    0.4343321200    0.0066258145    
0.0055039490    0.3799812800    0.0058927763    
0.0057266100    0.3236362400    0.0052611609    
0.0059492710    0.2791619500    0.0048863114    
0.0061719320    0.2263425900    0.0042397852    
0.0063945930    0.2033887400    0.0040677749    
0.0066172539    0.1870074400    0.0036625906    
0.0068399149    0.1660839000    0.0033972584    
0.0070625759    0.1484672000    0.0031790889    
0.0072852369    0.1285353100    0.0029137415    
0.0075078979    0.1107280900    0.0026910969    
0.0077305589    0.0983051460    0.0024873434    
0.0079532199    0.1002509600    0.0024770319    
0.0081758809    0.0897177190    0.0023650909    
0.0083985419    0.0848810030    0.0021456226    
0.0086212029    0.0738166540    0.0020008996    
0.0088438639    0.0731692920    0.0019761055    
0.0090665249    0.0677073150    0.0018359723    
0.0092891859    0.0647590940    0.0018741252    
0.0095118469    0.0619966820    0.0017634340    
0.0097345079    0.0561608020    0.0016300763    
0.0099571689    0.0535962420    0.0015595862    
0.0101798300    0.0515540570    0.0015295852    
0.0104024910    0.0454811440    0.0014318113    
0.0106251520    0.0474696860    0.0014677447    
0.0108478130    0.0475589950    0.0014307097    
0.0110704740    0.0427189120    0.0012909610    
0.0112931350    0.0426170290    0.0012932076    
0.0115157960    0.0412682010    0.0012651579    
0.0117384570    0.0367486530    0.0011835944    
0.0119611180    0.0371899010    0.0011940957    
0.0121837790    0.0378774740    0.0011848287    
0.0124064400    0.0372701180    0.0011262990    
0.0126291010    0.0332895320    0.0010511319    
0.0128517620    0.0343899530    0.0010710315    
0.0130744230    0.0332902020    0.0010459519    
0.0132970840    0.0314033930    0.0010109110    
0.0135197450    0.0307001140    0.0009852135    
0.0137424060    0.0323414380    0.0009971292    
0.0139650670    0.0308579360    0.0009522966    
0.0141877280    0.0288101100    0.0009221892    
0.0144103890    0.0289085130    0.0009078347    
0.0146330500    0.0288803720    0.0009016316    
0.0148557110    0.0300622640    0.0009160387    
0.0150783720    0.0260533710    0.0008457282    
0.0153010330    0.0270050270    0.0008488957    
0.0155236940    0.0278713940    0.0008572771    
0.0157463550    0.0260482580    0.0008144058    
0.0159690160    0.0268869890    0.0008242735    
0.0161916770    0.0264099950    0.0008123269    
0.0164143380    0.0243004590    0.0007851122    
0.0166369990    0.0258271270    0.0007844431    
0.0168596600    0.0250697260    0.0007660460    
0.0170823210    0.0241314050    0.0007450662    
0.0173049820    0.0243764980    0.0007501349    
0.0175276430    0.0262605690    0.0007867949    
0.0177503040    0.0243566830    0.0007384204    
0.0179729650    0.0238101320    0.0007228479    
0.0181956260    0.0243204260    0.0007165474    
0.0184182870    0.0238616730    0.0007064120    
0.0186409480    0.0226610120    0.0006927673    
0.0188636090    0.0236943850    0.0007039316    
0.0190862700    0.0222444060    0.0006809866    
0.0193089310    0.0218010280    0.0006731149    
0.0195315920    0.0233299520    0.0006726374    
0.0197542530    0.0251484500    0.0006993780    
0.0199769140    0.0226394480    0.0006635740    
0.0201995750    0.0231043810    0.0006598559    
0.0204222360    0.0211831390    0.0006372490    
0.0206448970    0.0225839880    0.0006533060    
0.0208675580    0.0235125510    0.0006528746    
0.0210902190    0.0229520850    0.0006512704    
0.0213128800    0.0229088580    0.0006418281    
0.0215355410    0.0221907290    0.0006241630    
0.0217582020    0.0215060550    0.0006144587    
0.0219808630    0.0211519490    0.0006085789    
0.0222035240    0.0215784670    0.0006091142    
0.0224261850    0.0220405370    0.0006101223    
0.0226488460    0.0222264970    0.0006080899    
0.0228715070    0.0213050530    0.0005938727    
0.0230941680    0.0218844530    0.0006018940    
0.0233168290    0.0210952340    0.0005924132    
0.0235394900    0.0216898200    0.0005940744    
0.0237621510    0.0205993420    0.0005633621    
0.0239848120    0.0210639900    0.0005703395    
0.0242074730    0.0206217510    0.0005598035    
0.0244301340    0.0215065620    0.0005723394    
0.0246527950    0.0217980900    0.0005815409    
0.0248754560    0.0220746060    0.0005720653    
0.0250981170    0.0226645760    0.0005809520    
0.0253207780    0.0207567460    0.0005393637    
0.0255434390    0.0210303860    0.0005487017    
0.0257661000    0.0214692480    0.0005561907    
0.0259887610    0.0206063390    0.0005391079    
0.0262114220    0.0211116000    0.0005485846    
0.0264340830    0.0211096840    0.0005410961    
0.0266567440    0.0199180950    0.0005223548    
0.0268794050    0.0212776090    0.0005376838    
0.0271020660    0.0209035180    0.0005307787    
0.0273247270    0.0209727710    0.0005284642    
0.0275473880    0.0210087590    0.0005278649    
0.0277700490    0.0204072390    0.0005171779    
0.0279927100    0.0203489010    0.0005119322    
0.0282153710    0.0206512800    0.0005182290    
0.0284380320    0.0201940250    0.0005094890    
0.0286606930    0.0202794140    0.0005061950    
0.0288833540    0.0193291930    0.0004951323    
0.0291060150    0.0210521450    0.0005162383    
0.0293286760    0.0202356650    0.0004990759    
0.0295513370    0.0214832640    0.0005086310    
0.0297739980    0.0209865240    0.0005082511    
0.0299966590    0.0206800870    0.0004959097    
0.0302193200    0.0205282740    0.0005012864    
0.0304419810    0.0204687480    0.0005014802    
0.0306646420    0.0199097480    0.0004806259    
0.0308873030    0.0204857800    0.0004854232    
0.0311099640    0.0207772990    0.0004901342    
0.0313326250    0.0202629680    0.0004786676    
0.0315552860    0.0205247220    0.0004879928    
0.0317779470    0.0193284890    0.0004739710    
0.0320006080    0.0208467760    0.0004810510    
0.0322232690    0.0210664520    0.0004856033    
0.0324459300    0.0206979430    0.0004777438    
0.0326685910    0.0201241800    0.0004702990    
0.0328912520    0.0206227890    0.0004776661    
0.0331139130    0.0194646300    0.0004580230    
0.0333365740    0.0199383720    0.0004650685    
0.0335592350    0.0204931300    0.0004669605    
0.0337818960    0.0200780710    0.0004618395    
0.0340045570    0.0196648860    0.0004563368    
0.0342272170    0.0196781560    0.0004546901    
0.0344498780    0.0198025750    0.0004579319    
0.0346725390    0.0204734250    0.0004570006    
0.0348952000    0.0202873150    0.0004528464    
0.0351178610    0.0201470180    0.0004533433    
0.0353405220    0.0204692900    0.0004548731    
0.0355631830    0.0193723630    0.0004408506    
0.0357858440    0.0201950240    0.0004501140    
0.0360085050    0.0195703620    0.0004444367    
0.0362311660    0.0198863590    0.0004426849    
0.0364538270    0.0200532680    0.0004409709    
0.0366764880    0.0204114910    0.0004445693    
0.0368991490    0.0189217610    0.0004258807    
0.0371218100    0.0202432570    0.0004392413    
0.0373444710    0.0202288010    0.0004438660    
0.0375671320    0.0194901480    0.0004350523    
0.0377897930    0.0194801010    0.0004236807    
0.0380124540    0.0197346490    0.0004291155    
0.0382351150    0.0200425790    0.0004324506    
0.0384577760    0.0201610270    0.0004295418    
0.0386804370    0.0201447000    0.0004326445    
0.0389030980    0.0203349350    0.0004313907    
0.0391257590    0.0193104730    0.0004175298    
0.0393484200    0.0199249840    0.0004226939    
0.0395710810    0.0199517310    0.0004235473    
0.0397937420    0.0197719180    0.0004216346    
0.0400164030    0.0199603100    0.0004253619    
0.0402390640    0.0205000780    0.0004253348    
0.0404617250    0.0201281000    0.0004189719    
0.0406843860    0.0193989030    0.0004073387    
0.0409070470    0.0199012340    0.0004168769    
0.0411297080    0.0204001640    0.0004179870    
0.0413523690    0.0198684400    0.0004135670    
0.0415750300    0.0204613240    0.0004232572    
0.0417976910    0.0194581550    0.0004020760    
0.0420203520    0.0199060080    0.0004082049    
0.0422430130    0.0202425730    0.0004131998    
0.0424656740    0.0206885940    0.0004122903    
0.0426883350    0.0202555180    0.0004099770    
0.0429109960    0.0196725410    0.0004052965    
0.0431336570    0.0197957640    0.0004008357    
0.0433563180    0.0195277580    0.0004015474    
0.0435789790    0.0203109200    0.0004030865    
0.0438016400    0.0193194820    0.0003952641    
0.0440243010    0.0192701500    0.0003907539    
0.0442469620    0.0197423430    0.0003978823    
0.0444696230    0.0193303170    0.0003922967    
0.0446922840    0.0194768490    0.0003926114    
0.0449149450    0.0202538550    0.0003950139    
0.0451376060    0.0202913880    0.0004002628    
0.0453602670    0.0200846400    0.0003940438    
0.0455829280    0.0199070970    0.0003918447    
0.0458055890    0.0196093300    0.0003911709    
0.0460282500    0.0197790120    0.0003881223    
0.0462509110    0.0200226490    0.0003880767    
0.0464735720    0.0200452650    0.0003885150    
0.0466962330    0.0195060430    0.0003849960    
0.0469188940    0.0193502710    0.0003823687    
0.0471415550    0.0192823720    0.0003836576    
0.0473642160    0.0192953460    0.0003784129    
0.0475868770    0.0203605710    0.0003867868    
0.0478095380    0.0203211540    0.0003847213    
0.0480321990    0.0197811650    0.0003804070    
0.0482548600    0.0194061180    0.0003751419    
0.0484775210    0.0203777310    0.0003882353    
0.0487001820    0.0193833260    0.0003731014    
0.0489228430    0.0189679330    0.0003688835    
0.0491455040    0.0192229410    0.0003687865    
0.0493681650    0.0197634640    0.0003771489    
0.0495908260    0.0197092740    0.0003702946    
0.0498134870    0.0194552820    0.0003714030    
0.0500361480    0.0200718400    0.0003762441    
0.0502588090    0.0195295910    0.0003655663    
0.0504814700    0.0194536170    0.0003696243    
0.0507041310    0.0197069090    0.0003675997    
0.0509267920    0.0194001610    0.0003662364    
0.0511494530    0.0198244950    0.0003677514    
0.0513721140    0.0202724030    0.0003751576    
0.0515947750    0.0194815260    0.0003628908    
0.0518174360    0.0192876030    0.0003589051    
0.0520400970    0.0197850630    0.0003609836    
0.0522627580    0.0199285180    0.0003653688    
0.0524854190    0.0198930740    0.0003680118    
0.0527080800    0.0199395850    0.0003712945    
0.0529307410    0.0193735920    0.0003677058    
0.0531534020    0.0196831200    0.0003692822    
0.0533760630    0.0194928180    0.0003686430    
0.0535987240    0.0202574490    0.0003740492    
0.0538213850    0.0197683630    0.0003737872    
0.0540440460    0.0194906790    0.0003693962    
0.0542667070    0.0197673480    0.0003745724    
0.0544893680    0.0196036790    0.0003732173    
0.0547120290    0.0200718760    0.0003750606    
0.0549346900    0.0198474520    0.0003731542    
0.0551573510    0.0194053900    0.0003733187    
0.0553800120    0.0193592630    0.0003697048    
0.0556026730    0.0199202590    0.0003827989    
0.0558253340    0.0198064740    0.0003849002    
0.0560479950    0.0197391750    0.0003842460    
0.0562706560    0.0192915610    0.0003835369    
0.0564933170    0.0198995950    0.0003929168    
0.0567159780    0.0194177040    0.0003834766    
0.0569386390    0.0201644480    0.0003969103    
0.0571613000    0.0202628620    0.0003893106    
0.0573839610    0.0199130630    0.0003827313    
0.0576066220    0.0197127950    0.0003818560    
0.0578292830    0.0199646530    0.0003830160    
0.0580519440    0.0193644570    0.0003786775    
0.0582746050    0.0199867710    0.0003830177    
0.0584972660    0.0196446720    0.0003782721    
0.0587199270    0.0195651640    0.0003742516    
0.0589425880    0.0192520540    0.0003690735    
0.0591652490    0.0200448500    0.0003788121    
0.0593879100    0.0194449470    0.0003703296    
0.0596105710    0.0194884020    0.0003703521    
0.0598332320    0.0193576590    0.0003722627    
0.0600558930    0.0196487680    0.0003726601    
0.0602785540    0.0191346990    0.0003673641    
0.0605012150    0.0191314090    0.0003665586    
0.0607238760    0.0191719660    0.0003642728    
0.0609465370    0.0196367280    0.0003715640    
0.0611691980    0.0201997850    0.0003774507    
0.0613918590    0.0198784320    0.0003703484    
0.0616145200    0.0192673210    0.0003672799    
0.0618371810    0.0185474990    0.0003568147    
0.0620598420    0.0190878940    0.0003623485    
0.0622825030    0.0188394910    0.0003654882    
0.0625051640    0.0189550550    0.0003614587    
0.0627278250    0.0201607130    0.0003720094    
0.0629504860    0.0195303500    0.0003631708    
0.0631731470    0.0195113460    0.0003674851    
0.0633958080    0.0193795130    0.0003683493    
0.0636184690    0.0192608980    0.0003723347    
0.0638411300    0.0194808950    0.0003730494    
0.0640637910    0.0190241930    0.0003712435    
0.0642864520    0.0192088370    0.0003722335    
0.0645091130    0.0191872990    0.0003752849    
0.0647317740    0.0200535470    0.0003840858    
0.0649544350    0.0197598800    0.0003808437    
0.0651770960    0.0200603730    0.0003816353    
0.0653997570    0.0198071960    0.0003783970    
0.0656224180    0.0196538380    0.0003777489    
0.0658450790    0.0201297310    0.0003768001    
0.0660677400    0.0185871250    0.0003636156    
0.0662904010    0.0193103620    0.0003750469    
0.0665130620    0.0199736250    0.0003797789    
0.0667357230    0.0194784020    0.0003817094    
0.0669583840    0.0195488950    0.0003811201    
0.0671810450    0.0196422550    0.0003799197    
0.0674037060    0.0187631320    0.0003776111    
0.0676263670    0.0192906750    0.0003800795    
0.0678490280    0.0192625700    0.0003774798    
0.0680716890    0.0191180580    0.0003768980    
0.0682943500    0.0196173810    0.0003776066    
0.0685170110    0.0193193080    0.0003709084    
0.0687396720    0.0194788670    0.0003714474    
0.0689623330    0.0197638340    0.0003729689    
0.0691849940    0.0198745160    0.0003766031    
0.0694076550    0.0195824170    0.0003736259    
0.0696303160    0.0192034080    0.0003670633    
0.0698529770    0.0196749590    0.0003707640    
0.0700756380    0.0196564830    0.0003658326    
0.0702982990    0.0194190010    0.0003675758    
0.0705209600    0.0199693870    0.0003700574    
0.0707436210    0.0199358780    0.0003680487    
0.0709662820    0.0194886510    0.0003682351    
0.0711889430    0.0199156470    0.0003676752    
0.0714116040    0.0196426310    0.0003658918    
0.0716342650    0.0192941540    0.0003611593    
0.0718569260    0.0198700090    0.0003650331    
0.0720795870    0.0189223820    0.0003576633    
0.0723022480    0.0192309940    0.0003611176    
0.0725249090    0.0198256510    0.0003622672    
0.0727475700    0.0195934570    0.0003632157    
0.0729702310    0.0193418010    0.0003579974    
0.0731928920    0.0201312440    0.0003666899    
0.0734155530    0.0203703110    0.0003681248    
0.0736382140    0.0189341110    0.0003526327    
0.0738608750    0.0198448060    0.0003633459    
0.0740835360    0.0189785170    0.0003544446    
0.0743061970    0.0201400840    0.0003599889    
0.0745288580    0.0194399110    0.0003573127    
0.0747515190    0.0197871080    0.0003612013    
0.0749741800    0.0198690510    0.0003585981    
0.0751968410    0.0195577510    0.0003585712    
0.0754195020    0.0192123040    0.0003533083    
0.0756421630    0.0194874980    0.0003529209    
0.0758648240    0.0196712150    0.0003554330    
0.0760874850    0.0194598460    0.0003533485    
0.0763101460    0.0194353290    0.0003527870    
0.0765328070    0.0199004580    0.0003606363    
0.0767554680    0.0193089460    0.0003528256    
0.0769781290    0.0194063250    0.0003516816    
0.0772007900    0.0191903580    0.0003469144    
0.0774234510    0.0196693460    0.0003532149    
0.0776461120    0.0195180930    0.0003515205    
0.0778687730    0.0194333730    0.0003495980    
0.0780914340    0.0197184600    0.0003546692    
0.0783140950    0.0200862790    0.0003522824    
0.0785367560    0.0197185150    0.0003546702    
0.0787594170    0.0200684960    0.0003545981    
0.0789820780    0.0190881770    0.0003440568    
0.0792047390    0.0197500170    0.0003511149    
0.0794274000    0.0193196990    0.0003487401    
0.0796500610    0.0193209550    0.0003453476    
0.0798727220    0.0192421720    0.0003443246    
0.0800953830    0.0195156250    0.0003459652    
0.0803180440    0.0193593680    0.0003469777    
0.0805407050    0.0192985490    0.0003461101    
0.0807633660    0.0196035080    0.0003485102    
0.0809860270    0.0197234490    0.0003482839    
0.0812086880    0.0185982760    0.0003352810    
0.0814313490    0.0192562710    0.0003427164    
0.0816540100    0.0189440330    0.0003391526    
0.0818766710    0.0195186070    0.0003450435    
0.0820993320    0.0200734970    0.0003492760    
0.0823219930    0.0191180740    0.0003422684    
0.0825446540    0.0195417880    0.0003435263    
0.0827673150    0.0187379180    0.0003341266    
0.0829899760    0.0193302490    0.0003387624    
0.0832126370    0.0194319170    0.0003411734    
0.0834352980    0.0196373230    0.0003422051    
0.0836579590    0.0198290280    0.0003431059    
0.0838806200    0.0199115040    0.0003448946    
0.0841032810    0.0189983480    0.0003348019    
0.0843259420    0.0192685270    0.0003361358    
0.0845486030    0.0191102320    0.0003347525    
0.0847712640    0.0195731280    0.0003367179    
0.0849939250    0.0197518000    0.0003388402    
0.0852165860    0.0193315120    0.0003356550    
0.0854392470    0.0195732320    0.0003345485    
0.0856619080    0.0189922020    0.0003319727    
0.0858845690    0.0197913640    0.0003358330    
0.0861072300    0.0199442310    0.0003394547    
0.0863298910    0.0194764120    0.0003372065    
0.0865525520    0.0187914980    0.0003283642    
0.0867752130    0.0197315030    0.0003337618    
0.0869978740    0.0190491310    0.0003287755    
0.0872205350    0.0192440700    0.0003300331    
0.0874431960    0.0196742630    0.0003337018    
0.0876658570    0.0196374160    0.0003346693    
0.0878885180    0.0194129320    0.0003333214    
0.0881111790    0.0202079970    0.0003396422    
0.0883338400    0.0190552470    0.0003249837    
0.0885565010    0.0190175580    0.0003290649    
0.0887791620    0.0195260150    0.0003291109    
0.0890018230    0.0195277330    0.0003323178    
0.0892244840    0.0194296230    0.0003320454    
0.0894471450    0.0193277220    0.0003297747    
0.0896698060    0.0189755680    0.0003255241    
0.0898924670    0.0188588080    0.0003260253    
0.0901151280    0.0196779650    0.0003294335    
0.0903377890    0.0200255430    0.0003351115    
0.0905604500    0.0189531250    0.0003245189    
0.0907831110    0.0190579780    0.0003246057    
0.0910057720    0.0192779290    0.0003279717    
0.0912284330    0.0192990600    0.0003234530    
0.0914510940    0.0191000150    0.0003253689    
0.0916737550    0.0197498850    0.0003300368    
0.0918964160    0.0196809310    0.0003308304    
0.0921190770    0.0197143760    0.0003281175    
0.0923417380    0.0195939160    0.0003272478    
0.0925643990    0.0190684680    0.0003220400    
0.0927870600    0.0192416350    0.0003248256    
0.0930097210    0.0195890860    0.0003249539    
0.0932323820    0.0192490830    0.0003244893    
