# Diamond Light Source Ltd.
# Data extracted from: /dls/b21/data/2018/cm19678-3/processed/b21-386631_00216.dat
q(1/A)          Column          Error           
0.0035000000    2.1137150000    0.0247663190    
0.0037226610    1.8790876000    0.0228596760    
0.0039453220    1.6089616000    0.0192431440    
0.0041679830    1.3204209000    0.0143160820    
0.0043906440    0.9724568700    0.0117513690    
0.0046133050    0.7880886400    0.0101555790    
0.0048359660    0.6013879000    0.0083915499    
0.0050586270    0.4688966000    0.0072830756    
0.0052812880    0.4332216200    0.0066188935    
0.0055039490    0.3847312900    0.0059308870    
0.0057266100    0.3166862200    0.0052055860    
0.0059492710    0.2650889000    0.0047626738    
0.0061719320    0.2238269300    0.0042171487    
0.0063945930    0.2049494200    0.0040843113    
0.0066172539    0.1875977000    0.0036692281    
0.0068399149    0.1656752900    0.0033938740    
0.0070625759    0.1454722500    0.0031476000    
0.0072852369    0.1291243700    0.0029210968    
0.0075078979    0.1135938000    0.0027263386    
0.0077305589    0.1025700000    0.0025413228    
0.0079532199    0.0959506040    0.0024238917    
0.0081758809    0.0928787140    0.0024069598    
0.0083985419    0.0813395680    0.0021008790    
0.0086212029    0.0823163070    0.0021134554    
0.0088438639    0.0711746950    0.0019494430    
0.0090665249    0.0647506450    0.0017958598    
0.0092891859    0.0646267420    0.0018726490    
0.0095118469    0.0583123000    0.0017106340    
0.0097345079    0.0573705830    0.0016479270    
0.0099571689    0.0517598910    0.0015329957    
0.0101798300    0.0500345700    0.0015072295    
0.0104024910    0.0474867720    0.0014633845    
0.0106251520    0.0482638550    0.0014803192    
0.0108478130    0.0450838650    0.0013933101    
0.0110704740    0.0429341450    0.0012945132    
0.0112931350    0.0406347650    0.0012630705    
0.0115157960    0.0381832660    0.0012172381    
0.0117384570    0.0388254270    0.0012168649    
0.0119611180    0.0385115560    0.0012154139    
0.0121837790    0.0372278450    0.0011749004    
0.0124064400    0.0377303190    0.0011334976    
0.0126291010    0.0363600900    0.0010987981    
0.0128517620    0.0335718260    0.0010584637    
0.0130744230    0.0329770630    0.0010412656    
0.0132970840    0.0334041700    0.0010428624    
0.0135197450    0.0325808230    0.0010151809    
0.0137424060    0.0322951240    0.0009966491    
0.0139650670    0.0314310830    0.0009613256    
0.0141877280    0.0289417800    0.0009245113    
0.0144103890    0.0283801660    0.0008997118    
0.0146330500    0.0300485760    0.0009199023    
0.0148557110    0.0276747490    0.0008791174    
0.0150783720    0.0280431970    0.0008776365    
0.0153010330    0.0285127710    0.0008724766    
0.0155236940    0.0284121090    0.0008657562    
0.0157463550    0.0274870780    0.0008367926    
0.0159690160    0.0260906140    0.0008121654    
0.0161916770    0.0252725200    0.0007948277    
0.0164143380    0.0270019210    0.0008277970    
0.0166369990    0.0253863630    0.0007779034    
0.0168596600    0.0266974040    0.0007907089    
0.0170823210    0.0261910820    0.0007763942    
0.0173049820    0.0250577000    0.0007607226    
0.0175276430    0.0244333360    0.0007591068    
0.0177503040    0.0245025130    0.0007408017    
0.0179729650    0.0239530530    0.0007251845    
0.0181956260    0.0225999020    0.0006908991    
0.0184182870    0.0236636600    0.0007036402    
0.0186409480    0.0234132590    0.0007043374    
0.0188636090    0.0230150690    0.0006939304    
0.0190862700    0.0236314490    0.0007020619    
0.0193089310    0.0238281410    0.0007038787    
0.0195315920    0.0236901570    0.0006779694    
0.0197542530    0.0226695390    0.0006641707    
0.0199769140    0.0207042040    0.0006347281    
0.0201995750    0.0227570100    0.0006550306    
0.0204222360    0.0220561620    0.0006504007    
0.0206448970    0.0213656070    0.0006355885    
0.0208675580    0.0223447010    0.0006366038    
0.0210902190    0.0219090210    0.0006364493    
0.0213128800    0.0220920720    0.0006304306    
0.0215355410    0.0225875710    0.0006298673    
0.0217582020    0.0226227080    0.0006303571    
0.0219808630    0.0214596980    0.0006131342    
0.0222035240    0.0223799040    0.0006204683    
0.0224261850    0.0208005010    0.0005928499    
0.0226488460    0.0209886120    0.0005910527    
0.0228715070    0.0210003910    0.0005897498    
0.0230941680    0.0210169620    0.0005899825    
0.0233168290    0.0219373710    0.0006042642    
0.0235394900    0.0209511760    0.0005840084    
0.0237621510    0.0205011230    0.0005621495    
0.0239848120    0.0208266890    0.0005672510    
0.0242074730    0.0214828510    0.0005715060    
0.0244301340    0.0215319080    0.0005728111    
0.0246527950    0.0211253700    0.0005726315    
0.0248754560    0.0212840480    0.0005618602    
0.0250981170    0.0207980410    0.0005566468    
0.0253207780    0.0223369590    0.0005596496    
0.0255434390    0.0221288060    0.0005629810    
0.0257661000    0.0219838860    0.0005629496    
0.0259887610    0.0208841300    0.0005428571    
0.0262114220    0.0211357840    0.0005490277    
0.0264340830    0.0205923090    0.0005345497    
0.0266567440    0.0203934360    0.0005286752    
0.0268794050    0.0199418410    0.0005206552    
0.0271020660    0.0210212120    0.0005323959    
0.0273247270    0.0210359170    0.0005293835    
0.0275473880    0.0210053630    0.0005279463    
0.0277700490    0.0217018970    0.0005334561    
0.0279927100    0.0209898350    0.0005200540    
0.0282153710    0.0212334570    0.0005256064    
0.0284380320    0.0209751330    0.0005193711    
0.0286606930    0.0218564400    0.0005256321    
0.0288833540    0.0213304760    0.0005202555    
0.0291060150    0.0205934310    0.0005107030    
0.0293286760    0.0206638710    0.0005044472    
0.0295513370    0.0197825660    0.0004881981    
0.0297739980    0.0203313990    0.0005003728    
0.0299966590    0.0206541140    0.0004957146    
0.0302193200    0.0209175730    0.0005061362    
0.0304419810    0.0200850260    0.0004968741    
0.0306646420    0.0207896960    0.0004912475    
0.0308873030    0.0202767590    0.0004830539    
0.0311099640    0.0203012230    0.0004846002    
0.0313326250    0.0204987470    0.0004815576    
0.0315552860    0.0204415060    0.0004871169    
0.0317779470    0.0206515510    0.0004900396    
0.0320006080    0.0200236440    0.0004715690    
0.0322232690    0.0198668710    0.0004716856    
0.0324459300    0.0208952200    0.0004801279    
0.0326685910    0.0205404890    0.0004752503    
0.0328912520    0.0200236900    0.0004707874    
0.0331139130    0.0203256210    0.0004681534    
0.0333365740    0.0190252410    0.0004544009    
0.0335592350    0.0204921170    0.0004670587    
0.0337818960    0.0200449940    0.0004615674    
0.0340045570    0.0204157490    0.0004650766    
0.0342272170    0.0204547190    0.0004636840    
0.0344498780    0.0202674490    0.0004633846    
0.0346725390    0.0205238700    0.0004576708    
0.0348952000    0.0192046430    0.0004407007    
0.0351178610    0.0199319590    0.0004510232    
0.0353405220    0.0195282840    0.0004443989    
0.0355631830    0.0194015410    0.0004412862    
0.0357858440    0.0199837010    0.0004478580    
0.0360085050    0.0199228840    0.0004485271    
0.0362311660    0.0201717610    0.0004459550    
0.0364538270    0.0198686630    0.0004390396    
0.0366764880    0.0198785890    0.0004388306    
0.0368991490    0.0195731840    0.0004332514    
0.0371218100    0.0201764900    0.0004386194    
0.0373444710    0.0207547400    0.0004497048    
0.0375671320    0.0198490710    0.0004391430    
0.0377897930    0.0205125810    0.0004348658    
0.0380124540    0.0202106840    0.0004343622    
0.0382351150    0.0202573730    0.0004348638    
0.0384577760    0.0196211470    0.0004238511    
0.0386804370    0.0193361020    0.0004239721    
0.0389030980    0.0205642350    0.0004339180    
0.0391257590    0.0193105170    0.0004176284    
0.0393484200    0.0201676040    0.0004253595    
0.0395710810    0.0195653040    0.0004195242    
0.0397937420    0.0198801620    0.0004228865    
0.0400164030    0.0197066940    0.0004227503    
0.0402390640    0.0205008840    0.0004254431    
0.0404617250    0.0206348910    0.0004243133    
0.0406843860    0.0199556890    0.0004132401    
0.0409070470    0.0200765820    0.0004188078    
0.0411297080    0.0200584500    0.0004145688    
0.0413523690    0.0195505010    0.0004103411    
0.0415750300    0.0194022820    0.0004122550    
0.0417976910    0.0203151500    0.0004109315    
0.0420203520    0.0196138690    0.0004052937    
0.0422430130    0.0202183340    0.0004130494    
0.0424656740    0.0193584350    0.0003989099    
0.0426883350    0.0191193700    0.0003984067    
0.0429109960    0.0198321570    0.0004070330    
0.0431336570    0.0193909390    0.0003968092    
0.0433563180    0.0198425880    0.0004048665    
0.0435789790    0.0198242590    0.0003983217    
0.0438016400    0.0202751680    0.0004050176    
0.0440243010    0.0196993540    0.0003951744    
0.0442469620    0.0203613380    0.0004041667    
0.0444696230    0.0196739380    0.0003958611    
0.0446922840    0.0197631300    0.0003955792    
0.0449149450    0.0192999190    0.0003856899    
0.0451376060    0.0192187360    0.0003896312    
0.0453602670    0.0198001700    0.0003913352    
0.0455829280    0.0188515680    0.0003814044    
0.0458055890    0.0203601950    0.0003986834    
0.0460282500    0.0203369240    0.0003936507    
0.0462509110    0.0194526200    0.0003826025    
0.0464735720    0.0193465190    0.0003817731    
0.0466962330    0.0194619940    0.0003846514    
0.0469188940    0.0198507200    0.0003873726    
0.0471415550    0.0193143460    0.0003840658    
0.0473642160    0.0197276260    0.0003827181    
0.0475868770    0.0198188010    0.0003816959    
0.0478095380    0.0202214000    0.0003838661    
0.0480321990    0.0197319100    0.0003800224    
0.0482548600    0.0191540470    0.0003727851    
0.0484775210    0.0198619000    0.0003833801    
0.0487001820    0.0199600540    0.0003787003    
0.0489228430    0.0196586940    0.0003756286    
0.0491455040    0.0193310730    0.0003699092    
0.0493681650    0.0189014840    0.0003689192    
0.0495908260    0.0190781890    0.0003644036    
0.0498134870    0.0195992010    0.0003728618    
0.0500361480    0.0199542660    0.0003752287    
0.0502588090    0.0194703090    0.0003650968    
0.0504814700    0.0199827040    0.0003747050    
0.0507041310    0.0200866210    0.0003712114    
0.0509267920    0.0199764780    0.0003717238    
0.0511494530    0.0200180900    0.0003696295    
0.0513721140    0.0192608880    0.0003657643    
0.0515947750    0.0192945580    0.0003612301    
0.0518174360    0.0195305270    0.0003612431    
0.0520400970    0.0197021110    0.0003603107    
0.0522627580    0.0193883360    0.0003604677    
0.0524854190    0.0195414280    0.0003648304    
0.0527080800    0.0199143710    0.0003711468    
0.0529307410    0.0192081410    0.0003662183    
0.0531534020    0.0197478220    0.0003699755    
0.0533760630    0.0197879530    0.0003715106    
0.0535987240    0.0195137820    0.0003672054    
0.0538213850    0.0192261140    0.0003687117    
0.0540440460    0.0193597550    0.0003682399    
0.0542667070    0.0193647730    0.0003708257    
0.0544893680    0.0196271100    0.0003735280    
0.0547120290    0.0196886580    0.0003715503    
0.0549346900    0.0195619810    0.0003705479    
0.0551573510    0.0198887360    0.0003780281    
0.0553800120    0.0196720960    0.0003727675    
0.0556026730    0.0196867560    0.0003806381    
0.0558253340    0.0203321300    0.0003900660    
0.0560479950    0.0194940200    0.0003819421    
0.0562706560    0.0199261810    0.0003898859    
0.0564933170    0.0200719450    0.0003947073    
0.0567159780    0.0197602080    0.0003869347    
0.0569386390    0.0188373340    0.0003837169    
0.0571613000    0.0197036510    0.0003839912    
0.0573839610    0.0194734860    0.0003785723    
0.0576066220    0.0198256660    0.0003830376    
0.0578292830    0.0199519820    0.0003829844    
0.0580519440    0.0198773450    0.0003837497    
0.0582746050    0.0199006990    0.0003822819    
0.0584972660    0.0192312410    0.0003743584    
0.0587199270    0.0192663840    0.0003714703    
0.0589425880    0.0189991910    0.0003667278    
0.0591652490    0.0196388610    0.0003750443    
0.0593879100    0.0197575050    0.0003733817    
0.0596105710    0.0201383260    0.0003765653    
0.0598332320    0.0201044700    0.0003794647    
0.0600558930    0.0193539400    0.0003699406    
0.0602785540    0.0191436920    0.0003675368    
0.0605012150    0.0201873610    0.0003766272    
0.0607238760    0.0191948260    0.0003645756    
0.0609465370    0.0201946080    0.0003768937    
0.0611691980    0.0193978020    0.0003699688    
0.0613918590    0.0194666860    0.0003665789    
0.0616145200    0.0197666910    0.0003720964    
0.0618371810    0.0197992500    0.0003687452    
0.0620598420    0.0197437500    0.0003686077    
0.0622825030    0.0193945720    0.0003709206    
0.0625051640    0.0194328910    0.0003660723    
0.0627278250    0.0188035320    0.0003593542    
0.0629504860    0.0192152220    0.0003603136    
0.0631731470    0.0192019830    0.0003646457    
0.0633958080    0.0196688030    0.0003711756    
0.0636184690    0.0195363880    0.0003750761    
0.0638411300    0.0195615220    0.0003739084    
0.0640637910    0.0198883920    0.0003796712    
0.0642864520    0.0193261140    0.0003734558    
0.0645091130    0.0193064710    0.0003765370    
0.0647317740    0.0192533870    0.0003764335    
0.0649544350    0.0195341690    0.0003787513    
0.0651770960    0.0193797430    0.0003751933    
0.0653997570    0.0189630940    0.0003703334    
0.0656224180    0.0202296510    0.0003833326    
0.0658450790    0.0194335440    0.0003703139    
0.0660677400    0.0203892620    0.0003809248    
0.0662904010    0.0200919240    0.0003826512    
0.0665130620    0.0197807250    0.0003780293    
0.0667357230    0.0189187950    0.0003762746    
0.0669583840    0.0198405640    0.0003840429    
0.0671810450    0.0195118010    0.0003787450    
0.0674037060    0.0195246530    0.0003852883    
0.0676263670    0.0197342850    0.0003845152    
0.0678490280    0.0191088060    0.0003760585    
0.0680716890    0.0194020920    0.0003797767    
0.0682943500    0.0196993190    0.0003784833    
0.0685170110    0.0196276110    0.0003739441    
0.0687396720    0.0188218860    0.0003652154    
0.0689623330    0.0193928710    0.0003695389    
0.0691849940    0.0196768070    0.0003748133    
0.0694076550    0.0196344130    0.0003742095    
0.0696303160    0.0194721550    0.0003697097    
0.0698529770    0.0200686630    0.0003745431    
0.0700756380    0.0198428280    0.0003676489    
0.0702982990    0.0195603860    0.0003689982    
0.0705209600    0.0192309400    0.0003632361    
0.0707436210    0.0193062380    0.0003622751    
0.0709662820    0.0197623290    0.0003708988    
0.0711889430    0.0191440340    0.0003605669    
0.0714116040    0.0194813920    0.0003644726    
0.0716342650    0.0196008190    0.0003641037    
0.0718569260    0.0193426120    0.0003602407    
0.0720795870    0.0191882910    0.0003602522    
0.0723022480    0.0191450530    0.0003603944    
0.0725249090    0.0191263410    0.0003559043    
0.0727475700    0.0199798990    0.0003668662    
0.0729702310    0.0201464060    0.0003654536    
0.0731928920    0.0194724670    0.0003607250    
0.0734155530    0.0193615560    0.0003589785    
0.0736382140    0.0191204150    0.0003544466    
0.0738608750    0.0191419670    0.0003569374    
0.0740835360    0.0199344910    0.0003633473    
0.0743061970    0.0196538570    0.0003557004    
0.0745288580    0.0200863980    0.0003632907    
0.0747515190    0.0201394310    0.0003644885    
0.0749741800    0.0199431400    0.0003593504    
0.0751968410    0.0192380870    0.0003557124    
0.0754195020    0.0192018320    0.0003532949    
0.0756421630    0.0194582900    0.0003527392    
0.0758648240    0.0193849000    0.0003529197    
0.0760874850    0.0190838490    0.0003500004    
0.0763101460    0.0194700900    0.0003531853    
0.0765328070    0.0195698070    0.0003577117    
0.0767554680    0.0196792260    0.0003562763    
0.0769781290    0.0195365930    0.0003529429    
0.0772007900    0.0195946590    0.0003506321    
0.0774234510    0.0197547400    0.0003540640    
0.0776461120    0.0193815880    0.0003503714    
0.0778687730    0.0196941890    0.0003520189    
0.0780914340    0.0193830830    0.0003517227    
0.0783140950    0.0195393940    0.0003475352    
0.0785367560    0.0194469600    0.0003523023    
0.0787594170    0.0189997500    0.0003451079    
0.0789820780    0.0202573710    0.0003545206    
0.0792047390    0.0196031740    0.0003498893    
0.0794274000    0.0198452200    0.0003535344    
0.0796500610    0.0190027220    0.0003425722    
0.0798727220    0.0194792950    0.0003465211    
0.0800953830    0.0198377340    0.0003488905    
0.0803180440    0.0196982230    0.0003500835    
0.0805407050    0.0195746600    0.0003486592    
0.0807633660    0.0196127220    0.0003486741    
0.0809860270    0.0191358770    0.0003431375    
0.0812086880    0.0194717570    0.0003431446    
0.0814313490    0.0188076390    0.0003387802    
0.0816540100    0.0190805050    0.0003404520    
0.0818766710    0.0195094730    0.0003450438    
0.0820993320    0.0195782740    0.0003450217    
0.0823219930    0.0191454510    0.0003425939    
0.0825446540    0.0194724300    0.0003429968    
0.0827673150    0.0197004530    0.0003426814    
0.0829899760    0.0192027230    0.0003377225    
0.0832126370    0.0193391700    0.0003404383    
0.0834352980    0.0195988230    0.0003419498    
0.0836579590    0.0202956990    0.0003472014    
0.0838806200    0.0196279960    0.0003425109    
0.0841032810    0.0194145760    0.0003385291    
0.0843259420    0.0195474460    0.0003386394    
0.0845486030    0.0197586720    0.0003404644    
0.0847712640    0.0194432400    0.0003356776    
0.0849939250    0.0198483150    0.0003397469    
0.0852165860    0.0194688740    0.0003369245    
0.0854392470    0.0196281980    0.0003350966    
0.0856619080    0.0197151940    0.0003383119    
0.0858845690    0.0192134300    0.0003309710    
0.0861072300    0.0194911800    0.0003356560    
0.0863298910    0.0194037920    0.0003366563    
0.0865525520    0.0196901160    0.0003362027    
0.0867752130    0.0188822370    0.0003265768    
0.0869978740    0.0186606860    0.0003254826    
0.0872205350    0.0196608280    0.0003336660    
0.0874431960    0.0192757950    0.0003303829    
0.0876658570    0.0198349520    0.0003364273    
0.0878885180    0.0195251210    0.0003343617    
0.0881111790    0.0190581290    0.0003299151    
0.0883338400    0.0192361020    0.0003265991    
0.0885565010    0.0195733650    0.0003339173    
0.0887791620    0.0193464990    0.0003276715    
0.0890018230    0.0193049350    0.0003304942    
0.0892244840    0.0191662490    0.0003298648    
0.0894471450    0.0196576790    0.0003326558    
0.0896698060    0.0193085300    0.0003284448    
0.0898924670    0.0200123630    0.0003359274    
0.0901151280    0.0189864630    0.0003236695    
0.0903377890    0.0194795190    0.0003305890    
0.0905604500    0.0195290590    0.0003294900    
0.0907831110    0.0196809270    0.0003299458    
0.0910057720    0.0193595600    0.0003287426    
0.0912284330    0.0194437210    0.0003247393    
0.0914510940    0.0196690640    0.0003302578    
0.0916737550    0.0194887960    0.0003279251    
0.0918964160    0.0195789060    0.0003300493    
0.0921190770    0.0197017870    0.0003280898    
0.0923417380    0.0193570610    0.0003253402    
0.0925643990    0.0196378910    0.0003268898    
0.0927870600    0.0195633850    0.0003276071    
0.0930097210    0.0193070690    0.0003226821    
0.0932323820    0.0191377330    0.0003236255    
