# Diamond Light Source Ltd.
# Data extracted from: /dls/b21/data/2018/cm19678-3/processed/b21-386631_00217.dat
q(1/A)          Column          Error           
0.0035000000    2.0768218000    0.0245489960    
0.0037226610    1.8879507000    0.0229133050    
0.0039453220    1.6087008000    0.0192414020    
0.0041679830    1.3214823000    0.0143216980    
0.0043906440    0.9884847100    0.0118477030    
0.0046133050    0.7863723700    0.0101444180    
0.0048359660    0.5923604800    0.0083282497    
0.0050586270    0.4663990000    0.0072635837    
0.0052812880    0.4234043800    0.0065434060    
0.0055039490    0.3822554400    0.0059117164    
0.0057266100    0.3183059500    0.0052188316    
0.0059492710    0.2680786700    0.0047894104    
0.0061719320    0.2221541300    0.0042013204    
0.0063945930    0.2075500700    0.0041101038    
0.0066172539    0.1877376600    0.0036705616    
0.0068399149    0.1732500900    0.0034705591    
0.0070625759    0.1482617300    0.0031776046    
0.0072852369    0.1344083800    0.0029802375    
0.0075078979    0.1182373800    0.0027814786    
0.0077305589    0.1040162200    0.0025591517    
0.0079532199    0.0987653960    0.0024591648    
0.0081758809    0.0893215480    0.0023603953    
0.0083985419    0.0819348950    0.0021085331    
0.0086212029    0.0786249550    0.0020655048    
0.0088438639    0.0718674530    0.0019588885    
0.0090665249    0.0666918940    0.0018225639    
0.0092891859    0.0647882960    0.0018749703    
0.0095118469    0.0605693680    0.0017434095    
0.0097345079    0.0566121370    0.0016369822    
0.0099571689    0.0543468500    0.0015708232    
0.0101798300    0.0499882150    0.0015065168    
0.0104024910    0.0510484350    0.0015172572    
0.0106251520    0.0469008580    0.0014592531    
0.0108478130    0.0440065250    0.0013765489    
0.0110704740    0.0437919930    0.0013073693    
0.0112931350    0.0453451790    0.0013342590    
0.0115157960    0.0402003150    0.0012489630    
0.0117384570    0.0405027680    0.0012428607    
0.0119611180    0.0376669590    0.0012020010    
0.0121837790    0.0378945540    0.0011853630    
0.0124064400    0.0371507160    0.0011247469    
0.0126291010    0.0359609380    0.0010927398    
0.0128517620    0.0333709610    0.0010552824    
0.0130744230    0.0328449240    0.0010391674    
0.0132970840    0.0312873250    0.0010092686    
0.0135197450    0.0319475770    0.0010052573    
0.0137424060    0.0309104580    0.0009750400    
0.0139650670    0.0303720210    0.0009449820    
0.0141877280    0.0299748440    0.0009408576    
0.0144103890    0.0303191380    0.0009299299    
0.0146330500    0.0283864930    0.0008940905    
0.0148557110    0.0276742220    0.0008791006    
0.0150783720    0.0288666390    0.0008904199    
0.0153010330    0.0281117750    0.0008663115    
0.0155236940    0.0270397930    0.0008445812    
0.0157463550    0.0265949610    0.0008230934    
0.0159690160    0.0271772060    0.0008288970    
0.0161916770    0.0251220570    0.0007924505    
0.0164143380    0.0247428300    0.0007924047    
0.0166369990    0.0244085830    0.0007627682    
0.0168596600    0.0260177640    0.0007805719    
0.0170823210    0.0234748640    0.0007350265    
0.0173049820    0.0238563240    0.0007422554    
0.0175276430    0.0248573790    0.0007656584    
0.0177503040    0.0239645240    0.0007326169    
0.0179729650    0.0254016080    0.0007467832    
0.0181956260    0.0254296850    0.0007328713    
0.0184182870    0.0230773830    0.0006948624    
0.0186409480    0.0239213260    0.0007119316    
0.0188636090    0.0239561390    0.0007079687    
0.0190862700    0.0243192810    0.0007121992    
0.0193089310    0.0220603630    0.0006772593    
0.0195315920    0.0240195380    0.0006826598    
0.0197542530    0.0221242700    0.0006561282    
0.0199769140    0.0240506660    0.0006840973    
0.0201995750    0.0224926230    0.0006512082    
0.0204222360    0.0218064160    0.0006467018    
0.0206448970    0.0225185430    0.0006525058    
0.0208675580    0.0218183140    0.0006290547    
0.0210902190    0.0231103410    0.0006536592    
0.0213128800    0.0210662240    0.0006156137    
0.0215355410    0.0227979070    0.0006327871    
0.0217582020    0.0227452240    0.0006320557    
0.0219808630    0.0225979450    0.0006291788    
0.0222035240    0.0216914080    0.0006108438    
0.0224261850    0.0216280530    0.0006045225    
0.0226488460    0.0207385510    0.0005875156    
0.0228715070    0.0223580350    0.0006085086    
0.0230941680    0.0208343850    0.0005874087    
0.0233168290    0.0217039350    0.0006010349    
0.0235394900    0.0207228740    0.0005808123    
0.0237621510    0.0215334760    0.0005761239    
0.0239848120    0.0215524320    0.0005770443    
0.0242074730    0.0215888660    0.0005729090    
0.0244301340    0.0218362610    0.0005768397    
0.0246527950    0.0203178410    0.0005615750    
0.0248754560    0.0208535200    0.0005561433    
0.0250981170    0.0202911120    0.0005498159    
0.0253207780    0.0210325170    0.0005430573    
0.0255434390    0.0209825790    0.0005482013    
0.0257661000    0.0213203600    0.0005543837    
0.0259887610    0.0216739280    0.0005530215    
0.0262114220    0.0198946410    0.0005326587    
0.0264340830    0.0205641650    0.0005341792    
0.0266567440    0.0214620370    0.0005423443    
0.0268794050    0.0196560010    0.0005169053    
0.0271020660    0.0203870860    0.0005242993    
0.0273247270    0.0208223640    0.0005266845    
0.0275473880    0.0208324650    0.0005257640    
0.0277700490    0.0221997650    0.0005395353    
0.0279927100    0.0200101860    0.0005077681    
0.0282153710    0.0200881330    0.0005112295    
0.0284380320    0.0206789530    0.0005156862    
0.0286606930    0.0210849320    0.0005162668    
0.0288833540    0.0201626890    0.0005058089    
0.0291060150    0.0213022700    0.0005194131    
0.0293286760    0.0204418190    0.0005017247    
0.0295513370    0.0211556180    0.0005048513    
0.0297739980    0.0207620140    0.0005056392    
0.0299966590    0.0210463320    0.0005003945    
0.0302193200    0.0215417510    0.0005136273    
0.0304419810    0.0200846430    0.0004968646    
0.0306646420    0.0207196540    0.0004904146    
0.0308873030    0.0200577290    0.0004804333    
0.0311099640    0.0208213700    0.0004907644    
0.0313326250    0.0200119160    0.0004758003    
0.0315552860    0.0200928860    0.0004829407    
0.0317779470    0.0212441810    0.0004970164    
0.0320006080    0.0201010010    0.0004724745    
0.0322232690    0.0204488240    0.0004785397    
0.0324459300    0.0198688360    0.0004681829    
0.0326685910    0.0194515170    0.0004624764    
0.0328912520    0.0206874320    0.0004785220    
0.0331139130    0.0201850590    0.0004665274    
0.0333365740    0.0198171300    0.0004637569    
0.0335592350    0.0203852760    0.0004658351    
0.0337818960    0.0203953400    0.0004655791    
0.0340045570    0.0204471430    0.0004654296    
0.0342272170    0.0198552050    0.0004568340    
0.0344498780    0.0200657700    0.0004610689    
0.0346725390    0.0201050490    0.0004529727    
0.0348952000    0.0200739810    0.0004505606    
0.0351178610    0.0202071310    0.0004541215    
0.0353405220    0.0196897180    0.0004462277    
0.0355631830    0.0201438960    0.0004496450    
0.0357858440    0.0204650880    0.0004532158    
0.0360085050    0.0196397720    0.0004453246    
0.0362311660    0.0204277090    0.0004487710    
0.0364538270    0.0200429080    0.0004409563    
0.0366764880    0.0198394610    0.0004383943    
0.0368991490    0.0199851730    0.0004377832    
0.0371218100    0.0201188950    0.0004379887    
0.0373444710    0.0198871450    0.0004402009    
0.0375671320    0.0199555630    0.0004403153    
0.0377897930    0.0189541850    0.0004180166    
0.0380124540    0.0202289690    0.0004345545    
0.0382351150    0.0200889570    0.0004330482    
0.0384577760    0.0200602490    0.0004285635    
0.0386804370    0.0198470150    0.0004295327    
0.0389030980    0.0199778740    0.0004276829    
0.0391257590    0.0197888380    0.0004227651    
0.0393484200    0.0210194820    0.0004342461    
0.0395710810    0.0196728760    0.0004206719    
0.0397937420    0.0206713760    0.0004312155    
0.0400164030    0.0204408840    0.0004305491    
0.0402390640    0.0203150880    0.0004235068    
0.0404617250    0.0203989250    0.0004218762    
0.0406843860    0.0196472510    0.0004100302    
0.0409070470    0.0199800990    0.0004177963    
0.0411297080    0.0195696830    0.0004094829    
0.0413523690    0.0196362530    0.0004112361    
0.0415750300    0.0210661850    0.0004295645    
0.0417976910    0.0196082350    0.0004037147    
0.0420203520    0.0201159760    0.0004104447    
0.0422430130    0.0200069930    0.0004108810    
0.0424656740    0.0197444050    0.0004028632    
0.0426883350    0.0195008880    0.0004023582    
0.0429109960    0.0194725680    0.0004033222    
0.0431336570    0.0192200500    0.0003950530    
0.0433563180    0.0203791560    0.0004103001    
0.0435789790    0.0195197610    0.0003952470    
0.0438016400    0.0198459860    0.0004007042    
0.0440243010    0.0198258140    0.0003964370    
0.0442469620    0.0194143030    0.0003946518    
0.0444696230    0.0192992080    0.0003920693    
0.0446922840    0.0191214140    0.0003891002    
0.0449149450    0.0196618040    0.0003892854    
0.0451376060    0.0200951630    0.0003984125    
0.0453602670    0.0198152620    0.0003914806    
0.0455829280    0.0200009550    0.0003928559    
0.0458055890    0.0196962400    0.0003921252    
0.0460282500    0.0186830980    0.0003773016    
0.0462509110    0.0200617780    0.0003885432    
0.0464735720    0.0206645210    0.0003945594    
0.0466962330    0.0195072370    0.0003850946    
0.0469188940    0.0200317620    0.0003891313    
0.0471415550    0.0194667180    0.0003855741    
0.0473642160    0.0199351400    0.0003847221    
0.0475868770    0.0189436490    0.0003731698    
0.0478095380    0.0198129510    0.0003799658    
0.0480321990    0.0196363900    0.0003790978    
0.0482548600    0.0200315600    0.0003812252    
0.0484775210    0.0191955240    0.0003768903    
0.0487001820    0.0192268140    0.0003716758    
0.0489228430    0.0201822540    0.0003805941    
0.0491455040    0.0195147390    0.0003716588    
0.0493681650    0.0194987600    0.0003746991    
0.0495908260    0.0193353520    0.0003668478    
0.0498134870    0.0192938150    0.0003699420    
0.0500361480    0.0192906380    0.0003689329    
0.0502588090    0.0199833860    0.0003698725    
0.0504814700    0.0200666370    0.0003754875    
0.0507041310    0.0200519380    0.0003708873    
0.0509267920    0.0198239250    0.0003702982    
0.0511494530    0.0206387840    0.0003753126    
0.0513721140    0.0196911570    0.0003698237    
0.0515947750    0.0190507310    0.0003589370    
0.0518174360    0.0199510920    0.0003651084    
0.0520400970    0.0190362260    0.0003541662    
0.0522627580    0.0194080710    0.0003606477    
0.0524854190    0.0196023560    0.0003653952    
0.0527080800    0.0195058890    0.0003673171    
0.0529307410    0.0199548610    0.0003732653    
0.0531534020    0.0198652790    0.0003710706    
0.0533760630    0.0194876580    0.0003686773    
0.0535987240    0.0203495020    0.0003749826    
0.0538213850    0.0200035450    0.0003760889    
0.0540440460    0.0195765140    0.0003702921    
0.0542667070    0.0195277270    0.0003723791    
0.0544893680    0.0187594920    0.0003651753    
0.0547120290    0.0198074790    0.0003726662    
0.0549346900    0.0200810060    0.0003754279    
0.0551573510    0.0191985880    0.0003714078    
0.0553800120    0.0198200540    0.0003741631    
0.0556026730    0.0196348660    0.0003801325    
0.0558253340    0.0191269540    0.0003783253    
0.0560479950    0.0195385480    0.0003823744    
0.0562706560    0.0195977740    0.0003866559    
0.0564933170    0.0190237440    0.0003842592    
0.0567159780    0.0198507510    0.0003878165    
0.0569386390    0.0195795120    0.0003911992    
0.0571613000    0.0199277720    0.0003861652    
0.0573839610    0.0201354660    0.0003849494    
0.0576066220    0.0201879000    0.0003865173    
0.0578292830    0.0198633850    0.0003821295    
0.0580519440    0.0195584010    0.0003806549    
0.0582746050    0.0202821720    0.0003859247    
0.0584972660    0.0192600230    0.0003746349    
0.0587199270    0.0195525000    0.0003742148    
0.0589425880    0.0197066840    0.0003734900    
0.0591652490    0.0202401030    0.0003807384    
0.0593879100    0.0188821700    0.0003650134    
0.0596105710    0.0193141170    0.0003687754    
0.0598332320    0.0193878740    0.0003726371    
0.0600558930    0.0195727750    0.0003720226    
0.0602785540    0.0198842230    0.0003745744    
0.0605012150    0.0198426800    0.0003733946    
0.0607238760    0.0190975190    0.0003636468    
0.0609465370    0.0188929590    0.0003645415    
0.0611691980    0.0197643540    0.0003734445    
0.0613918590    0.0197355300    0.0003690980    
0.0616145200    0.0201865770    0.0003760241    
0.0618371810    0.0197645350    0.0003684183    
0.0620598420    0.0196952030    0.0003681507    
0.0622825030    0.0193019840    0.0003700306    
0.0625051640    0.0194670000    0.0003663900    
0.0627278250    0.0190710060    0.0003618976    
0.0629504860    0.0194378130    0.0003623911    
0.0631731470    0.0199910090    0.0003720586    
0.0633958080    0.0202147740    0.0003762883    
0.0636184690    0.0200688820    0.0003801497    
0.0638411300    0.0192681250    0.0003710902    
0.0640637910    0.0192139670    0.0003731747    
0.0642864520    0.0201772910    0.0003815876    
0.0645091130    0.0188508050    0.0003720634    
0.0647317740    0.0194958910    0.0003787931    
0.0649544350    0.0200551880    0.0003837655    
0.0651770960    0.0190960920    0.0003724339    
0.0653997570    0.0198378240    0.0003787748    
0.0656224180    0.0195973280    0.0003772905    
0.0658450790    0.0198283290    0.0003740528    
0.0660677400    0.0199618820    0.0003769077    
0.0662904010    0.0204121900    0.0003856853    
0.0665130620    0.0195491690    0.0003758066    
0.0667357230    0.0194198330    0.0003812210    
0.0669583840    0.0194610740    0.0003803487    
0.0671810450    0.0193276370    0.0003769498    
0.0674037060    0.0197371620    0.0003873757    
0.0676263670    0.0195690850    0.0003828987    
0.0678490280    0.0197152940    0.0003819761    
0.0680716890    0.0193125190    0.0003788954    
0.0682943500    0.0189717770    0.0003714249    
0.0685170110    0.0192211560    0.0003700484    
0.0687396720    0.0192821440    0.0003696503    
0.0689623330    0.0197023310    0.0003724721    
0.0691849940    0.0197406880    0.0003754177    
0.0694076550    0.0201760610    0.0003793324    
0.0696303160    0.0193664940    0.0003687017    
0.0698529770    0.0199494510    0.0003734255    
0.0700756380    0.0192975160    0.0003625585    
0.0702982990    0.0195182490    0.0003685970    
0.0705209600    0.0194569770    0.0003653611    
0.0707436210    0.0193466580    0.0003626507    
0.0709662820    0.0191006690    0.0003646335    
0.0711889430    0.0197684360    0.0003663964    
0.0714116040    0.0195969390    0.0003655484    
0.0716342650    0.0191946400    0.0003603079    
0.0718569260    0.0187518460    0.0003546934    
0.0720795870    0.0199319050    0.0003671629    
0.0723022480    0.0194092680    0.0003628693    
0.0725249090    0.0202518130    0.0003662226    
0.0727475700    0.0195820830    0.0003631921    
0.0729702310    0.0195096220    0.0003596282    
0.0731928920    0.0192983570    0.0003591052    
0.0734155530    0.0194144320    0.0003594649    
0.0736382140    0.0194157220    0.0003571699    
0.0738608750    0.0199669010    0.0003645441    
0.0740835360    0.0191658860    0.0003562703    
0.0743061970    0.0195955460    0.0003551690    
0.0745288580    0.0192909850    0.0003560216    
0.0747515190    0.0196245220    0.0003597954    
0.0749741800    0.0194959900    0.0003552957    
0.0751968410    0.0186984070    0.0003506842    
0.0754195020    0.0196759780    0.0003576269    
0.0756421630    0.0193620050    0.0003518620    
0.0758648240    0.0195323080    0.0003542556    
0.0760874850    0.0189358500    0.0003486373    
0.0763101460    0.0197131710    0.0003553798    
0.0765328070    0.0199813540    0.0003614500    
0.0767554680    0.0198014000    0.0003573771    
0.0769781290    0.0192811790    0.0003506248    
0.0772007900    0.0195566400    0.0003502885    
0.0774234510    0.0196020660    0.0003526898    
0.0776461120    0.0200969300    0.0003567752    
0.0778687730    0.0195302230    0.0003505471    
0.0780914340    0.0196124730    0.0003537945    
0.0783140950    0.0196441040    0.0003484619    
0.0785367560    0.0189168670    0.0003474642    
0.0787594170    0.0195572720    0.0003501313    
0.0789820780    0.0195000630    0.0003478274    
0.0792047390    0.0191281870    0.0003456211    
0.0794274000    0.0190513010    0.0003463873    
0.0796500610    0.0199595800    0.0003510878    
0.0798727220    0.0193618040    0.0003454712    
0.0800953830    0.0196778220    0.0003474782    
0.0803180440    0.0198844980    0.0003517315    
0.0805407050    0.0196922790    0.0003497018    
0.0807633660    0.0186949560    0.0003404151    
0.0809860270    0.0195600620    0.0003469165    
0.0812086880    0.0198886300    0.0003467951    
0.0814313490    0.0194236130    0.0003442799    
0.0816540100    0.0194567630    0.0003437891    
0.0818766710    0.0198020130    0.0003476178    
0.0820993320    0.0199183860    0.0003480024    
0.0823219930    0.0196048630    0.0003466766    
0.0825446540    0.0197801800    0.0003456933    
0.0827673150    0.0195212570    0.0003411160    
0.0829899760    0.0198319420    0.0003432077    
0.0832126370    0.0201058810    0.0003471178    
0.0834352980    0.0197476000    0.0003432419    
0.0836579590    0.0197548170    0.0003425405    
0.0838806200    0.0196814130    0.0003429734    
0.0841032810    0.0195381640    0.0003396016    
0.0843259420    0.0197289340    0.0003402046    
0.0845486030    0.0196996310    0.0003399521    
0.0847712640    0.0197094480    0.0003379645    
0.0849939250    0.0198304910    0.0003395911    
0.0852165860    0.0198241720    0.0003399817    
0.0854392470    0.0191243990    0.0003307651    
0.0856619080    0.0192794210    0.0003345489    
0.0858845690    0.0196121480    0.0003343844    
0.0861072300    0.0196699950    0.0003371889    
0.0863298910    0.0198414890    0.0003404289    
0.0865525520    0.0199078780    0.0003380535    
0.0867752130    0.0188818770    0.0003265705    
0.0869978740    0.0193586020    0.0003315101    
0.0872205350    0.0197397290    0.0003343317    
0.0874431960    0.0197340970    0.0003342842    
0.0876658570    0.0197661000    0.0003358397    
0.0878885180    0.0194846690    0.0003340120    
0.0881111790    0.0194860950    0.0003335956    
0.0883338400    0.0198623250    0.0003318695    
0.0885565010    0.0203534050    0.0003405027    
0.0887791620    0.0189243570    0.0003240738    
0.0890018230    0.0192706200    0.0003301972    
0.0892244840    0.0188820290    0.0003274067    
0.0894471450    0.0199106210    0.0003347860    
0.0896698060    0.0198612610    0.0003331095    
0.0898924670    0.0196792950    0.0003331170    
0.0901151280    0.0197309790    0.0003299513    
0.0903377890    0.0199448070    0.0003345107    
0.0905604500    0.0191117630    0.0003259476    
0.0907831110    0.0199405250    0.0003321115    
0.0910057720    0.0193201150    0.0003284044    
0.0912284330    0.0197687630    0.0003274392    
0.0914510940    0.0194912440    0.0003287584    
0.0916737550    0.0193670360    0.0003268960    
0.0918964160    0.0195674050    0.0003299492    
0.0921190770    0.0192916490    0.0003246538    
0.0923417380    0.0193840320    0.0003255637    
0.0925643990    0.0190389780    0.0003218635    
0.0927870600    0.0190308720    0.0003231146    
0.0930097210    0.0197219570    0.0003261276    
0.0932323820    0.0196736740    0.0003281225    
