# Diamond Light Source Ltd.
# Data extracted from: /dls/b21/data/2018/cm19678-3/processed/b21-386631_00223.dat
q(1/A)          Column          Error           
0.0035000000    2.0977415000    0.0246724830    
0.0037226610    1.8954832000    0.0229591160    
0.0039453220    1.6416322000    0.0194374710    
0.0041679830    1.2645352000    0.0140098040    
0.0043906440    0.9689005900    0.0117298250    
0.0046133050    0.7887379900    0.0101597300    
0.0048359660    0.5990422600    0.0083751422    
0.0050586270    0.4638031100    0.0072433877    
0.0052812880    0.4204771500    0.0065207891    
0.0055039490    0.3846374300    0.0059301447    
0.0057266100    0.3190801000    0.0052252073    
0.0059492710    0.2711625000    0.0048169097    
0.0061719320    0.2231898700    0.0042111297    
0.0063945930    0.1958320800    0.0039924183    
0.0066172539    0.1845105700    0.0036389008    
0.0068399149    0.1653266200    0.0033902902    
0.0070625759    0.1462885800    0.0031564092    
0.0072852369    0.1254229800    0.0028789162    
0.0075078979    0.1156869700    0.0027513340    
0.0077305589    0.1004285600    0.0025146462    
0.0079532199    0.1002362100    0.0024774238    
0.0081758809    0.0891979320    0.0023587764    
0.0083985419    0.0856800300    0.0021561975    
0.0086212029    0.0771066130    0.0020454769    
0.0088438639    0.0688249070    0.0019169870    
0.0090665249    0.0671410130    0.0018287020    
0.0092891859    0.0647891200    0.0018749942    
0.0095118469    0.0609715970    0.0017491999    
0.0097345079    0.0571808800    0.0016451949    
0.0099571689    0.0533486730    0.0015563407    
0.0101798300    0.0508515100    0.0015194795    
0.0104024910    0.0469904120    0.0014557118    
0.0106251520    0.0462204070    0.0014486380    
0.0108478130    0.0463323130    0.0014124655    
0.0110704740    0.0409823330    0.0012647423    
0.0112931350    0.0427545700    0.0012955930    
0.0115157960    0.0404336500    0.0012525904    
0.0117384570    0.0394354000    0.0012263826    
0.0119611180    0.0389332490    0.0012220462    
0.0121837790    0.0380433540    0.0011876955    
0.0124064400    0.0370830840    0.0011237298    
0.0126291010    0.0361938330    0.0010962796    
0.0128517620    0.0356406400    0.0010905859    
0.0130744230    0.0339632010    0.0010567164    
0.0132970840    0.0331109410    0.0010382718    
0.0135197450    0.0308725070    0.0009882049    
0.0137424060    0.0315567500    0.0009851868    
0.0139650670    0.0314308840    0.0009613195    
0.0141877280    0.0298275640    0.0009385493    
0.0144103890    0.0287222580    0.0009051152    
0.0146330500    0.0283023700    0.0008927704    
0.0148557110    0.0292942770    0.0009044718    
0.0150783720    0.0279880870    0.0008767709    
0.0153010330    0.0293402030    0.0008850428    
0.0155236940    0.0274094660    0.0008503404    
0.0157463550    0.0278180710    0.0008418131    
0.0159690160    0.0263432640    0.0008160856    
0.0161916770    0.0264222400    0.0008127035    
0.0164143380    0.0263419330    0.0008176152    
0.0166369990    0.0258391020    0.0007848068    
0.0168596600    0.0245193030    0.0007577654    
0.0170823210    0.0262139310    0.0007767304    
0.0173049820    0.0246187460    0.0007540277    
0.0175276430    0.0239143300    0.0007509988    
0.0177503040    0.0244799610    0.0007404584    
0.0179729650    0.0246115510    0.0007350827    
0.0181956260    0.0240993690    0.0007134489    
0.0184182870    0.0242074990    0.0007116775    
0.0186409480    0.0228622140    0.0006959973    
0.0188636090    0.0238099850    0.0007058103    
0.0190862700    0.0233392980    0.0006977065    
0.0193089310    0.0227675820    0.0006880339    
0.0195315920    0.0225646840    0.0006616669    
0.0197542530    0.0226110190    0.0006633108    
0.0199769140    0.0228639900    0.0006670111    
0.0201995750    0.0231150930    0.0006601618    
0.0204222360    0.0227848300    0.0006610550    
0.0206448970    0.0227646270    0.0006560656    
0.0208675580    0.0233058110    0.0006501486    
0.0210902190    0.0221862100    0.0006404607    
0.0213128800    0.0224157550    0.0006350302    
0.0215355410    0.0226225560    0.0006303529    
0.0217582020    0.0217267950    0.0006177473    
0.0219808630    0.0210741660    0.0006075997    
0.0222035240    0.0216916840    0.0006108516    
0.0224261850    0.0205976030    0.0005899495    
0.0226488460    0.0213546540    0.0005961825    
0.0228715070    0.0208843270    0.0005881159    
0.0230941680    0.0221430260    0.0006055796    
0.0233168290    0.0209552160    0.0005905807    
0.0235394900    0.0213091810    0.0005889751    
0.0237621510    0.0208863500    0.0005674047    
0.0239848120    0.0213209560    0.0005739408    
0.0242074730    0.0209961990    0.0005649940    
0.0244301340    0.0211965280    0.0005683308    
0.0246527950    0.0215598480    0.0005784883    
0.0248754560    0.0216398810    0.0005665356    
0.0250981170    0.0200529990    0.0005465838    
0.0253207780    0.0223788830    0.0005601727    
0.0255434390    0.0219711160    0.0005609697    
0.0257661000    0.0212053060    0.0005528893    
0.0259887610    0.0209545520    0.0005437699    
0.0262114220    0.0202229100    0.0005370386    
0.0264340830    0.0215912600    0.0005473602    
0.0266567440    0.0204481270    0.0005293819    
0.0268794050    0.0211787270    0.0005365573    
0.0271020660    0.0206570190    0.0005277622    
0.0273247270    0.0203696730    0.0005209311    
0.0275473880    0.0211379230    0.0005296079    
0.0277700490    0.0211772460    0.0005269667    
0.0279927100    0.0206418060    0.0005157229    
0.0282153710    0.0202315050    0.0005130539    
0.0284380320    0.0198433020    0.0005051624    
0.0286606930    0.0202508940    0.0005059562    
0.0288833540    0.0214191640    0.0005213343    
0.0291060150    0.0198207360    0.0005010287    
0.0293286760    0.0201711600    0.0004983953    
0.0295513370    0.0202764000    0.0004942524    
0.0297739980    0.0204174720    0.0005014293    
0.0299966590    0.0204160340    0.0004928477    
0.0302193200    0.0205500390    0.0005016683    
0.0304419810    0.0198636450    0.0004941266    
0.0306646420    0.0206038400    0.0004890452    
0.0308873030    0.0207484480    0.0004886386    
0.0311099640    0.0205555810    0.0004876251    
0.0313326250    0.0210190010    0.0004876287    
0.0315552860    0.0207083560    0.0004902845    
0.0317779470    0.0212677070    0.0004972947    
0.0320006080    0.0211451890    0.0004845941    
0.0322232690    0.0203930900    0.0004778901    
0.0324459300    0.0208178620    0.0004792368    
0.0326685910    0.0203094450    0.0004725683    
0.0328912520    0.0204441800    0.0004757034    
0.0331139130    0.0201314030    0.0004659098    
0.0333365740    0.0193615600    0.0004583982    
0.0335592350    0.0198000500    0.0004591027    
0.0337818960    0.0198960720    0.0004598481    
0.0340045570    0.0200765950    0.0004611959    
0.0342272170    0.0196872800    0.0004549009    
0.0344498780    0.0198435400    0.0004585115    
0.0346725390    0.0201767450    0.0004537825    
0.0348952000    0.0202764960    0.0004528306    
0.0351178610    0.0197073060    0.0004484728    
0.0353405220    0.0207821700    0.0004584426    
0.0355631830    0.0205054830    0.0004536656    
0.0357858440    0.0204452740    0.0004529992    
0.0360085050    0.0202357860    0.0004520341    
0.0362311660    0.0195800900    0.0004393646    
0.0364538270    0.0202177890    0.0004428787    
0.0366764880    0.0197428400    0.0004373283    
0.0368991490    0.0193620810    0.0004309073    
0.0371218100    0.0201858970    0.0004387202    
0.0373444710    0.0202576680    0.0004442856    
0.0375671320    0.0198489460    0.0004391403    
0.0377897930    0.0202635360    0.0004322165    
0.0380124540    0.0198091450    0.0004300243    
0.0382351150    0.0200518720    0.0004326511    
0.0384577760    0.0201062830    0.0004290576    
0.0386804370    0.0185179190    0.0004149039    
0.0389030980    0.0206465080    0.0004347838    
0.0391257590    0.0197168340    0.0004219979    
0.0393484200    0.0194049160    0.0004172377    
0.0395710810    0.0197540850    0.0004215419    
0.0397937420    0.0201049230    0.0004252689    
0.0400164030    0.0196612250    0.0004222610    
0.0402390640    0.0189998370    0.0004095706    
0.0404617250    0.0199803810    0.0004175284    
0.0406843860    0.0197844180    0.0004114616    
0.0409070470    0.0199104610    0.0004170702    
0.0411297080    0.0199297990    0.0004132359    
0.0413523690    0.0196967900    0.0004118721    
0.0415750300    0.0198751690    0.0004172473    
0.0417976910    0.0200989040    0.0004087373    
0.0420203520    0.0193625010    0.0004026869    
0.0422430130    0.0197119070    0.0004078422    
0.0424656740    0.0200652400    0.0004061257    
0.0426883350    0.0198249090    0.0004056898    
0.0429109960    0.0192890310    0.0004014195    
0.0431336570    0.0196587800    0.0003995390    
0.0433563180    0.0193302920    0.0003996046    
0.0435789790    0.0198241340    0.0003983192    
0.0438016400    0.0199595070    0.0004018512    
0.0440243010    0.0195010480    0.0003931791    
0.0442469620    0.0194305950    0.0003948199    
0.0444696230    0.0202074760    0.0004011916    
0.0446922840    0.0199134440    0.0003970794    
0.0449149450    0.0196697620    0.0003893667    
0.0451376060    0.0192739080    0.0003901889    
0.0453602670    0.0194365290    0.0003877238    
0.0455829280    0.0195227850    0.0003881338    
0.0458055890    0.0194388670    0.0003895572    
0.0460282500    0.0197348450    0.0003877786    
0.0462509110    0.0193019940    0.0003811171    
0.0464735720    0.0191354540    0.0003796837    
0.0466962330    0.0189145060    0.0003792013    
0.0469188940    0.0200320170    0.0003891363    
0.0471415550    0.0197571750    0.0003884424    
0.0473642160    0.0194230880    0.0003797514    
0.0475868770    0.0200906680    0.0003843037    
0.0478095380    0.0198569250    0.0003803897    
0.0480321990    0.0194024340    0.0003768351    
0.0482548600    0.0197633690    0.0003786670    
0.0484775210    0.0200911770    0.0003855853    
0.0487001820    0.0197731180    0.0003769215    
0.0489228430    0.0199384830    0.0003782910    
0.0491455040    0.0194866740    0.0003713938    
0.0493681650    0.0198734350    0.0003782844    
0.0495908260    0.0194469620    0.0003679074    
0.0498134870    0.0194855820    0.0003717783    
0.0500361480    0.0198130210    0.0003738971    
0.0502588090    0.0190183460    0.0003608333    
0.0504814700    0.0196734230    0.0003717928    
0.0507041310    0.0200110320    0.0003705111    
0.0509267920    0.0193884050    0.0003662103    
0.0511494530    0.0195060830    0.0003648707    
0.0513721140    0.0200942650    0.0003735923    
0.0515947750    0.0193011990    0.0003612911    
0.0518174360    0.0200716150    0.0003662118    
0.0520400970    0.0194977190    0.0003584357    
0.0522627580    0.0194284240    0.0003608390    
0.0524854190    0.0192552350    0.0003621479    
0.0527080800    0.0198519910    0.0003705639    
0.0529307410    0.0198573640    0.0003723547    
0.0531534020    0.0193664680    0.0003663846    
0.0533760630    0.0194739560    0.0003685501    
0.0535987240    0.0191750710    0.0003640034    
0.0538213850    0.0196643930    0.0003728894    
0.0540440460    0.0197658760    0.0003720811    
0.0542667070    0.0194853690    0.0003719774    
0.0544893680    0.0197762680    0.0003749435    
0.0547120290    0.0189873750    0.0003648720    
0.0549346900    0.0188178470    0.0003634306    
0.0551573510    0.0197808320    0.0003770001    
0.0553800120    0.0206396770    0.0003818236    
0.0556026730    0.0196571940    0.0003803510    
0.0558253340    0.0194414940    0.0003814258    
0.0560479950    0.0198306430    0.0003852245    
0.0562706560    0.0199641990    0.0003902564    
0.0564933170    0.0191404110    0.0003854382    
0.0567159780    0.0197297760    0.0003866355    
0.0569386390    0.0196266590    0.0003916724    
0.0571613000    0.0198307430    0.0003852264    
0.0573839610    0.0194365650    0.0003782120    
0.0576066220    0.0196109300    0.0003809564    
0.0578292830    0.0189888150    0.0003736248    
0.0580519440    0.0197364560    0.0003823861    
0.0582746050    0.0194232540    0.0003776671    
0.0584972660    0.0196975040    0.0003788682    
0.0587199270    0.0198392360    0.0003769511    
0.0589425880    0.0196998560    0.0003734276    
0.0591652490    0.0191588690    0.0003704316    
0.0593879100    0.0198985040    0.0003747105    
0.0596105710    0.0196523470    0.0003719928    
0.0598332320    0.0194310940    0.0003730546    
0.0600558930    0.0192972480    0.0003693972    
0.0602785540    0.0200820510    0.0003764355    
0.0605012150    0.0196391630    0.0003714771    
0.0607238760    0.0194162880    0.0003666716    
0.0609465370    0.0191815910    0.0003673179    
0.0611691980    0.0206466390    0.0003816912    
0.0613918590    0.0196391390    0.0003681979    
0.0616145200    0.0198436150    0.0003728185    
0.0618371810    0.0192565880    0.0003636557    
0.0620598420    0.0191724430    0.0003632343    
0.0622825030    0.0191248850    0.0003683315    
0.0625051640    0.0195017270    0.0003667190    
0.0627278250    0.0192498060    0.0003635924    
0.0629504860    0.0197758790    0.0003655312    
0.0631731470    0.0199497160    0.0003716765    
0.0633958080    0.0190592860    0.0003653780    
0.0636184690    0.0193058330    0.0003728552    
0.0638411300    0.0195113690    0.0003734276    
0.0640637910    0.0200259770    0.0003809810    
0.0642864520    0.0193620750    0.0003738019    
0.0645091130    0.0196808730    0.0003801692    
0.0647317740    0.0198714900    0.0003824270    
0.0649544350    0.0196735750    0.0003800992    
0.0651770960    0.0190309620    0.0003718006    
0.0653997570    0.0193752120    0.0003743347    
0.0656224180    0.0192707090    0.0003741356    
0.0658450790    0.0197791860    0.0003735914    
0.0660677400    0.0194497380    0.0003720437    
0.0662904010    0.0198221570    0.0003800725    
0.0665130620    0.0198456210    0.0003786477    
0.0667357230    0.0191731200    0.0003787941    
0.0669583840    0.0199519430    0.0003851181    
0.0671810450    0.0192690680    0.0003763806    
0.0674037060    0.0194789110    0.0003848355    
0.0676263670    0.0192996190    0.0003802558    
0.0678490280    0.0200485780    0.0003851936    
0.0680716890    0.0199817970    0.0003854073    
0.0682943500    0.0192338020    0.0003739834    
0.0685170110    0.0201618100    0.0003789975    
0.0687396720    0.0195516770    0.0003722273    
0.0689623330    0.0196180810    0.0003716772    
0.0691849940    0.0197195200    0.0003752187    
0.0694076550    0.0190851280    0.0003689368    
0.0696303160    0.0193737590    0.0003687732    
0.0698529770    0.0197609730    0.0003716596    
0.0700756380    0.0198699500    0.0003678990    
0.0702982990    0.0190590740    0.0003642379    
0.0705209600    0.0195326940    0.0003660736    
0.0707436210    0.0196935980    0.0003658902    
0.0709662820    0.0201868240    0.0003748599    
0.0711889430    0.0193612260    0.0003626054    
0.0714116040    0.0189221290    0.0003592018    
0.0716342650    0.0196886210    0.0003649171    
0.0718569260    0.0201140420    0.0003673530    
0.0720795870    0.0196819080    0.0003648553    
0.0723022480    0.0197351550    0.0003659053    
0.0725249090    0.0200269000    0.0003641857    
0.0727475700    0.0196429590    0.0003637585    
0.0729702310    0.0192844760    0.0003575493    
0.0731928920    0.0193253320    0.0003593584    
0.0734155530    0.0199870700    0.0003647300    
0.0736382140    0.0195079570    0.0003580195    
0.0738608750    0.0196876150    0.0003619879    
0.0740835360    0.0194840200    0.0003592173    
0.0743061970    0.0190357320    0.0003500611    
0.0745288580    0.0193700780    0.0003567530    
0.0747515190    0.0197303170    0.0003607662    
0.0749741800    0.0196063130    0.0003563018    
0.0751968410    0.0196260130    0.0003592797    
0.0754195020    0.0197737320    0.0003585164    
0.0756421630    0.0197587040    0.0003554506    
0.0758648240    0.0195454070    0.0003543767    
0.0760874850    0.0198283340    0.0003567609    
0.0763101460    0.0198735890    0.0003568251    
0.0765328070    0.0199554540    0.0003612180    
0.0767554680    0.0201435050    0.0003604533    
0.0769781290    0.0189179840    0.0003473090    
0.0772007900    0.0196572770    0.0003511908    
0.0774234510    0.0200401790    0.0003566117    
0.0776461120    0.0197994970    0.0003541275    
0.0778687730    0.0201659670    0.0003562091    
0.0780914340    0.0187255860    0.0003457048    
0.0783140950    0.0192116580    0.0003446072    
0.0785367560    0.0194213080    0.0003520688    
0.0787594170    0.0194760310    0.0003494056    
0.0789820780    0.0194072450    0.0003470008    
0.0792047390    0.0196717450    0.0003504997    
0.0794274000    0.0195868760    0.0003512246    
0.0796500610    0.0191816960    0.0003441805    
0.0798727220    0.0195778010    0.0003473951    
0.0800953830    0.0190399310    0.0003418019    
0.0803180440    0.0191941360    0.0003455739    
0.0805407050    0.0190839310    0.0003442600    
0.0807633660    0.0198419490    0.0003507046    
0.0809860270    0.0195603110    0.0003469209    
0.0812086880    0.0189939130    0.0003389070    
0.0814313490    0.0196374430    0.0003461720    
0.0816540100    0.0188677720    0.0003385477    
0.0818766710    0.0195642720    0.0003455270    
0.0820993320    0.0194200650    0.0003436238    
0.0823219930    0.0193231120    0.0003441787    
0.0825446540    0.0197743910    0.0003456449    
0.0827673150    0.0195513090    0.0003413807    
0.0829899760    0.0192798150    0.0003383986    
0.0832126370    0.0198903930    0.0003452548    
0.0834352980    0.0193660200    0.0003399117    
0.0836579590    0.0191076530    0.0003368851    
0.0838806200    0.0192812160    0.0003394707    
0.0841032810    0.0194970920    0.0003392466    
0.0843259420    0.0190252000    0.0003340841    
0.0845486030    0.0198934780    0.0003416228    
0.0847712640    0.0193909600    0.0003352250    
0.0849939250    0.0194527380    0.0003363432    
0.0852165860    0.0192005380    0.0003345935    
0.0854392470    0.0194106830    0.0003332337    
0.0856619080    0.0195583240    0.0003369622    
0.0858845690    0.0198404490    0.0003363271    
0.0861072300    0.0194274740    0.0003351059    
0.0863298910    0.0194854420    0.0003373628    
0.0865525520    0.0197473970    0.0003366903    
0.0867752130    0.0195373150    0.0003321923    
0.0869978740    0.0198130150    0.0003353805    
0.0872205350    0.0198419080    0.0003351980    
0.0874431960    0.0189076010    0.0003272113    
0.0876658570    0.0188590630    0.0003280457    
0.0878885180    0.0195536270    0.0003346047    
0.0881111790    0.0193092990    0.0003320809    
0.0883338400    0.0200122960    0.0003331221    
0.0885565010    0.0196131170    0.0003342551    
0.0887791620    0.0195073190    0.0003290296    
0.0890018230    0.0194462610    0.0003317007    
0.0892244840    0.0193818600    0.0003317139    
0.0894471450    0.0198939860    0.0003346482    
0.0896698060    0.0189955400    0.0003257708    
0.0898924670    0.0192115210    0.0003291362    
0.0901151280    0.0192953330    0.0003262905    
0.0903377890    0.0197206440    0.0003326277    
0.0905604500    0.0197457380    0.0003313118    
0.0907831110    0.0190115000    0.0003242848    
0.0910057720    0.0192366270    0.0003276961    
0.0912284330    0.0202354430    0.0003312837    
0.0914510940    0.0189757850    0.0003243842    
0.0916737550    0.0189203450    0.0003231062    
0.0918964160    0.0196900560    0.0003309838    
0.0921190770    0.0195268280    0.0003266288    
0.0923417380    0.0197397020    0.0003285390    
0.0925643990    0.0195833540    0.0003264346    
0.0927870600    0.0194425680    0.0003265929    
0.0930097210    0.0195010950    0.0003242984    
0.0932323820    0.0195425820    0.0003270296    
