# Diamond Light Source Ltd.
# Data extracted from: /dls/b21/data/2018/cm19678-3/processed/b21-386631_00227.dat
q(1/A)          Column          Error           
0.0035000000    2.0910600000    0.0246382460    
0.0037226610    1.9254779000    0.0231448370    
0.0039453220    1.6109974000    0.0192592290    
0.0041679830    1.3284113000    0.0143622520    
0.0043906440    0.9799555300    0.0117989880    
0.0046133050    0.7853979500    0.0101402890    
0.0048359660    0.5974154300    0.0083654892    
0.0050586270    0.4698794800    0.0072921872    
0.0052812880    0.4230788100    0.0065422820    
0.0055039490    0.3838816300    0.0059255388    
0.0057266100    0.3163870000    0.0052041841    
0.0059492710    0.2683640000    0.0047929786    
0.0061719320    0.2232025700    0.0042121190    
0.0063945930    0.1979486400    0.0040147641    
0.0066172539    0.1816431500    0.0036112601    
0.0068399149    0.1674814700    0.0034130175    
0.0070625759    0.1466896700    0.0031613859    
0.0072852369    0.1306973900    0.0029394331    
0.0075078979    0.1117416400    0.0027045703    
0.0077305589    0.1026117200    0.0025423563    
0.0079532199    0.0945807150    0.0024070158    
0.0081758809    0.0934157020    0.0024143987    
0.0083985419    0.0845754400    0.0021426959    
0.0086212029    0.0732299660    0.0019938058    
0.0088438639    0.0731800350    0.0019771168    
0.0090665249    0.0624848700    0.0017645180    
0.0092891859    0.0629702000    0.0018488687    
0.0095118469    0.0573821550    0.0016972810    
0.0097345079    0.0559259190    0.0016273770    
0.0099571689    0.0559597540    0.0015943015    
0.0101798300    0.0526893880    0.0015470137    
0.0104024910    0.0471000490    0.0014577099    
0.0106251520    0.0482380610    0.0014802245    
0.0108478130    0.0441544930    0.0013791547    
0.0110704740    0.0448258570    0.0013229933    
0.0112931350    0.0439112500    0.0013132726    
0.0115157960    0.0403727090    0.0012519046    
0.0117384570    0.0406726290    0.0012457292    
0.0119611180    0.0360329260    0.0011758901    
0.0121837790    0.0358333900    0.0011529204    
0.0124064400    0.0356335410    0.0011017756    
0.0126291010    0.0344813900    0.0010702521    
0.0128517620    0.0351545820    0.0010833474    
0.0130744230    0.0337798780    0.0010540782    
0.0132970840    0.0307143690    0.0010001975    
0.0135197450    0.0310118370    0.0009906368    
0.0137424060    0.0309851580    0.0009764252    
0.0139650670    0.0317674220    0.0009666519    
0.0141877280    0.0299580610    0.0009407944    
0.0144103890    0.0289053270    0.0009081826    
0.0146330500    0.0294409860    0.0009107396    
0.0148557110    0.0283285650    0.0008896222    
0.0150783720    0.0278897360    0.0008754098    
0.0153010330    0.0283374090    0.0008699663    
0.0155236940    0.0269985220    0.0008441161    
0.0157463550    0.0258417350    0.0008115265    
0.0159690160    0.0259241820    0.0008097354    
0.0161916770    0.0250577290    0.0007916038    
0.0164143380    0.0247279760    0.0007923355    
0.0166369990    0.0271136460    0.0008040956    
0.0168596600    0.0260288410    0.0007809043    
0.0170823210    0.0253037830    0.0007632848    
0.0173049820    0.0244209770    0.0007511481    
0.0175276430    0.0252454650    0.0007717764    
0.0177503040    0.0245572910    0.0007417801    
0.0179729650    0.0244240400    0.0007324283    
0.0181956260    0.0249756520    0.0007264539    
0.0184182870    0.0228988260    0.0006923163    
0.0186409480    0.0239103140    0.0007119192    
0.0188636090    0.0232337420    0.0006973610    
0.0190862700    0.0232863400    0.0006970583    
0.0193089310    0.0215913340    0.0006701635    
0.0195315920    0.0229816160    0.0006678896    
0.0197542530    0.0224256900    0.0006607232    
0.0199769140    0.0215691610    0.0006479826    
0.0201995750    0.0218986190    0.0006426886    
0.0204222360    0.0228326150    0.0006618844    
0.0206448970    0.0223011460    0.0006494867    
0.0208675580    0.0230977050    0.0006473731    
0.0210902190    0.0223803340    0.0006433894    
0.0213128800    0.0223890180    0.0006347824    
0.0215355410    0.0217357600    0.0006180022    
0.0217582020    0.0220169110    0.0006219863    
0.0219808630    0.0228353940    0.0006326104    
0.0222035240    0.0223717970    0.0006204820    
0.0224261850    0.0216710690    0.0006052521    
0.0226488460    0.0225124060    0.0006122567    
0.0228715070    0.0215722630    0.0005978472    
0.0230941680    0.0219202110    0.0006026495    
0.0233168290    0.0228787600    0.0006172188    
0.0235394900    0.0210411250    0.0005853797    
0.0237621510    0.0215580640    0.0005765755    
0.0239848120    0.0212833930    0.0005735534    
0.0242074730    0.0212938590    0.0005691023    
0.0244301340    0.0220894710    0.0005802981    
0.0246527950    0.0201556810    0.0005594485    
0.0248754560    0.0204320920    0.0005506123    
0.0250981170    0.0216560480    0.0005681283    
0.0253207780    0.0213220250    0.0005468984    
0.0255434390    0.0212924140    0.0005523515    
0.0257661000    0.0208823690    0.0005487765    
0.0259887610    0.0211467230    0.0005463704    
0.0262114220    0.0210302400    0.0005477665    
0.0264340830    0.0217667600    0.0005496937    
0.0266567440    0.0214574640    0.0005424019    
0.0268794050    0.0210786810    0.0005353990    
0.0271020660    0.0207734650    0.0005293569    
0.0273247270    0.0207512620    0.0005258964    
0.0275473880    0.0198324540    0.0005130990    
0.0277700490    0.0218812600    0.0005357649    
0.0279927100    0.0202894020    0.0005114073    
0.0282153710    0.0202398610    0.0005132658    
0.0284380320    0.0201860010    0.0005096110    
0.0286606930    0.0203730730    0.0005075850    
0.0288833540    0.0211868180    0.0005186061    
0.0291060150    0.0201836880    0.0005056996    
0.0293286760    0.0197483060    0.0004932454    
0.0295513370    0.0199714030    0.0004906223    
0.0297739980    0.0207338950    0.0005054042    
0.0299966590    0.0198650550    0.0004862522    
0.0302193200    0.0213793970    0.0005117970    
0.0304419810    0.0214089660    0.0005130933    
0.0306646420    0.0207633130    0.0004910355    
0.0308873030    0.0205382810    0.0004862579    
0.0311099640    0.0196498550    0.0004768596    
0.0313326250    0.0202467840    0.0004786862    
0.0315552860    0.0201943410    0.0004842614    
0.0317779470    0.0206483170    0.0004901009    
0.0320006080    0.0197651410    0.0004686104    
0.0322232690    0.0197068980    0.0004698783    
0.0324459300    0.0198110740    0.0004676014    
0.0326685910    0.0202408300    0.0004718668    
0.0328912520    0.0202865220    0.0004739635    
0.0331139130    0.0198916110    0.0004632224    
0.0333365740    0.0204661520    0.0004713902    
0.0335592350    0.0203939550    0.0004660334    
0.0337818960    0.0197447990    0.0004581912    
0.0340045570    0.0204240510    0.0004652657    
0.0342272170    0.0187174750    0.0004436467    
0.0344498780    0.0209434220    0.0004711446    
0.0346725390    0.0204709570    0.0004571734    
0.0348952000    0.0196778420    0.0004461878    
0.0351178610    0.0193274660    0.0004442215    
0.0353405220    0.0194552890    0.0004436577    
0.0355631830    0.0196102540    0.0004437436    
0.0357858440    0.0203231840    0.0004517379    
0.0360085050    0.0200724120    0.0004502986    
0.0362311660    0.0199531120    0.0004436216    
0.0364538270    0.0196826350    0.0004370683    
0.0366764880    0.0213500690    0.0004548750    
0.0368991490    0.0202047470    0.0004402752    
0.0371218100    0.0203182420    0.0004402469    
0.0373444710    0.0196909040    0.0004381169    
0.0375671320    0.0204597590    0.0004459380    
0.0377897930    0.0193403930    0.0004223438    
0.0380124540    0.0189394620    0.0004205655    
0.0382351150    0.0195558480    0.0004273545    
0.0384577760    0.0196566050    0.0004243202    
0.0386804370    0.0200042640    0.0004313228    
0.0389030980    0.0206733540    0.0004351562    
0.0391257590    0.0202851920    0.0004281254    
0.0393484200    0.0196821810    0.0004202947    
0.0395710810    0.0197262470    0.0004213318    
0.0397937420    0.0208511620    0.0004331789    
0.0400164030    0.0191612810    0.0004169439    
0.0402390640    0.0196789600    0.0004169121    
0.0404617250    0.0197878740    0.0004155979    
0.0406843860    0.0195443250    0.0004090418    
0.0409070470    0.0202420680    0.0004206158    
0.0411297080    0.0195608710    0.0004094778    
0.0413523690    0.0200495670    0.0004156299    
0.0415750300    0.0200586390    0.0004192553    
0.0417976910    0.0199575240    0.0004073812    
0.0420203520    0.0199737320    0.0004090780    
0.0422430130    0.0196187460    0.0004069614    
0.0424656740    0.0201639860    0.0004072078    
0.0426883350    0.0195839380    0.0004032999    
0.0429109960    0.0203583750    0.0004124815    
0.0431336570    0.0199187270    0.0004022549    
0.0433563180    0.0202803970    0.0004093918    
0.0435789790    0.0204168020    0.0004043129    
0.0438016400    0.0192878590    0.0003951136    
0.0440243010    0.0191601590    0.0003898079    
0.0442469620    0.0192861290    0.0003934306    
0.0444696230    0.0199130230    0.0003983401    
0.0446922840    0.0189790530    0.0003877315    
0.0449149450    0.0202407710    0.0003950594    
0.0451376060    0.0197955250    0.0003955152    
0.0453602670    0.0197231090    0.0003906524    
0.0455829280    0.0197006820    0.0003899787    
0.0458055890    0.0191969750    0.0003872058    
0.0460282500    0.0196210310    0.0003867386    
0.0462509110    0.0199498670    0.0003875405    
0.0464735720    0.0186760790    0.0003751760    
0.0466962330    0.0194546980    0.0003846575    
0.0469188940    0.0194050510    0.0003830773    
0.0471415550    0.0202313910    0.0003931577    
0.0473642160    0.0192825540    0.0003784532    
0.0475868770    0.0205769870    0.0003890075    
0.0478095380    0.0203171030    0.0003848516    
0.0480321990    0.0198936960    0.0003816547    
0.0482548600    0.0191763530    0.0003730780    
0.0484775210    0.0198329620    0.0003831786    
0.0487001820    0.0194865780    0.0003742578    
0.0489228430    0.0200400610    0.0003793317    
0.0491455040    0.0199195980    0.0003755742    
0.0493681650    0.0196511310    0.0003762403    
0.0495908260    0.0201164910    0.0003742643    
0.0498134870    0.0196639420    0.0003735531    
0.0500361480    0.0200117930    0.0003758456    
0.0502588090    0.0201631160    0.0003716111    
0.0504814700    0.0197588690    0.0003726762    
0.0507041310    0.0198614490    0.0003692000    
0.0509267920    0.0193618130    0.0003660346    
0.0511494530    0.0194663440    0.0003645741    
0.0513721140    0.0199635900    0.0003724524    
0.0515947750    0.0197692350    0.0003657209    
0.0518174360    0.0198459510    0.0003642225    
0.0520400970    0.0194991790    0.0003585232    
0.0522627580    0.0194431530    0.0003610503    
0.0524854190    0.0196038880    0.0003654873    
0.0527080800    0.0202961460    0.0003747637    
0.0529307410    0.0202776850    0.0003763525    
0.0531534020    0.0198529340    0.0003710343    
0.0533760630    0.0198657780    0.0003723161    
0.0535987240    0.0189133920    0.0003615858    
0.0538213850    0.0197291060    0.0003735796    
0.0540440460    0.0193466070    0.0003681897    
0.0542667070    0.0197278490    0.0003743620    
0.0544893680    0.0193648520    0.0003710995    
0.0547120290    0.0200053020    0.0003746022    
0.0549346900    0.0199210300    0.0003740091    
0.0551573510    0.0201124690    0.0003802258    
0.0553800120    0.0200122200    0.0003760526    
0.0556026730    0.0200702520    0.0003844058    
0.0558253340    0.0192773380    0.0003798905    
0.0560479950    0.0192923300    0.0003800384    
0.0562706560    0.0193847950    0.0003846311    
0.0564933170    0.0187678350    0.0003817472    
0.0567159780    0.0197606640    0.0003870179    
0.0569386390    0.0200179200    0.0003956389    
0.0571613000    0.0189405660    0.0003765587    
0.0573839610    0.0190985510    0.0003749863    
0.0576066220    0.0196708530    0.0003816168    
0.0578292830    0.0187318960    0.0003711652    
0.0580519440    0.0193962600    0.0003791544    
0.0582746050    0.0191153800    0.0003747393    
0.0584972660    0.0199243480    0.0003811222    
0.0587199270    0.0197972740    0.0003766300    
0.0589425880    0.0198637870    0.0003750556    
0.0591652490    0.0193029200    0.0003718983    
0.0593879100    0.0196949490    0.0003728660    
0.0596105710    0.0193575610    0.0003692685    
0.0598332320    0.0197400570    0.0003760864    
0.0600558930    0.0191778840    0.0003683290    
0.0602785540    0.0191020640    0.0003672116    
0.0605012150    0.0198159810    0.0003732227    
0.0607238760    0.0192580510    0.0003652498    
0.0609465370    0.0192458080    0.0003680082    
0.0611691980    0.0199351300    0.0003751342    
0.0613918590    0.0190878730    0.0003630685    
0.0616145200    0.0198938550    0.0003733673    
0.0618371810    0.0195324860    0.0003663271    
0.0620598420    0.0196347420    0.0003676634    
0.0622825030    0.0193314920    0.0003703922    
0.0625051640    0.0196891500    0.0003685530    
0.0627278250    0.0182409360    0.0003540094    
0.0629504860    0.0192635910    0.0003608401    
0.0631731470    0.0189742590    0.0003625507    
0.0633958080    0.0199500910    0.0003738963    
0.0636184690    0.0194290700    0.0003741205    
0.0638411300    0.0192977780    0.0003714547    
0.0640637910    0.0193961680    0.0003750197    
0.0642864520    0.0200198320    0.0003801767    
0.0645091130    0.0196155350    0.0003796160    
0.0647317740    0.0188268090    0.0003723157    
0.0649544350    0.0199241400    0.0003825910    
0.0651770960    0.0198018280    0.0003793342    
0.0653997570    0.0189273940    0.0003700598    
0.0656224180    0.0193658690    0.0003751357    
0.0658450790    0.0200344330    0.0003760719    
0.0660677400    0.0192299450    0.0003700120    
0.0662904010    0.0186565630    0.0003688047    
0.0665130620    0.0192394840    0.0003728974    
0.0667357230    0.0197724910    0.0003847487    
0.0669583840    0.0193206250    0.0003790545    
0.0671810450    0.0198580590    0.0003821685    
0.0674037060    0.0201562970    0.0003915505    
0.0676263670    0.0205967610    0.0003929077    
0.0678490280    0.0200420510    0.0003852104    
0.0680716890    0.0194769130    0.0003805856    
0.0682943500    0.0194381650    0.0003760426    
0.0685170110    0.0191794490    0.0003697254    
0.0687396720    0.0198575080    0.0003752046    
0.0689623330    0.0196966290    0.0003724975    
0.0691849940    0.0198205170    0.0003762561    
0.0694076550    0.0192071690    0.0003701910    
0.0696303160    0.0194309180    0.0003693931    
0.0698529770    0.0199089940    0.0003731261    
0.0700756380    0.0194829110    0.0003643735    
0.0702982990    0.0193246070    0.0003668421    
0.0705209600    0.0194172160    0.0003650652    
0.0707436210    0.0196541270    0.0003655988    
0.0709662820    0.0190043430    0.0003637903    
0.0711889430    0.0188732720    0.0003580808    
0.0714116040    0.0197076060    0.0003666571    
0.0716342650    0.0198253130    0.0003662573    
0.0718569260    0.0195048530    0.0003618219    
0.0720795870    0.0190269360    0.0003588072    
0.0723022480    0.0187931290    0.0003571393    
0.0725249090    0.0191407440    0.0003561107    
0.0727475700    0.0198128090    0.0003654032    
0.0729702310    0.0198362640    0.0003627034    
0.0731928920    0.0204965210    0.0003701639    
0.0734155530    0.0200552500    0.0003654270    
0.0736382140    0.0198709700    0.0003614099    
0.0738608750    0.0198622070    0.0003636645    
0.0740835360    0.0192469260    0.0003570987    
0.0743061970    0.0199001370    0.0003579949    
0.0745288580    0.0192268920    0.0003555054    
0.0747515190    0.0199496430    0.0003628407    
0.0749741800    0.0192840490    0.0003534344    
0.0751968410    0.0201670830    0.0003642737    
0.0754195020    0.0193527060    0.0003547523    
0.0756421630    0.0188520870    0.0003472717    
0.0758648240    0.0201191290    0.0003596143    
0.0760874850    0.0196246080    0.0003549967    
0.0763101460    0.0194844180    0.0003533871    
0.0765328070    0.0201991780    0.0003634922    
0.0767554680    0.0197904730    0.0003573545    
0.0769781290    0.0197996890    0.0003553837    
0.0772007900    0.0195963510    0.0003507186    
0.0774234510    0.0195278810    0.0003520967    
0.0776461120    0.0198076750    0.0003542738    
0.0778687730    0.0192804580    0.0003483725    
0.0780914340    0.0196719020    0.0003544055    
0.0783140950    0.0199987660    0.0003516683    
0.0785367560    0.0197996550    0.0003555550    
0.0787594170    0.0192520470    0.0003474623    
0.0789820780    0.0194090540    0.0003470887    
0.0792047390    0.0193987290    0.0003481308    
0.0794274000    0.0198154870    0.0003533413    
0.0796500610    0.0199680770    0.0003512372    
0.0798727220    0.0191357080    0.0003435213    
0.0800953830    0.0189434400    0.0003410051    
0.0803180440    0.0190651280    0.0003444817    
0.0805407050    0.0191663660    0.0003450740    
0.0807633660    0.0191308010    0.0003444336    
0.0809860270    0.0197530550    0.0003486980    
0.0812086880    0.0197761060    0.0003458863    
0.0814313490    0.0189984350    0.0003405634    
0.0816540100    0.0192098070    0.0003416731    
0.0818766710    0.0191877420    0.0003422565    
0.0820993320    0.0200181070    0.0003489467    
0.0823219930    0.0196254750    0.0003469327    
0.0825446540    0.0196495860    0.0003446235    
0.0827673150    0.0199112140    0.0003445796    
0.0829899760    0.0195076320    0.0003404624    
0.0832126370    0.0198026820    0.0003445639    
0.0834352980    0.0189562180    0.0003363655    
0.0836579590    0.0191511970    0.0003373384    
0.0838806200    0.0194087650    0.0003406620    
0.0841032810    0.0194047550    0.0003385122    
0.0843259420    0.0198488440    0.0003413095    
0.0845486030    0.0190389550    0.0003342741    
0.0847712640    0.0196946490    0.0003379095    
0.0849939250    0.0197109400    0.0003386380    
0.0852165860    0.0196867840    0.0003388737    
0.0854392470    0.0189093380    0.0003289700    
0.0856619080    0.0192295510    0.0003341870    
0.0858845690    0.0198942720    0.0003368525    
0.0861072300    0.0190769730    0.0003321378    
0.0863298910    0.0194175260    0.0003368439    
0.0865525520    0.0184634010    0.0003256276    
0.0867752130    0.0192346020    0.0003296768    
0.0869978740    0.0202130790    0.0003388196    
0.0872205350    0.0200313820    0.0003368641    
0.0874431960    0.0192723050    0.0003304201    
0.0876658570    0.0193920400    0.0003327176    
0.0878885180    0.0195731590    0.0003348409    
0.0881111790    0.0194029750    0.0003329542    
0.0883338400    0.0193271360    0.0003274375    
0.0885565010    0.0193362740    0.0003319563    
0.0887791620    0.0198207380    0.0003317307    
0.0890018230    0.0198505100    0.0003351998    
0.0892244840    0.0192762750    0.0003308775    
0.0894471450    0.0197726750    0.0003336952    
0.0896698060    0.0198194130    0.0003328292    
0.0898924670    0.0190840680    0.0003281104    
0.0901151280    0.0195351410    0.0003283797    
0.0903377890    0.0196053080    0.0003317221    
0.0905604500    0.0188362720    0.0003236587    
0.0907831110    0.0193624410    0.0003273318    
0.0910057720    0.0194176940    0.0003293027    
0.0912284330    0.0191369300    0.0003222326    
0.0914510940    0.0196659680    0.0003302990    
0.0916737550    0.0190054400    0.0003238988    
0.0918964160    0.0188020580    0.0003235010    
0.0921190770    0.0195512900    0.0003269008    
0.0923417380    0.0194196360    0.0003259319    
0.0925643990    0.0190851890    0.0003223224    
0.0927870600    0.0198896640    0.0003303949    
0.0930097210    0.0194821730    0.0003242080    
0.0932323820    0.0189922200    0.0003224583    
