# Diamond Light Source Ltd.
# Data extracted from: /dls/b21/data/2018/cm19678-3/processed/b21-386631_00233.dat
q(1/A)          Column          Error           
0.0035000000    2.1118241000    0.0247628680    
0.0037226610    1.8955507000    0.0229666730    
0.0039453220    1.6580840000    0.0195407080    
0.0041679830    1.2906386000    0.0141580720    
0.0043906440    0.9668042600    0.0117207770    
0.0046133050    0.7846460100    0.0101364960    
0.0048359660    0.6076168900    0.0084374960    
0.0050586270    0.4662426500    0.0072646735    
0.0052812880    0.4310601900    0.0066043961    
0.0055039490    0.3855173800    0.0059387726    
0.0057266100    0.3255291200    0.0052793906    
0.0059492710    0.2720163400    0.0048259897    
0.0061719320    0.2247599600    0.0042272317    
0.0063945930    0.2037726700    0.0040738241    
0.0066172539    0.1875697300    0.0036700853    
0.0068399149    0.1642469600    0.0033802540    
0.0070625759    0.1429723500    0.0031213991    
0.0072852369    0.1278815200    0.0029079006    
0.0075078979    0.1180506300    0.0027801642    
0.0077305589    0.1028852500    0.0025460096    
0.0079532199    0.0951519790    0.0024145272    
0.0081758809    0.0923742370    0.0024011540    
0.0083985419    0.0839416250    0.0021348759    
0.0086212029    0.0751456840    0.0020199285    
0.0088438639    0.0696691810    0.0019293095    
0.0090665249    0.0664850850    0.0018203140    
0.0092891859    0.0631462940    0.0018516462    
0.0095118469    0.0613610670    0.0017553240    
0.0097345079    0.0533325920    0.0015893644    
0.0099571689    0.0547902730    0.0015777196    
0.0101798300    0.0539270860    0.0015652424    
0.0104024910    0.0463879360    0.0014468000    
0.0106251520    0.0471578230    0.0014637101    
0.0108478130    0.0452409180    0.0013961650    
0.0110704740    0.0417108500    0.0012763313    
0.0112931350    0.0392848470    0.0012422959    
0.0115157960    0.0401482080    0.0012485499    
0.0117384570    0.0387348750    0.0012158196    
0.0119611180    0.0362707730    0.0011798883    
0.0121837790    0.0355811880    0.0011489765    
0.0124064400    0.0353002770    0.0010967263    
0.0126291010    0.0343224910    0.0010678952    
0.0128517620    0.0345942880    0.0010747922    
0.0130744230    0.0322407230    0.0010298921    
0.0132970840    0.0330012520    0.0010368733    
0.0135197450    0.0336454040    0.0010319511    
0.0137424060    0.0313609700    0.0009824318    
0.0139650670    0.0311856760    0.0009578604    
0.0141877280    0.0295506350    0.0009344731    
0.0144103890    0.0291111720    0.0009115061    
0.0146330500    0.0298980260    0.0009178777    
0.0148557110    0.0280830160    0.0008858511    
0.0150783720    0.0283353190    0.0008824676    
0.0153010330    0.0272480850    0.0008531706    
0.0155236940    0.0280864630    0.0008610458    
0.0157463550    0.0272746100    0.0008338092    
0.0159690160    0.0261825900    0.0008138464    
0.0161916770    0.0265637610    0.0008151308    
0.0164143380    0.0256981110    0.0008078132    
0.0166369990    0.0260460080    0.0007881881    
0.0168596600    0.0254016030    0.0007715187    
0.0170823210    0.0248715350    0.0007568167    
0.0173049820    0.0245878610    0.0007537892    
0.0175276430    0.0239056250    0.0007510959    
0.0177503040    0.0237332340    0.0007293046    
0.0179729650    0.0248685350    0.0007391405    
0.0181956260    0.0236916900    0.0007076088    
0.0184182870    0.0235735700    0.0007025159    
0.0186409480    0.0245301720    0.0007211638    
0.0188636090    0.0243691420    0.0007142722    
0.0190862700    0.0243347370    0.0007126518    
0.0193089310    0.0229065940    0.0006903461    
0.0195315920    0.0224816660    0.0006606542    
0.0197542530    0.0228003390    0.0006662893    
0.0199769140    0.0239491260    0.0006828686    
0.0201995750    0.0236388670    0.0006678072    
0.0204222360    0.0228757850    0.0006625793    
0.0206448970    0.0222490650    0.0006487959    
0.0208675580    0.0227032900    0.0006418893    
0.0210902190    0.0219410280    0.0006371103    
0.0213128800    0.0234557940    0.0006497974    
0.0215355410    0.0218809190    0.0006201273    
0.0217582020    0.0218457770    0.0006196293    
0.0219808630    0.0218936210    0.0006194930    
0.0222035240    0.0210855370    0.0006024439    
0.0224261850    0.0217432450    0.0006063228    
0.0226488460    0.0215678100    0.0005993371    
0.0228715070    0.0224551050    0.0006100219    
0.0230941680    0.0207647660    0.0005866127    
0.0233168290    0.0221340960    0.0006071546    
0.0235394900    0.0209152250    0.0005836870    
0.0237621510    0.0209456300    0.0005683862    
0.0239848120    0.0206694730    0.0005652801    
0.0242074730    0.0204311780    0.0005575135    
0.0244301340    0.0207827900    0.0005629320    
0.0246527950    0.0214956180    0.0005778058    
0.0248754560    0.0214752640    0.0005645524    
0.0250981170    0.0206021580    0.0005541900    
0.0253207780    0.0203583850    0.0005344531    
0.0255434390    0.0206232900    0.0005436602    
0.0257661000    0.0201943700    0.0005397172    
0.0259887610    0.0202051450    0.0005341241    
0.0262114220    0.0193935480    0.0005260749    
0.0264340830    0.0212020490    0.0005425732    
0.0266567440    0.0209956970    0.0005365902    
0.0268794050    0.0217359970    0.0005437399    
0.0271020660    0.0201436930    0.0005213258    
0.0273247270    0.0198091480    0.0005138737    
0.0275473880    0.0206067090    0.0005230736    
0.0277700490    0.0210854670    0.0005259873    
0.0279927100    0.0207964860    0.0005178128    
0.0282153710    0.0212205090    0.0005256080    
0.0284380320    0.0202674440    0.0005106916    
0.0286606930    0.0208200570    0.0005131768    
0.0288833540    0.0202516850    0.0005070851    
0.0291060150    0.0194528940    0.0004965123    
0.0293286760    0.0206149990    0.0005040056    
0.0295513370    0.0209159030    0.0005021424    
0.0297739980    0.0214282860    0.0005138515    
0.0299966590    0.0210954220    0.0005011369    
0.0302193200    0.0201706980    0.0004971713    
0.0304419810    0.0197407220    0.0004927487    
0.0306646420    0.0204772920    0.0004876928    
0.0308873030    0.0199322980    0.0004790809    
0.0311099640    0.0199896440    0.0004810153    
0.0313326250    0.0199906750    0.0004756989    
0.0315552860    0.0197455890    0.0004789009    
0.0317779470    0.0207573650    0.0004914449    
0.0320006080    0.0200804380    0.0004723828    
0.0322232690    0.0196662080    0.0004694421    
0.0324459300    0.0204223800    0.0004748107    
0.0326685910    0.0203661050    0.0004733744    
0.0328912520    0.0203350790    0.0004745801    
0.0331139130    0.0196692040    0.0004606737    
0.0333365740    0.0206767770    0.0004738593    
0.0335592350    0.0209308220    0.0004721772    
0.0337818960    0.0198978290    0.0004600116    
0.0340045570    0.0196014480    0.0004558476    
0.0342272170    0.0198993770    0.0004574872    
0.0344498780    0.0199407080    0.0004597759    
0.0346725390    0.0202301600    0.0004545243    
0.0348952000    0.0196718490    0.0004461666    
0.0351178610    0.0197706400    0.0004493327    
0.0353405220    0.0197730670    0.0004473132    
0.0355631830    0.0199558350    0.0004476834    
0.0357858440    0.0198855450    0.0004468944    
0.0360085050    0.0202382860    0.0004522028    
0.0362311660    0.0191483510    0.0004346289    
0.0364538270    0.0194731980    0.0004347823    
0.0366764880    0.0197260560    0.0004372784    
0.0368991490    0.0192397970    0.0004296782    
0.0371218100    0.0200171890    0.0004370190    
0.0373444710    0.0197242840    0.0004385340    
0.0375671320    0.0202501730    0.0004436946    
0.0377897930    0.0199440620    0.0004289294    
0.0380124540    0.0195973000    0.0004278519    
0.0382351150    0.0198495190    0.0004305965    
0.0384577760    0.0200546750    0.0004286401    
0.0386804370    0.0194224380    0.0004250485    
0.0389030980    0.0196790770    0.0004246074    
0.0391257590    0.0200454310    0.0004256323    
0.0393484200    0.0193092790    0.0004163378    
0.0395710810    0.0198383970    0.0004225721    
0.0397937420    0.0199464240    0.0004237212    
0.0400164030    0.0198912580    0.0004248562    
0.0402390640    0.0200452980    0.0004208189    
0.0404617250    0.0196872580    0.0004145835    
0.0406843860    0.0200022420    0.0004138493    
0.0409070470    0.0201239260    0.0004194306    
0.0411297080    0.0190677040    0.0004043254    
0.0413523690    0.0199589760    0.0004147334    
0.0415750300    0.0193353590    0.0004116703    
0.0417976910    0.0194460320    0.0004021691    
0.0420203520    0.0200868610    0.0004102778    
0.0422430130    0.0197072960    0.0004079215    
0.0424656740    0.0202175660    0.0004077913    
0.0426883350    0.0201446180    0.0004090752    
0.0429109960    0.0186991930    0.0003953574    
0.0431336570    0.0198254020    0.0004013535    
0.0433563180    0.0193919270    0.0004003658    
0.0435789790    0.0196522900    0.0003967125    
0.0438016400    0.0190247480    0.0003924506    
0.0440243010    0.0200367180    0.0003986667    
0.0442469620    0.0192018700    0.0003926114    
0.0444696230    0.0193592940    0.0003928039    
0.0446922840    0.0193950190    0.0003919986    
0.0449149450    0.0196820120    0.0003896092    
0.0451376060    0.0198075800    0.0003956771    
0.0453602670    0.0197659410    0.0003911173    
0.0455829280    0.0200986010    0.0003939388    
0.0458055890    0.0195759600    0.0003910502    
0.0460282500    0.0194726590    0.0003853140    
0.0462509110    0.0203305420    0.0003912615    
0.0464735720    0.0192076790    0.0003805180    
0.0466962330    0.0199380210    0.0003894472    
0.0469188940    0.0196436030    0.0003854652    
0.0471415550    0.0198306150    0.0003892849    
0.0473642160    0.0193460320    0.0003791154    
0.0475868770    0.0198530860    0.0003821436    
0.0478095380    0.0193370140    0.0003754937    
0.0480321990    0.0193632540    0.0003765716    
0.0482548600    0.0197684180    0.0003788333    
0.0484775210    0.0200000240    0.0003848294    
0.0487001820    0.0195266120    0.0003746813    
0.0489228430    0.0198575380    0.0003776399    
0.0491455040    0.0200654310    0.0003769860    
0.0493681650    0.0193814620    0.0003736891    
0.0495908260    0.0196540820    0.0003699766    
0.0498134870    0.0196112830    0.0003730917    
0.0500361480    0.0198536020    0.0003743964    
0.0502588090    0.0198316790    0.0003685829    
0.0504814700    0.0193341460    0.0003686877    
0.0507041310    0.0198381560    0.0003690221    
0.0509267920    0.0197119400    0.0003693681    
0.0511494530    0.0202353110    0.0003717441    
0.0513721140    0.0194048150    0.0003672415    
0.0515947750    0.0197801480    0.0003658602    
0.0518174360    0.0193821080    0.0003599788    
0.0520400970    0.0196351370    0.0003598086    
0.0522627580    0.0196819380    0.0003632987    
0.0524854190    0.0192263350    0.0003619886    
0.0527080800    0.0192691170    0.0003651970    
0.0529307410    0.0198347990    0.0003722589    
0.0531534020    0.0204050230    0.0003761974    
0.0533760630    0.0190184750    0.0003643279    
0.0535987240    0.0188343880    0.0003608677    
0.0538213850    0.0190044780    0.0003666933    
0.0540440460    0.0190282700    0.0003651862    
0.0542667070    0.0199593620    0.0003765917    
0.0544893680    0.0195609660    0.0003730130    
0.0547120290    0.0201287690    0.0003757958    
0.0549346900    0.0193141780    0.0003683069    
0.0551573510    0.0195055660    0.0003744843    
0.0553800120    0.0201012320    0.0003769276    
0.0556026730    0.0192791410    0.0003767930    
0.0558253340    0.0197680950    0.0003847360    
0.0560479950    0.0200002400    0.0003869887    
0.0562706560    0.0191674910    0.0003825092    
0.0564933170    0.0200998520    0.0003951034    
0.0567159780    0.0204092300    0.0003933590    
0.0569386390    0.0196388820    0.0003919164    
0.0571613000    0.0203897150    0.0003907395    
0.0573839610    0.0201114430    0.0003848419    
0.0576066220    0.0194898550    0.0003798968    
0.0578292830    0.0201923190    0.0003854029    
0.0580519440    0.0191482800    0.0003767624    
0.0582746050    0.0195235260    0.0003787586    
0.0584972660    0.0196222700    0.0003782617    
0.0587199270    0.0194717600    0.0003735600    
0.0589425880    0.0192729770    0.0003694745    
0.0591652490    0.0196868010    0.0003756175    
0.0593879100    0.0195578670    0.0003716051    
0.0596105710    0.0194391240    0.0003700845    
0.0598332320    0.0198230310    0.0003769155    
0.0600558930    0.0194649300    0.0003711142    
0.0602785540    0.0195085260    0.0003711368    
0.0605012150    0.0201154350    0.0003760716    
0.0607238760    0.0195045980    0.0003676189    
0.0609465370    0.0193202280    0.0003687577    
0.0611691980    0.0199322490    0.0003751465    
0.0613918590    0.0193060040    0.0003651754    
0.0616145200    0.0190219250    0.0003651317    
0.0618371810    0.0200244820    0.0003709510    
0.0620598420    0.0196526320    0.0003678695    
0.0622825030    0.0193568410    0.0003706738    
0.0625051640    0.0195207740    0.0003670122    
0.0627278250    0.0197359520    0.0003682696    
0.0629504860    0.0196529840    0.0003645071    
0.0631731470    0.0196641990    0.0003691221    
0.0633958080    0.0198491420    0.0003729882    
0.0636184690    0.0192890350    0.0003728089    
0.0638411300    0.0192517650    0.0003710505    
0.0640637910    0.0195162750    0.0003762184    
0.0642864520    0.0193741340    0.0003740348    
0.0645091130    0.0196710860    0.0003801930    
0.0647317740    0.0198470440    0.0003823107    
0.0649544350    0.0187011690    0.0003707020    
0.0651770960    0.0192535940    0.0003740855    
0.0653997570    0.0199155630    0.0003796369    
0.0656224180    0.0195589050    0.0003770402    
0.0658450790    0.0192407600    0.0003685861    
0.0660677400    0.0203306210    0.0003804938    
0.0662904010    0.0197032450    0.0003790488    
0.0665130620    0.0197423170    0.0003777785    
0.0667357230    0.0202484010    0.0003893923    
0.0669583840    0.0192800470    0.0003786959    
0.0671810450    0.0197371650    0.0003810434    
0.0674037060    0.0195519050    0.0003856759    
0.0676263670    0.0193866070    0.0003812304    
0.0678490280    0.0195352850    0.0003803491    
0.0680716890    0.0194066140    0.0003799380    
0.0682943500    0.0195513860    0.0003771757    
0.0685170110    0.0194472350    0.0003723365    
0.0687396720    0.0195213080    0.0003720539    
0.0689623330    0.0196302990    0.0003719087    
0.0691849940    0.0194031770    0.0003723128    
0.0694076550    0.0198392000    0.0003762719    
0.0696303160    0.0196035650    0.0003710694    
0.0698529770    0.0200250800    0.0003742515    
0.0700756380    0.0198209810    0.0003675597    
0.0702982990    0.0189525350    0.0003633315    
0.0705209600    0.0192908510    0.0003639136    
0.0707436210    0.0194065680    0.0003633272    
0.0709662820    0.0195655540    0.0003691614    
0.0711889430    0.0193528980    0.0003626403    
0.0714116040    0.0192204810    0.0003621353    
0.0716342650    0.0194843160    0.0003631318    
0.0718569260    0.0195492230    0.0003622712    
0.0720795870    0.0191392100    0.0003599020    
0.0723022480    0.0202769410    0.0003710093    
0.0725249090    0.0195092310    0.0003595599    
0.0727475700    0.0199922160    0.0003670924    
0.0729702310    0.0193429210    0.0003582022    
0.0731928920    0.0191167140    0.0003575248    
0.0734155530    0.0193868120    0.0003593232    
0.0736382140    0.0198356890    0.0003611267    
0.0738608750    0.0195799990    0.0003611096    
0.0740835360    0.0193768720    0.0003583397    
0.0743061970    0.0198141290    0.0003572579    
0.0745288580    0.0194150150    0.0003572778    
0.0747515190    0.0198218130    0.0003617143    
0.0749741800    0.0193917580    0.0003544572    
0.0751968410    0.0193157590    0.0003565395    
0.0754195020    0.0194673380    0.0003558387    
0.0756421630    0.0193807080    0.0003521438    
0.0758648240    0.0197954600    0.0003567473    
0.0760874850    0.0196993770    0.0003557096    
0.0763101460    0.0193667010    0.0003523549    
0.0765328070    0.0196342120    0.0003584103    
0.0767554680    0.0200850560    0.0003600421    
0.0769781290    0.0195358760    0.0003530452    
0.0772007900    0.0192865520    0.0003479717    
0.0774234510    0.0196843710    0.0003535418    
0.0776461120    0.0189752450    0.0003467859    
0.0778687730    0.0195552270    0.0003508829    
0.0780914340    0.0193694870    0.0003517077    
0.0783140950    0.0194091800    0.0003464820    
0.0785367560    0.0197910350    0.0003555148    
0.0787594170    0.0200589440    0.0003547063    
0.0789820780    0.0198911580    0.0003514097    
0.0792047390    0.0198464680    0.0003521624    
0.0794274000    0.0197440190    0.0003527405    
0.0796500610    0.0194346450    0.0003465503    
0.0798727220    0.0196455080    0.0003481036    
0.0800953830    0.0193465000    0.0003446499    
0.0803180440    0.0187267160    0.0003414465    
0.0805407050    0.0195742990    0.0003487634    
0.0807633660    0.0199039260    0.0003513613    
0.0809860270    0.0197448840    0.0003486624    
0.0812086880    0.0198347110    0.0003464347    
0.0814313490    0.0196008240    0.0003459568    
0.0816540100    0.0196089320    0.0003452405    
0.0818766710    0.0194482270    0.0003446079    
0.0820993320    0.0195234200    0.0003446442    
0.0823219930    0.0202000760    0.0003520117    
0.0825446540    0.0192970260    0.0003415537    
0.0827673150    0.0198438160    0.0003440320    
0.0829899760    0.0197494540    0.0003426020    
0.0832126370    0.0198608050    0.0003451054    
0.0834352980    0.0196885130    0.0003428369    
0.0836579590    0.0194702070    0.0003401720    
0.0838806200    0.0199152010    0.0003451140    
0.0841032810    0.0195269550    0.0003396121    
0.0843259420    0.0190546590    0.0003344467    
0.0845486030    0.0195008240    0.0003383398    
0.0847712640    0.0190435060    0.0003323115    
0.0849939250    0.0194124810    0.0003360996    
0.0852165860    0.0193175150    0.0003357157    
0.0854392470    0.0191480030    0.0003310743    
0.0856619080    0.0193032920    0.0003348623    
0.0858845690    0.0195219250    0.0003337203    
0.0861072300    0.0195957380    0.0003366588    
0.0863298910    0.0192462610    0.0003353903    
0.0865525520    0.0193174000    0.0003331081    
0.0867752130    0.0197246880    0.0003338854    
0.0869978740    0.0193481830    0.0003315262    
0.0872205350    0.0191969900    0.0003298082    
0.0874431960    0.0192876790    0.0003305865    
0.0876658570    0.0194189460    0.0003329832    
0.0878885180    0.0195256990    0.0003344697    
0.0881111790    0.0196584900    0.0003351745    
0.0883338400    0.0200469540    0.0003335143    
0.0885565010    0.0183770180    0.0003236514    
0.0887791620    0.0196527450    0.0003303566    
0.0890018230    0.0187846610    0.0003261108    
0.0892244840    0.0198029420    0.0003354023    
0.0894471450    0.0194388520    0.0003309010    
0.0896698060    0.0195664110    0.0003307327    
0.0898924670    0.0192911950    0.0003299207    
0.0901151280    0.0193956880    0.0003272398    
0.0903377890    0.0194746860    0.0003306498    
0.0905604500    0.0193408480    0.0003279995    
0.0907831110    0.0194993390    0.0003285213    
0.0910057720    0.0190307620    0.0003260394    
0.0912284330    0.0195859550    0.0003260253    
0.0914510940    0.0195424720    0.0003292948    
0.0916737550    0.0194345570    0.0003275694    
0.0918964160    0.0197579920    0.0003316575    
0.0921190770    0.0192328380    0.0003242616    
0.0923417380    0.0197793540    0.0003289713    
0.0925643990    0.0189421840    0.0003211462    
0.0927870600    0.0191856930    0.0003245293    
0.0930097210    0.0196103750    0.0003253070    
0.0932323820    0.0189523950    0.0003221538    
