# Diamond Light Source Ltd.
# Data extracted from: /dls/b21/data/2018/cm19678-3/processed/b21-386631_00232.dat
q(1/A)          Column          Error           
0.0035000000    2.1008703000    0.0246990340    
0.0037226610    1.8547162000    0.0227183820    
0.0039453220    1.6337356000    0.0193970720    
0.0041679830    1.3046663000    0.0142350770    
0.0043906440    0.9544785000    0.0116460450    
0.0046133050    0.7912236200    0.0101790880    
0.0048359660    0.5938140700    0.0083412701    
0.0050586270    0.4525635200    0.0071574472    
0.0052812880    0.4411957900    0.0066817176    
0.0055039490    0.3819640300    0.0059114528    
0.0057266100    0.3252846600    0.0052775085    
0.0059492710    0.2785341200    0.0048835582    
0.0061719320    0.2207136400    0.0041890875    
0.0063945930    0.2033732000    0.0040699067    
0.0066172539    0.1835553200    0.0036306682    
0.0068399149    0.1669664200    0.0034081878    
0.0070625759    0.1488386600    0.0031848533    
0.0072852369    0.1265638900    0.0028929361    
0.0075078979    0.1105252700    0.0026901429    
0.0077305589    0.0968405760    0.0024701335    
0.0079532199    0.0949105170    0.0024115076    
0.0081758809    0.0911918280    0.0023857823    
0.0083985419    0.0818814980    0.0021085558    
0.0086212029    0.0764517020    0.0020374447    
0.0088438639    0.0687635390    0.0019167653    
0.0090665249    0.0656901670    0.0018094336    
0.0092891859    0.0635287880    0.0018572811    
0.0095118469    0.0615642680    0.0017582616    
0.0097345079    0.0559397800    0.0016277804    
0.0099571689    0.0539291320    0.0015653017    
0.0101798300    0.0519755160    0.0015366884    
0.0104024910    0.0498192930    0.0014993845    
0.0106251520    0.0462055240    0.0014488834    
0.0108478130    0.0475694070    0.0014316709    
0.0110704740    0.0456962120    0.0013359410    
0.0112931350    0.0448650050    0.0013276227    
0.0115157960    0.0416640900    0.0012719266    
0.0117384570    0.0418276270    0.0012634497    
0.0119611180    0.0386902990    0.0012186299    
0.0121837790    0.0372151110    0.0011750838    
0.0124064400    0.0363579460    0.0011130563    
0.0126291010    0.0365832560    0.0011025256    
0.0128517620    0.0357643770    0.0010928384    
0.0130744230    0.0336237500    0.0010517698    
0.0132970840    0.0337192480    0.0010481120    
0.0135197450    0.0308929120    0.0009888580    
0.0137424060    0.0311775010    0.0009795725    
0.0139650670    0.0303042170    0.0009442445    
0.0141877280    0.0305860730    0.0009507220    
0.0144103890    0.0307676860    0.0009370989    
0.0146330500    0.0296455440    0.0009140113    
0.0148557110    0.0279443650    0.0008836784    
0.0150783720    0.0275668360    0.0008704352    
0.0153010330    0.0276765610    0.0008598689    
0.0155236940    0.0258964950    0.0008268115    
0.0157463550    0.0263834560    0.0008200900    
0.0159690160    0.0272208130    0.0008298411    
0.0161916770    0.0255141900    0.0007988803    
0.0164143380    0.0268672310    0.0008260001    
0.0166369990    0.0263809370    0.0007932547    
0.0168596600    0.0251682300    0.0007679811    
0.0170823210    0.0248955130    0.0007571959    
0.0173049820    0.0257673970    0.0007716727    
0.0175276430    0.0230333460    0.0007372794    
0.0177503040    0.0246754360    0.0007436544    
0.0179729650    0.0242763060    0.0007303003    
0.0181956260    0.0233966990    0.0007032031    
0.0184182870    0.0239722610    0.0007084452    
0.0186409480    0.0245311070    0.0007211913    
0.0188636090    0.0241188330    0.0007106079    
0.0190862700    0.0235843060    0.0007015908    
0.0193089310    0.0225329580    0.0006847058    
0.0195315920    0.0242104550    0.0006855983    
0.0197542530    0.0235411280    0.0006770397    
0.0199769140    0.0218081660    0.0006516436    
0.0201995750    0.0227530410    0.0006551878    
0.0204222360    0.0223009020    0.0006542133    
0.0206448970    0.0232905130    0.0006638195    
0.0208675580    0.0219963520    0.0006318287    
0.0210902190    0.0222008740    0.0006408840    
0.0213128800    0.0215664720    0.0006230899    
0.0215355410    0.0218114500    0.0006191540    
0.0217582020    0.0232350910    0.0006390409    
0.0219808630    0.0210880950    0.0006080013    
0.0222035240    0.0230486620    0.0006298765    
0.0224261850    0.0225049470    0.0006168633    
0.0226488460    0.0212355260    0.0005947137    
0.0228715070    0.0214450280    0.0005961554    
0.0230941680    0.0227045600    0.0006134128    
0.0233168290    0.0211522750    0.0005935472    
0.0235394900    0.0218445370    0.0005965247    
0.0237621510    0.0205608170    0.0005631515    
0.0239848120    0.0213968890    0.0005751519    
0.0242074730    0.0219837520    0.0005783196    
0.0244301340    0.0212257870    0.0005689108    
0.0246527950    0.0214809050    0.0005776190    
0.0248754560    0.0211644040    0.0005604622    
0.0250981170    0.0210501850    0.0005601941    
0.0253207780    0.0214535890    0.0005486511    
0.0255434390    0.0217419900    0.0005582214    
0.0257661000    0.0214645490    0.0005564425    
0.0259887610    0.0215473280    0.0005515897    
0.0262114220    0.0212780590    0.0005510528    
0.0264340830    0.0212861690    0.0005436588    
0.0266567440    0.0206536420    0.0005322114    
0.0268794050    0.0210975070    0.0005357044    
0.0271020660    0.0206167030    0.0005274211    
0.0273247270    0.0214362880    0.0005345724    
0.0275473880    0.0215635130    0.0005350896    
0.0277700490    0.0199184560    0.0005112341    
0.0279927100    0.0211196170    0.0005218301    
0.0282153710    0.0202188390    0.0005130628    
0.0284380320    0.0203068230    0.0005111972    
0.0286606930    0.0207955520    0.0005128845    
0.0288833540    0.0204810110    0.0005099578    
0.0291060150    0.0211138480    0.0005172850    
0.0293286760    0.0204802360    0.0005023651    
0.0295513370    0.0204585820    0.0004966319    
0.0297739980    0.0209978090    0.0005086736    
0.0299966590    0.0205366760    0.0004944651    
0.0302193200    0.0196199990    0.0004903468    
0.0304419810    0.0201719740    0.0004981114    
0.0306646420    0.0207568440    0.0004910198    
0.0308873030    0.0199676040    0.0004795141    
0.0311099640    0.0203145120    0.0004849175    
0.0313326250    0.0205800870    0.0004826700    
0.0315552860    0.0198624970    0.0004803257    
0.0317779470    0.0201414620    0.0004841082    
0.0320006080    0.0197367000    0.0004683312    
0.0322232690    0.0203393320    0.0004774175    
0.0324459300    0.0209530570    0.0004809493    
0.0326685910    0.0208620250    0.0004791123    
0.0328912520    0.0208453590    0.0004805068    
0.0331139130    0.0205763040    0.0004711856    
0.0333365740    0.0211554080    0.0004793215    
0.0335592350    0.0207718370    0.0004703895    
0.0337818960    0.0210365610    0.0004730005    
0.0340045570    0.0207365570    0.0004688698    
0.0342272170    0.0197949550    0.0004562939    
0.0344498780    0.0197824450    0.0004579564    
0.0346725390    0.0198122190    0.0004498133    
0.0348952000    0.0205024100    0.0004554967    
0.0351178610    0.0203432940    0.0004558024    
0.0353405220    0.0192374780    0.0004412219    
0.0355631830    0.0204487310    0.0004531870    
0.0357858440    0.0202076980    0.0004505084    
0.0360085050    0.0199965520    0.0004495026    
0.0362311660    0.0202540250    0.0004470096    
0.0364538270    0.0203379380    0.0004443395    
0.0366764880    0.0197461960    0.0004375099    
0.0368991490    0.0202961210    0.0004413243    
0.0371218100    0.0196362940    0.0004328494    
0.0373444710    0.0205148170    0.0004472443    
0.0375671320    0.0202801110    0.0004440309    
0.0377897930    0.0197418690    0.0004267577    
0.0380124540    0.0193738560    0.0004254139    
0.0382351150    0.0193925520    0.0004256193    
0.0384577760    0.0202295160    0.0004305127    
0.0386804370    0.0199999200    0.0004313294    
0.0389030980    0.0198905520    0.0004268909    
0.0391257590    0.0204167510    0.0004295646    
0.0393484200    0.0197409220    0.0004209736    
0.0395710810    0.0201992110    0.0004264057    
0.0397937420    0.0201632190    0.0004260258    
0.0400164030    0.0205454030    0.0004317939    
0.0402390640    0.0201432440    0.0004218538    
0.0404617250    0.0198015090    0.0004157926    
0.0406843860    0.0193522220    0.0004070771    
0.0409070470    0.0203869610    0.0004221708    
0.0411297080    0.0198743810    0.0004127973    
0.0413523690    0.0203217000    0.0004184930    
0.0415750300    0.0198970710    0.0004176151    
0.0417976910    0.0199458350    0.0004073124    
0.0420203520    0.0203390360    0.0004128530    
0.0422430130    0.0193111850    0.0004038088    
0.0424656740    0.0196590010    0.0004021263    
0.0426883350    0.0193146480    0.0004005671    
0.0429109960    0.0193017800    0.0004016848    
0.0431336570    0.0204030660    0.0004071665    
0.0433563180    0.0197646490    0.0004042028    
0.0435789790    0.0194928680    0.0003951077    
0.0438016400    0.0205637030    0.0004080228    
0.0440243010    0.0201644020    0.0003999425    
0.0442469620    0.0201418600    0.0004021140    
0.0444696230    0.0198781060    0.0003980401    
0.0446922840    0.0194829120    0.0003928933    
0.0449149450    0.0198601540    0.0003913758    
0.0451376060    0.0196423430    0.0003940307    
0.0453602670    0.0200685360    0.0003941073    
0.0455829280    0.0191573300    0.0003846109    
0.0458055890    0.0202329080    0.0003975653    
0.0460282500    0.0190311700    0.0003809283    
0.0462509110    0.0199171610    0.0003872707    
0.0464735720    0.0203316660    0.0003915006    
0.0466962330    0.0200224620    0.0003902784    
0.0469188940    0.0200452570    0.0003893935    
0.0471415550    0.0196326750    0.0003873445    
0.0473642160    0.0197628290    0.0003831848    
0.0475868770    0.0197949950    0.0003815914    
0.0478095380    0.0197752570    0.0003797321    
0.0480321990    0.0191808990    0.0003748014    
0.0482548600    0.0193190470    0.0003745099    
0.0484775210    0.0190899770    0.0003759793    
0.0487001820    0.0194985980    0.0003744196    
0.0489228430    0.0197433830    0.0003765600    
0.0491455040    0.0189612450    0.0003664736    
0.0493681650    0.0195335110    0.0003751592    
0.0495908260    0.0196826910    0.0003702528    
0.0498134870    0.0188454370    0.0003657413    
0.0500361480    0.0197343290    0.0003732772    
0.0502588090    0.0191610780    0.0003623045    
0.0504814700    0.0197286120    0.0003724369    
0.0507041310    0.0201821460    0.0003722148    
0.0509267920    0.0191520420    0.0003640915    
0.0511494530    0.0197648410    0.0003674041    
0.0513721140    0.0194472570    0.0003676499    
0.0515947750    0.0193816290    0.0003621628    
0.0518174360    0.0192424400    0.0003586863    
0.0520400970    0.0197875390    0.0003612092    
0.0522627580    0.0199509360    0.0003657799    
0.0524854190    0.0200176880    0.0003693703    
0.0527080800    0.0199966240    0.0003720342    
0.0529307410    0.0201779080    0.0003754720    
0.0531534020    0.0194347560    0.0003671513    
0.0533760630    0.0202126980    0.0003755995    
0.0535987240    0.0188973360    0.0003614771    
0.0538213850    0.0195854070    0.0003722627    
0.0540440460    0.0199821970    0.0003742352    
0.0542667070    0.0186952950    0.0003644785    
0.0544893680    0.0194905780    0.0003723484    
0.0547120290    0.0198488870    0.0003731811    
0.0549346900    0.0195747870    0.0003707905    
0.0551573510    0.0196788680    0.0003761514    
0.0553800120    0.0195365410    0.0003716025    
0.0556026730    0.0195081710    0.0003790317    
0.0558253340    0.0199186130    0.0003862053    
0.0560479950    0.0200908610    0.0003878718    
0.0562706560    0.0199773940    0.0003905143    
0.0564933170    0.0200307170    0.0003944308    
0.0567159780    0.0193713120    0.0003832336    
0.0569386390    0.0192407370    0.0003879307    
0.0571613000    0.0197614790    0.0003846801    
0.0573839610    0.0200827520    0.0003845746    
0.0576066220    0.0189129890    0.0003742396    
0.0578292830    0.0197075720    0.0003807560    
0.0580519440    0.0197420880    0.0003825670    
0.0582746050    0.0192009480    0.0003756237    
0.0584972660    0.0200240840    0.0003821223    
0.0587199270    0.0195370050    0.0003741925    
0.0589425880    0.0194295440    0.0003709793    
0.0591652490    0.0196373830    0.0003751529    
0.0593879100    0.0195515520    0.0003715521    
0.0596105710    0.0190593820    0.0003664588    
0.0598332320    0.0195227740    0.0003740572    
0.0600558930    0.0198972980    0.0003752204    
0.0602785540    0.0190997370    0.0003672347    
0.0605012150    0.0201091700    0.0003760202    
0.0607238760    0.0197825050    0.0003702356    
0.0609465370    0.0192013080    0.0003676280    
0.0611691980    0.0189374180    0.0003656717    
0.0613918590    0.0195554130    0.0003675336    
0.0616145200    0.0196324410    0.0003709520    
0.0618371810    0.0197228730    0.0003681538    
0.0620598420    0.0193228410    0.0003647767    
0.0622825030    0.0191517220    0.0003687116    
0.0625051640    0.0195146170    0.0003669614    
0.0627278250    0.0194412040    0.0003655162    
0.0629504860    0.0197821890    0.0003657103    
0.0631731470    0.0199559730    0.0003718576    
0.0633958080    0.0201232550    0.0003755620    
0.0636184690    0.0192753590    0.0003726839    
0.0638411300    0.0196386930    0.0003747678    
0.0640637910    0.0197708630    0.0003786716    
0.0642864520    0.0192087810    0.0003724423    
0.0645091130    0.0193558520    0.0003771416    
0.0647317740    0.0191555210    0.0003755985    
0.0649544350    0.0199143810    0.0003825447    
0.0651770960    0.0196977080    0.0003783825    
0.0653997570    0.0194169670    0.0003748617    
0.0656224180    0.0197777070    0.0003791505    
0.0658450790    0.0198487480    0.0003743714    
0.0660677400    0.0190851630    0.0003686621    
0.0662904010    0.0195654410    0.0003777281    
0.0665130620    0.0194611290    0.0003750857    
0.0667357230    0.0195826880    0.0003829451    
0.0669583840    0.0196973420    0.0003827795    
0.0671810450    0.0193627280    0.0003774188    
0.0674037060    0.0195298260    0.0003854654    
0.0676263670    0.0192673930    0.0003800637    
0.0678490280    0.0195508410    0.0003805077    
0.0680716890    0.0192660200    0.0003785665    
0.0682943500    0.0195084710    0.0003767687    
0.0685170110    0.0198186850    0.0003758828    
0.0687396720    0.0198482470    0.0003751636    
0.0689623330    0.0200890580    0.0003762365    
0.0691849940    0.0193253290    0.0003715722    
0.0694076550    0.0197971360    0.0003758799    
0.0696303160    0.0201592180    0.0003762987    
0.0698529770    0.0201797270    0.0003757010    
0.0700756380    0.0195422690    0.0003649733    
0.0702982990    0.0194060180    0.0003676596    
0.0705209600    0.0192503950    0.0003635387    
0.0707436210    0.0187406710    0.0003570461    
0.0709662820    0.0194409190    0.0003679907    
0.0711889430    0.0193060670    0.0003622081    
0.0714116040    0.0190301620    0.0003603448    
0.0716342650    0.0199385140    0.0003673469    
0.0718569260    0.0195432550    0.0003622228    
0.0720795870    0.0195663250    0.0003639026    
0.0723022480    0.0193476680    0.0003624150    
0.0725249090    0.0191322340    0.0003560757    
0.0727475700    0.0193863130    0.0003614937    
0.0729702310    0.0191048480    0.0003559978    
0.0731928920    0.0193581660    0.0003597824    
0.0734155530    0.0200202610    0.0003651533    
0.0736382140    0.0197443970    0.0003603016    
0.0738608750    0.0195341240    0.0003606932    
0.0740835360    0.0191721710    0.0003564487    
0.0743061970    0.0194090530    0.0003535939    
0.0745288580    0.0189686600    0.0003531537    
0.0747515190    0.0188984400    0.0003531956    
0.0749741800    0.0195933550    0.0003563017    
0.0751968410    0.0192835880    0.0003562493    
0.0754195020    0.0195136110    0.0003562682    
0.0756421630    0.0191958870    0.0003504673    
0.0758648240    0.0197447790    0.0003562972    
0.0760874850    0.0201369090    0.0003596450    
0.0763101460    0.0199187800    0.0003573486    
0.0765328070    0.0189217950    0.0003518546    
0.0767554680    0.0195630220    0.0003553391    
0.0769781290    0.0189879120    0.0003480653    
0.0772007900    0.0196263210    0.0003510301    
0.0774234510    0.0187707160    0.0003452460    
0.0776461120    0.0193372340    0.0003500848    
0.0778687730    0.0190333890    0.0003461761    
0.0780914340    0.0194021580    0.0003520109    
0.0783140950    0.0194779600    0.0003471020    
0.0785367560    0.0197917890    0.0003555284    
0.0787594170    0.0191313670    0.0003464145    
0.0789820780    0.0195256170    0.0003481725    
0.0792047390    0.0199284630    0.0003528959    
0.0794274000    0.0189822070    0.0003458750    
0.0796500610    0.0194415660    0.0003466186    
0.0798727220    0.0196524250    0.0003481715    
0.0800953830    0.0189604150    0.0003412001    
0.0803180440    0.0189889170    0.0003438352    
0.0805407050    0.0190095440    0.0003437019    
0.0807633660    0.0195883440    0.0003485713    
0.0809860270    0.0198379930    0.0003494902    
0.0812086880    0.0200654080    0.0003484502    
0.0814313490    0.0191130590    0.0003416316    
0.0816540100    0.0192996690    0.0003425137    
0.0818766710    0.0197359700    0.0003471545    
0.0820993320    0.0195667540    0.0003450331    
0.0823219930    0.0196610120    0.0003472896    
0.0825446540    0.0199265110    0.0003470865    
0.0827673150    0.0195344080    0.0003413458    
0.0829899760    0.0191855760    0.0003376821    
0.0832126370    0.0196996470    0.0003437089    
0.0834352980    0.0190803170    0.0003375065    
0.0836579590    0.0193996270    0.0003395614    
0.0838806200    0.0193597490    0.0003402737    
0.0841032810    0.0197344360    0.0003414180    
0.0843259420    0.0191434420    0.0003352313    
0.0845486030    0.0197070320    0.0003401305    
0.0847712640    0.0186382950    0.0003287632    
0.0849939250    0.0193608480    0.0003356588    
0.0852165860    0.0194991220    0.0003372965    
0.0854392470    0.0190227920    0.0003299963    
0.0856619080    0.0194085940    0.0003357808    
0.0858845690    0.0193286980    0.0003320710    
0.0861072300    0.0189833710    0.0003313630    
0.0863298910    0.0190365810    0.0003335647    
0.0865525520    0.0194732330    0.0003344554    
0.0867752130    0.0199063040    0.0003354254    
0.0869978740    0.0197124940    0.0003346392    
0.0872205350    0.0196340340    0.0003335477    
0.0874431960    0.0200420450    0.0003369958    
0.0876658570    0.0197794160    0.0003360660    
0.0878885180    0.0199103260    0.0003377544    
0.0881111790    0.0193849250    0.0003328405    
0.0883338400    0.0189879020    0.0003245914    
0.0885565010    0.0192156600    0.0003309603    
0.0887791620    0.0191592420    0.0003261886    
0.0890018230    0.0197988130    0.0003348045    
0.0892244840    0.0197355260    0.0003348373    
0.0894471450    0.0192255380    0.0003290867    
0.0896698060    0.0196677880    0.0003315947    
0.0898924670    0.0197489780    0.0003338187    
0.0901151280    0.0193964280    0.0003272523    
0.0903377890    0.0194473580    0.0003304241    
0.0905604500    0.0195529680    0.0003297995    
0.0907831110    0.0199484240    0.0003322892    
0.0910057720    0.0193945770    0.0003291474    
0.0912284330    0.0192447890    0.0003231795    
0.0914510940    0.0193157120    0.0003273850    
0.0916737550    0.0195346820    0.0003284184    
0.0918964160    0.0192354080    0.0003272483    
0.0921190770    0.0201083220    0.0003315660    
0.0923417380    0.0194463360    0.0003261963    
0.0925643990    0.0194819540    0.0003256959    
0.0927870600    0.0190382030    0.0003232856    
0.0930097210    0.0197460370    0.0003264365    
0.0932323820    0.0192433560    0.0003246235    
