# Diamond Light Source Ltd.
# Data extracted from: /dls/b21/data/2018/cm19678-3/processed/b21-386631_00225.dat
q(1/A)          Column          Error           
0.0035000000    2.1178640000    0.0247928190    
0.0037226610    1.9433950000    0.0232496120    
0.0039453220    1.6513723000    0.0194968430    
0.0041679830    1.2951958000    0.0141799370    
0.0043906440    0.9770327900    0.0117800320    
0.0046133050    0.7886214700    0.0101599150    
0.0048359660    0.5847476300    0.0082753751    
0.0050586270    0.4577787800    0.0071968545    
0.0052812880    0.4214648800    0.0065290447    
0.0055039490    0.3823307100    0.0059128804    
0.0057266100    0.3244450100    0.0052694369    
0.0059492710    0.2760050800    0.0048601785    
0.0061719320    0.2260124300    0.0042380641    
0.0063945930    0.2040903800    0.0040761051    
0.0066172539    0.1805249100    0.0035997153    
0.0068399149    0.1698073900    0.0034362421    
0.0070625759    0.1497895000    0.0031942489    
0.0072852369    0.1268340500    0.0028953321    
0.0075078979    0.1168863000    0.0027658135    
0.0077305589    0.0986837210    0.0024929354    
0.0079532199    0.0956614540    0.0024204519    
0.0081758809    0.0886528710    0.0023517750    
0.0083985419    0.0873239770    0.0021769852    
0.0086212029    0.0781519870    0.0020594857    
0.0088438639    0.0756732780    0.0020102849    
0.0090665249    0.0649614290    0.0017989404    
0.0092891859    0.0669719420    0.0019064934    
0.0095118469    0.0583728620    0.0017116743    
0.0097345079    0.0551556240    0.0016159460    
0.0099571689    0.0532676760    0.0015553020    
0.0101798300    0.0509971100    0.0015217934    
0.0104024910    0.0479011600    0.0014698864    
0.0106251520    0.0454115130    0.0014360381    
0.0108478130    0.0468576580    0.0014205814    
0.0110704740    0.0431760080    0.0012982697    
0.0112931350    0.0414273450    0.0012754425    
0.0115157960    0.0405963410    0.0012552235    
0.0117384570    0.0394045170    0.0012260152    
0.0119611180    0.0385951350    0.0012168403    
0.0121837790    0.0380874470    0.0011884930    
0.0124064400    0.0365109160    0.0011151296    
0.0126291010    0.0350048860    0.0010782224    
0.0128517620    0.0323762060    0.0010395373    
0.0130744230    0.0331473500    0.0010440434    
0.0132970840    0.0323029530    0.0010256198    
0.0135197450    0.0303719930    0.0009802519    
0.0137424060    0.0321162910    0.0009939742    
0.0139650670    0.0300251110    0.0009396622    
0.0141877280    0.0313690170    0.0009625840    
0.0144103890    0.0301824690    0.0009279230    
0.0146330500    0.0292089180    0.0009070393    
0.0148557110    0.0284617410    0.0008916088    
0.0150783720    0.0259603670    0.0008444908    
0.0153010330    0.0264884820    0.0008410101    
0.0155236940    0.0279158380    0.0008582382    
0.0157463550    0.0277722360    0.0008411968    
0.0159690160    0.0265756910    0.0008197534    
0.0161916770    0.0250519970    0.0007914227    
0.0164143380    0.0254330230    0.0008034598    
0.0166369990    0.0249855780    0.0007718071    
0.0168596600    0.0249688550    0.0007647509    
0.0170823210    0.0242391160    0.0007469690    
0.0173049820    0.0245539840    0.0007531046    
0.0175276430    0.0242725620    0.0007566725    
0.0177503040    0.0226251730    0.0007119201    
0.0179729650    0.0249454700    0.0007401207    
0.0181956260    0.0234066770    0.0007031855    
0.0184182870    0.0241701050    0.0007111931    
0.0186409480    0.0237141140    0.0007089112    
0.0188636090    0.0238771500    0.0007068702    
0.0190862700    0.0237816800    0.0007043526    
0.0193089310    0.0234788440    0.0006987627    
0.0195315920    0.0237719930    0.0006791998    
0.0197542530    0.0231017410    0.0006705318    
0.0199769140    0.0235883070    0.0006775564    
0.0201995750    0.0233644990    0.0006637749    
0.0204222360    0.0217339790    0.0006456903    
0.0206448970    0.0210100980    0.0006303345    
0.0208675580    0.0214053870    0.0006231349    
0.0210902190    0.0228375130    0.0006498533    
0.0213128800    0.0218440920    0.0006269381    
0.0215355410    0.0208524220    0.0006052449    
0.0217582020    0.0218537680    0.0006196068    
0.0219808630    0.0212006960    0.0006094772    
0.0222035240    0.0213515760    0.0006060997    
0.0224261850    0.0213957090    0.0006013258    
0.0226488460    0.0218580090    0.0006032235    
0.0228715070    0.0214845050    0.0005965617    
0.0230941680    0.0212857360    0.0005937958    
0.0233168290    0.0211921390    0.0005939646    
0.0235394900    0.0220620760    0.0005993448    
0.0237621510    0.0207514430    0.0005656213    
0.0239848120    0.0210467320    0.0005702905    
0.0242074730    0.0218212130    0.0005760404    
0.0244301340    0.0213985670    0.0005710855    
0.0246527950    0.0216880160    0.0005802586    
0.0248754560    0.0206499400    0.0005534765    
0.0250981170    0.0209358480    0.0005585376    
0.0253207780    0.0208262920    0.0005404415    
0.0255434390    0.0205139720    0.0005420986    
0.0257661000    0.0213245580    0.0005544929    
0.0259887610    0.0205914630    0.0005390879    
0.0262114220    0.0215104120    0.0005539213    
0.0264340830    0.0216091150    0.0005476369    
0.0266567440    0.0208357090    0.0005344247    
0.0268794050    0.0209107070    0.0005332005    
0.0271020660    0.0204045870    0.0005245759    
0.0273247270    0.0204133990    0.0005215380    
0.0275473880    0.0202260690    0.0005181064    
0.0277700490    0.0208139190    0.0005224748    
0.0279927100    0.0210966670    0.0005214222    
0.0282153710    0.0202482440    0.0005133134    
0.0284380320    0.0205286740    0.0005138596    
0.0286606930    0.0205833500    0.0005101394    
0.0288833540    0.0203570300    0.0005082908    
0.0291060150    0.0214584730    0.0005213653    
0.0293286760    0.0205320620    0.0005028805    
0.0295513370    0.0204970340    0.0004969800    
0.0297739980    0.0203965990    0.0005012191    
0.0299966590    0.0201104030    0.0004891898    
0.0302193200    0.0202353500    0.0004978582    
0.0304419810    0.0200394210    0.0004963538    
0.0306646420    0.0196440100    0.0004775622    
0.0308873030    0.0202573460    0.0004828655    
0.0311099640    0.0198536150    0.0004792708    
0.0313326250    0.0198348200    0.0004737370    
0.0315552860    0.0204451410    0.0004872035    
0.0317779470    0.0206319640    0.0004898507    
0.0320006080    0.0203937590    0.0004759496    
0.0322232690    0.0209904940    0.0004848840    
0.0324459300    0.0204575650    0.0004751154    
0.0326685910    0.0203681760    0.0004732947    
0.0328912520    0.0200826060    0.0004715214    
0.0331139130    0.0203184510    0.0004681124    
0.0333365740    0.0199187260    0.0004649899    
0.0335592350    0.0200592280    0.0004621402    
0.0337818960    0.0197083930    0.0004577163    
0.0340045570    0.0210021850    0.0004717508    
0.0342272170    0.0205109220    0.0004643619    
0.0344498780    0.0204405970    0.0004654012    
0.0346725390    0.0200885930    0.0004528319    
0.0348952000    0.0195115030    0.0004442471    
0.0351178610    0.0210685510    0.0004637456    
0.0353405220    0.0197846280    0.0004473459    
0.0355631830    0.0198366600    0.0004462468    
0.0357858440    0.0205795440    0.0004545261    
0.0360085050    0.0200173230    0.0004496289    
0.0362311660    0.0198696610    0.0004426423    
0.0364538270    0.0195325840    0.0004353493    
0.0366764880    0.0205603650    0.0004463321    
0.0368991490    0.0200946170    0.0004390234    
0.0371218100    0.0203135950    0.0004401462    
0.0373444710    0.0195304680    0.0004362785    
0.0375671320    0.0202704490    0.0004438193    
0.0377897930    0.0193820730    0.0004227502    
0.0380124540    0.0201395830    0.0004336361    
0.0382351150    0.0191965750    0.0004233623    
0.0384577760    0.0193407520    0.0004208491    
0.0386804370    0.0198602210    0.0004297179    
0.0389030980    0.0185349130    0.0004119887    
0.0391257590    0.0205425280    0.0004307831    
0.0393484200    0.0193725990    0.0004169285    
0.0395710810    0.0201176090    0.0004254421    
0.0397937420    0.0197847290    0.0004219077    
0.0400164030    0.0198643970    0.0004244762    
0.0402390640    0.0199128830    0.0004193348    
0.0404617250    0.0203680340    0.0004215982    
0.0406843860    0.0195826490    0.0004093958    
0.0409070470    0.0198442240    0.0004164142    
0.0411297080    0.0198906210    0.0004128676    
0.0413523690    0.0193041700    0.0004077840    
0.0415750300    0.0194320160    0.0004126075    
0.0417976910    0.0193128010    0.0004007012    
0.0420203520    0.0194414540    0.0004035443    
0.0422430130    0.0206692420    0.0004176670    
0.0424656740    0.0190905650    0.0003961755    
0.0426883350    0.0204679240    0.0004122544    
0.0429109960    0.0199526590    0.0004083040    
0.0431336570    0.0194756040    0.0003977099    
0.0433563180    0.0201766100    0.0004082962    
0.0435789790    0.0200359090    0.0004004780    
0.0438016400    0.0189354870    0.0003914430    
0.0440243010    0.0195601410    0.0003938106    
0.0442469620    0.0188885400    0.0003893097    
0.0444696230    0.0194065740    0.0003931970    
0.0446922840    0.0192043720    0.0003899817    
0.0449149450    0.0192879340    0.0003856045    
0.0451376060    0.0199964120    0.0003974715    
0.0453602670    0.0200589740    0.0003939195    
0.0455829280    0.0199971750    0.0003928574    
0.0458055890    0.0187943650    0.0003830801    
0.0460282500    0.0203634050    0.0003939419    
0.0462509110    0.0201108870    0.0003890568    
0.0464735720    0.0196664310    0.0003849509    
0.0466962330    0.0199749030    0.0003897217    
0.0469188940    0.0196803560    0.0003857411    
0.0471415550    0.0200281620    0.0003911333    
0.0473642160    0.0194786480    0.0003803292    
0.0475868770    0.0191017810    0.0003747609    
0.0478095380    0.0194014200    0.0003760361    
0.0480321990    0.0204015630    0.0003864515    
0.0482548600    0.0196436470    0.0003775530    
0.0484775210    0.0190734800    0.0003757273    
0.0487001820    0.0198055050    0.0003772648    
0.0489228430    0.0202436570    0.0003812101    
0.0491455040    0.0195044230    0.0003715971    
0.0493681650    0.0200715450    0.0003802002    
0.0495908260    0.0195271200    0.0003686988    
0.0498134870    0.0195884970    0.0003727931    
0.0500361480    0.0196331820    0.0003722307    
0.0502588090    0.0200557940    0.0003705785    
0.0504814700    0.0199862580    0.0003747716    
0.0507041310    0.0191364580    0.0003623575    
0.0509267920    0.0196133610    0.0003683626    
0.0511494530    0.0196598550    0.0003663398    
0.0513721140    0.0191045300    0.0003643091    
0.0515947750    0.0190612460    0.0003590714    
0.0518174360    0.0200953600    0.0003664621    
0.0520400970    0.0201405890    0.0003643305    
0.0522627580    0.0197805580    0.0003641279    
0.0524854190    0.0195312790    0.0003647681    
0.0527080800    0.0199801780    0.0003717926    
0.0529307410    0.0192115570    0.0003662834    
0.0531534020    0.0196473440    0.0003690659    
0.0533760630    0.0200565670    0.0003740569    
0.0535987240    0.0199111910    0.0003709587    
0.0538213850    0.0196185090    0.0003724884    
0.0540440460    0.0197625110    0.0003720836    
0.0542667070    0.0194747530    0.0003719103    
0.0544893680    0.0192893230    0.0003703327    
0.0547120290    0.0202602030    0.0003769381    
0.0549346900    0.0193969740    0.0003690146    
0.0551573510    0.0204528210    0.0003833856    
0.0553800120    0.0198663450    0.0003746367    
0.0556026730    0.0199037220    0.0003827639    
0.0558253340    0.0197893680    0.0003848586    
0.0560479950    0.0190708620    0.0003778075    
0.0562706560    0.0199068350    0.0003897312    
0.0564933170    0.0192914360    0.0003869914    
0.0567159780    0.0193696600    0.0003831260    
0.0569386390    0.0196224560    0.0003916666    
0.0571613000    0.0195424930    0.0003824516    
0.0573839610    0.0196094460    0.0003799253    
0.0576066220    0.0182600280    0.0003676350    
0.0578292830    0.0196025960    0.0003796501    
0.0580519440    0.0196808110    0.0003818818    
0.0582746050    0.0202494420    0.0003856512    
0.0584972660    0.0192929700    0.0003749921    
0.0587199270    0.0195778400    0.0003744941    
0.0589425880    0.0195689660    0.0003722193    
0.0591652490    0.0192197060    0.0003710534    
0.0593879100    0.0189846930    0.0003660391    
0.0596105710    0.0199024590    0.0003743869    
0.0598332320    0.0193343840    0.0003721593    
0.0600558930    0.0196332090    0.0003726332    
0.0602785540    0.0195352620    0.0003713096    
0.0605012150    0.0200503940    0.0003753808    
0.0607238760    0.0198700400    0.0003709654    
0.0609465370    0.0198464380    0.0003736638    
0.0611691980    0.0191330650    0.0003674682    
0.0613918590    0.0199465460    0.0003711025    
0.0616145200    0.0194339310    0.0003689839    
0.0618371810    0.0202355050    0.0003728187    
0.0620598420    0.0194375280    0.0003657705    
0.0622825030    0.0199798200    0.0003765089    
0.0625051640    0.0201881430    0.0003731514    
0.0627278250    0.0194456790    0.0003654712    
0.0629504860    0.0197457330    0.0003652861    
0.0631731470    0.0197040590    0.0003694150    
0.0633958080    0.0192659650    0.0003673875    
0.0636184690    0.0198279550    0.0003778982    
0.0638411300    0.0196793740    0.0003750664    
0.0640637910    0.0196527040    0.0003774484    
0.0642864520    0.0192790260    0.0003730338    
0.0645091130    0.0194935290    0.0003783903    
0.0647317740    0.0201916800    0.0003855312    
0.0649544350    0.0196845430    0.0003802401    
0.0651770960    0.0195575520    0.0003769441    
0.0653997570    0.0198055620    0.0003785040    
0.0656224180    0.0197973440    0.0003792483    
0.0658450790    0.0198534070    0.0003743262    
0.0660677400    0.0187842340    0.0003656569    
0.0662904010    0.0196800300    0.0003787424    
0.0665130620    0.0192567600    0.0003730221    
0.0667357230    0.0197455130    0.0003844422    
0.0669583840    0.0195243860    0.0003810044    
0.0671810450    0.0191770260    0.0003755152    
0.0674037060    0.0197638620    0.0003876758    
0.0676263670    0.0196628600    0.0003838528    
0.0678490280    0.0189345540    0.0003743733    
0.0680716890    0.0200746990    0.0003863378    
0.0682943500    0.0198991970    0.0003804324    
0.0685170110    0.0192890720    0.0003707381    
0.0687396720    0.0188252330    0.0003652804    
0.0689623330    0.0189948710    0.0003657597    
0.0691849940    0.0198302660    0.0003763055    
0.0694076550    0.0202299670    0.0003798762    
0.0696303160    0.0191596840    0.0003667639    
0.0698529770    0.0192262760    0.0003666307    
0.0700756380    0.0199758050    0.0003689116    
0.0702982990    0.0195220920    0.0003686696    
0.0705209600    0.0194745330    0.0003655618    
0.0707436210    0.0193300690    0.0003625309    
0.0709662820    0.0194038070    0.0003675517    
0.0711889430    0.0196568600    0.0003653969    
0.0714116040    0.0193893770    0.0003636432    
0.0716342650    0.0191104770    0.0003595525    
0.0718569260    0.0191715820    0.0003586764    
0.0720795870    0.0199155360    0.0003670482    
0.0723022480    0.0193113080    0.0003619881    
0.0725249090    0.0191827330    0.0003564603    
0.0727475700    0.0198487020    0.0003656922    
0.0729702310    0.0198052040    0.0003623779    
0.0731928920    0.0192286380    0.0003584913    
0.0734155530    0.0190987230    0.0003565653    
0.0736382140    0.0191041010    0.0003543269    
0.0738608750    0.0193717070    0.0003591050    
0.0740835360    0.0200241470    0.0003641958    
0.0743061970    0.0191808890    0.0003514257    
0.0745288580    0.0197810960    0.0003605513    
0.0747515190    0.0199582750    0.0003628777    
0.0749741800    0.0195451620    0.0003557785    
0.0751968410    0.0196690980    0.0003597070    
0.0754195020    0.0188411670    0.0003499924    
0.0756421630    0.0198710680    0.0003564926    
0.0758648240    0.0200888220    0.0003593023    
0.0760874850    0.0195559170    0.0003543343    
0.0763101460    0.0192620930    0.0003513249    
0.0765328070    0.0195929070    0.0003579546    
0.0767554680    0.0196440180    0.0003559891    
0.0769781290    0.0191701830    0.0003496486    
0.0772007900    0.0192090670    0.0003471959    
0.0774234510    0.0202088920    0.0003581426    
0.0776461120    0.0198728280    0.0003548154    
0.0778687730    0.0197983830    0.0003529802    
0.0780914340    0.0194184470    0.0003520748    
0.0783140950    0.0196417890    0.0003484757    
0.0785367560    0.0194823360    0.0003526540    
0.0787594170    0.0191535990    0.0003465332    
0.0789820780    0.0194604640    0.0003475083    
0.0792047390    0.0196066600    0.0003499516    
0.0794274000    0.0193385150    0.0003490229    
0.0796500610    0.0192346440    0.0003446870    
0.0798727220    0.0197170460    0.0003486604    
0.0800953830    0.0194853100    0.0003458083    
0.0803180440    0.0197328410    0.0003504221    
0.0805407050    0.0196526770    0.0003493844    
0.0807633660    0.0194364150    0.0003471342    
0.0809860270    0.0196746880    0.0003479658    
0.0812086880    0.0198562570    0.0003465468    
0.0814313490    0.0198180620    0.0003477924    
0.0816540100    0.0197522290    0.0003464237    
0.0818766710    0.0194763220    0.0003447812    
0.0820993320    0.0190891710    0.0003407151    
0.0823219930    0.0189587780    0.0003409499    
0.0825446540    0.0190770700    0.0003395270    
0.0827673150    0.0199305070    0.0003447070    
0.0829899760    0.0190992060    0.0003368409    
0.0832126370    0.0190309220    0.0003377442    
0.0834352980    0.0195963410    0.0003419585    
0.0836579590    0.0198299950    0.0003432254    
0.0838806200    0.0193624800    0.0003402166    
0.0841032810    0.0195302030    0.0003395659    
0.0843259420    0.0198560380    0.0003413323    
0.0845486030    0.0195040100    0.0003382933    
0.0847712640    0.0196843480    0.0003377825    
0.0849939250    0.0194970360    0.0003367570    
0.0852165860    0.0189766340    0.0003326675    
0.0854392470    0.0192826550    0.0003321635    
0.0856619080    0.0199045070    0.0003399625    
0.0858845690    0.0191883350    0.0003307842    
0.0861072300    0.0196044920    0.0003366601    
0.0863298910    0.0196876610    0.0003391401    
0.0865525520    0.0199519890    0.0003384611    
0.0867752130    0.0194053300    0.0003310989    
0.0869978740    0.0186412920    0.0003253423    
0.0872205350    0.0197039700    0.0003340616    
0.0874431960    0.0197096650    0.0003341101    
0.0876658570    0.0195474080    0.0003340096    
0.0878885180    0.0192136160    0.0003317133    
0.0881111790    0.0194899320    0.0003336613    
0.0883338400    0.0192617080    0.0003268454    
0.0885565010    0.0192976650    0.0003315868    
0.0887791620    0.0194665060    0.0003287155    
0.0890018230    0.0194611600    0.0003318583    
0.0892244840    0.0198169740    0.0003354476    
0.0894471450    0.0193177240    0.0003297962    
0.0896698060    0.0189096320    0.0003250633    
0.0898924670    0.0194068160    0.0003308354    
0.0901151280    0.0197127890    0.0003298317    
0.0903377890    0.0194661490    0.0003305049    
0.0905604500    0.0193601700    0.0003280913    
0.0907831110    0.0197397510    0.0003304679    
0.0910057720    0.0195751700    0.0003305975    
0.0912284330    0.0192084970    0.0003227977    
0.0914510940    0.0192954170    0.0003271349    
0.0916737550    0.0200938070    0.0003330059    
0.0918964160    0.0197215070    0.0003312785    
0.0921190770    0.0198145820    0.0003290569    
0.0923417380    0.0196120810    0.0003275055    
0.0925643990    0.0192713050    0.0003238532    
0.0927870600    0.0194571230    0.0003267452    
0.0930097210    0.0195154740    0.0003244478    
0.0932323820    0.0198745970    0.0003298262    
