# Diamond Light Source Ltd.
# Data extracted from: /dls/b21/data/2018/cm19678-3/processed/b21-386631_00230.dat
q(1/A)          Column          Error           
0.0035000000    2.1292250000    0.0248628620    
0.0037226610    1.9314429000    0.0231813960    
0.0039453220    1.6207705000    0.0193181720    
0.0041679830    1.2879653000    0.0141423680    
0.0043906440    0.9841378700    0.0118245150    
0.0046133050    0.7994573000    0.0102309720    
0.0048359660    0.5912445300    0.0083224364    
0.0050586270    0.4637977800    0.0072450717    
0.0052812880    0.4289737100    0.0065879114    
0.0055039490    0.3882051700    0.0059590033    
0.0057266100    0.3146949300    0.0051904140    
0.0059492710    0.2743736000    0.0048465010    
0.0061719320    0.2352202000    0.0043241638    
0.0063945930    0.2025214000    0.0040610003    
0.0066172539    0.1817982900    0.0036129166    
0.0068399149    0.1715959400    0.0034547962    
0.0070625759    0.1486068200    0.0031820786    
0.0072852369    0.1241604900    0.0028650725    
0.0075078979    0.1186880200    0.0027874558    
0.0077305589    0.0976416590    0.0024801006    
0.0079532199    0.0993650660    0.0024672224    
0.0081758809    0.0899893090    0.0023697814    
0.0083985419    0.0856665720    0.0021565418    
0.0086212029    0.0767633410    0.0020414049    
0.0088438639    0.0711013230    0.0019488959    
0.0090665249    0.0634854690    0.0017786464    
0.0092891859    0.0649285710    0.0018774581    
0.0095118469    0.0613018900    0.0017543492    
0.0097345079    0.0569239820    0.0016418861    
0.0099571689    0.0526472990    0.0015464447    
0.0101798300    0.0486499290    0.0014865772    
0.0104024910    0.0459750940    0.0014402422    
0.0106251520    0.0467421060    0.0014571377    
0.0108478130    0.0493700120    0.0014583808    
0.0110704740    0.0445163080    0.0013184593    
0.0112931350    0.0412430590    0.0012727884    
0.0115157960    0.0405693850    0.0012549900    
0.0117384570    0.0408659960    0.0012487266    
0.0119611180    0.0370329940    0.0011921343    
0.0121837790    0.0363921190    0.0011619110    
0.0124064400    0.0357039410    0.0011028984    
0.0126291010    0.0342842520    0.0010672222    
0.0128517620    0.0344556810    0.0010725585    
0.0130744230    0.0331570390    0.0010443486    
0.0132970840    0.0316609360    0.0010155250    
0.0135197450    0.0310454530    0.0009912050    
0.0137424060    0.0304947770    0.0009686985    
0.0139650670    0.0304162970    0.0009459018    
0.0141877280    0.0306395290    0.0009514648    
0.0144103890    0.0302483640    0.0009290711    
0.0146330500    0.0293583310    0.0009094891    
0.0148557110    0.0288612090    0.0008979752    
0.0150783720    0.0276991520    0.0008724413    
0.0153010330    0.0267099040    0.0008446413    
0.0155236940    0.0256805770    0.0008232815    
0.0157463550    0.0279332740    0.0008437554    
0.0159690160    0.0259764150    0.0008105765    
0.0161916770    0.0260096730    0.0008065257    
0.0164143380    0.0256435750    0.0008068966    
0.0166369990    0.0261375930    0.0007895149    
0.0168596600    0.0235000770    0.0007420255    
0.0170823210    0.0262494490    0.0007774416    
0.0173049820    0.0277497220    0.0008007319    
0.0175276430    0.0248223510    0.0007653059    
0.0177503040    0.0239538420    0.0007326327    
0.0179729650    0.0225145960    0.0007032378    
0.0181956260    0.0250406320    0.0007274214    
0.0184182870    0.0241353040    0.0007107848    
0.0186409480    0.0238270380    0.0007107010    
0.0188636090    0.0235282740    0.0007017896    
0.0190862700    0.0233504200    0.0006980389    
0.0193089310    0.0233608940    0.0006971072    
0.0195315920    0.0219154500    0.0006522340    
0.0197542530    0.0227970060    0.0006661919    
0.0199769140    0.0231085020    0.0006707280    
0.0201995750    0.0220509140    0.0006449400    
0.0204222360    0.0212798130    0.0006390017    
0.0206448970    0.0222836460    0.0006492525    
0.0208675580    0.0226999720    0.0006417955    
0.0210902190    0.0214013980    0.0006291808    
0.0213128800    0.0230203950    0.0006436911    
0.0215355410    0.0227036260    0.0006316318    
0.0217582020    0.0222994680    0.0006259847    
0.0219808630    0.0219430000    0.0006201458    
0.0222035240    0.0219429630    0.0006145259    
0.0224261850    0.0218584030    0.0006078818    
0.0226488460    0.0207153930    0.0005873311    
0.0228715070    0.0216399110    0.0005988029    
0.0230941680    0.0217227680    0.0005999483    
0.0233168290    0.0212149860    0.0005943716    
0.0235394900    0.0208470200    0.0005826919    
0.0237621510    0.0214514810    0.0005751667    
0.0239848120    0.0220421540    0.0005837061    
0.0242074730    0.0214777410    0.0005715724    
0.0244301340    0.0203223840    0.0005566210    
0.0246527950    0.0207004840    0.0005669770    
0.0248754560    0.0204333900    0.0005506472    
0.0250981170    0.0211953580    0.0005620707    
0.0253207780    0.0208323800    0.0005405995    
0.0255434390    0.0211074810    0.0005499650    
0.0257661000    0.0213596360    0.0005550298    
0.0259887610    0.0201316030    0.0005331122    
0.0262114220    0.0203752310    0.0005391858    
0.0264340830    0.0208379980    0.0005378556    
0.0266567440    0.0203893130    0.0005287460    
0.0268794050    0.0207128190    0.0005307491    
0.0271020660    0.0198844360    0.0005179222    
0.0273247270    0.0204993370    0.0005227110    
0.0275473880    0.0212542000    0.0005311890    
0.0277700490    0.0205051440    0.0005186607    
0.0279927100    0.0207547720    0.0005172554    
0.0282153710    0.0205014830    0.0005165888    
0.0284380320    0.0197626940    0.0005042554    
0.0286606930    0.0200076030    0.0005030276    
0.0288833540    0.0205534080    0.0005108112    
0.0291060150    0.0208058510    0.0005134509    
0.0293286760    0.0207721510    0.0005058860    
0.0295513370    0.0196954400    0.0004872363    
0.0297739980    0.0205504060    0.0005031788    
0.0299966590    0.0201162820    0.0004893328    
0.0302193200    0.0205720840    0.0005020569    
0.0304419810    0.0199345990    0.0004951263    
0.0306646420    0.0205788180    0.0004888646    
0.0308873030    0.0200445160    0.0004803925    
0.0311099640    0.0201255990    0.0004826130    
0.0313326250    0.0207573830    0.0004846999    
0.0315552860    0.0201840100    0.0004841529    
0.0317779470    0.0200330480    0.0004827591    
0.0320006080    0.0202219450    0.0004740097    
0.0322232690    0.0202011330    0.0004757490    
0.0324459300    0.0211809830    0.0004835135    
0.0326685910    0.0206051540    0.0004761096    
0.0328912520    0.0194572500    0.0004641898    
0.0331139130    0.0199144500    0.0004635029    
0.0333365740    0.0196965290    0.0004624567    
0.0335592350    0.0195219280    0.0004559755    
0.0337818960    0.0196184540    0.0004567374    
0.0340045570    0.0200437640    0.0004609285    
0.0342272170    0.0194653070    0.0004524369    
0.0344498780    0.0202663800    0.0004634813    
0.0346725390    0.0195533030    0.0004468232    
0.0348952000    0.0196386200    0.0004457570    
0.0351178610    0.0207683900    0.0004604976    
0.0353405220    0.0200939460    0.0004508952    
0.0355631830    0.0196516660    0.0004442260    
0.0357858440    0.0201035560    0.0004493046    
0.0360085050    0.0197099960    0.0004462291    
0.0362311660    0.0209900740    0.0004550176    
0.0364538270    0.0199653600    0.0004402101    
0.0366764880    0.0198007080    0.0004380730    
0.0368991490    0.0203019750    0.0004413473    
0.0371218100    0.0201764370    0.0004387219    
0.0373444710    0.0203160640    0.0004450315    
0.0375671320    0.0200430880    0.0004413878    
0.0377897930    0.0196091020    0.0004252811    
0.0380124540    0.0204069790    0.0004365691    
0.0382351150    0.0198746360    0.0004308374    
0.0384577760    0.0197402950    0.0004252360    
0.0386804370    0.0192242860    0.0004228438    
0.0389030980    0.0194197140    0.0004217692    
0.0391257590    0.0199611740    0.0004247058    
0.0393484200    0.0196744550    0.0004202255    
0.0395710810    0.0200244920    0.0004245184    
0.0397937420    0.0201325040    0.0004256619    
0.0400164030    0.0199609350    0.0004255686    
0.0402390640    0.0198127060    0.0004183398    
0.0404617250    0.0193875870    0.0004113860    
0.0406843860    0.0200849310    0.0004146736    
0.0409070470    0.0197888400    0.0004158935    
0.0411297080    0.0200078760    0.0004141432    
0.0413523690    0.0194993780    0.0004099005    
0.0415750300    0.0197619500    0.0004161563    
0.0417976910    0.0194016080    0.0004016801    
0.0420203520    0.0197571520    0.0004068670    
0.0422430130    0.0201687440    0.0004126395    
0.0424656740    0.0200090100    0.0004056529    
0.0426883350    0.0199340270    0.0004069016    
0.0429109960    0.0200587850    0.0004094482    
0.0431336570    0.0200174790    0.0004032636    
0.0433563180    0.0200337430    0.0004069076    
0.0435789790    0.0198495950    0.0003986698    
0.0438016400    0.0202280410    0.0004046418    
0.0440243010    0.0191613760    0.0003898327    
0.0442469620    0.0199856470    0.0004005148    
0.0444696230    0.0196433450    0.0003956462    
0.0446922840    0.0199387770    0.0003974266    
0.0449149450    0.0203345920    0.0003959865    
0.0451376060    0.0198600050    0.0003961714    
0.0453602670    0.0202428130    0.0003957783    
0.0455829280    0.0200725020    0.0003936542    
0.0458055890    0.0201198330    0.0003964162    
0.0460282500    0.0198967150    0.0003894584    
0.0462509110    0.0199210190    0.0003872725    
0.0464735720    0.0204485140    0.0003925879    
0.0466962330    0.0202925840    0.0003928660    
0.0469188940    0.0197012340    0.0003860020    
0.0471415550    0.0198735610    0.0003896777    
0.0473642160    0.0200711740    0.0003861269    
0.0475868770    0.0194750970    0.0003784606    
0.0478095380    0.0196841270    0.0003788212    
0.0480321990    0.0202830460    0.0003853836    
0.0482548600    0.0198453750    0.0003795422    
0.0484775210    0.0192715490    0.0003777283    
0.0487001820    0.0198831790    0.0003780591    
0.0489228430    0.0198330930    0.0003773798    
0.0491455040    0.0188515240    0.0003653780    
0.0493681650    0.0198757010    0.0003783961    
0.0495908260    0.0202500760    0.0003755169    
0.0498134870    0.0194451900    0.0003714813    
0.0500361480    0.0192930170    0.0003690458    
0.0502588090    0.0199178210    0.0003693555    
0.0504814700    0.0201116020    0.0003759999    
0.0507041310    0.0195881730    0.0003666629    
0.0509267920    0.0202142410    0.0003740173    
0.0511494530    0.0192627290    0.0003626739    
0.0513721140    0.0200829930    0.0003735765    
0.0515947750    0.0196757650    0.0003648669    
0.0518174360    0.0191185670    0.0003574969    
0.0520400970    0.0188807290    0.0003528030    
0.0522627580    0.0195650760    0.0003621920    
0.0524854190    0.0193121120    0.0003627687    
0.0527080800    0.0197230440    0.0003694465    
0.0529307410    0.0202859580    0.0003764413    
0.0531534020    0.0198264560    0.0003707985    
0.0533760630    0.0198181920    0.0003718817    
0.0535987240    0.0202834120    0.0003744648    
0.0538213850    0.0189946260    0.0003665714    
0.0540440460    0.0197823030    0.0003723243    
0.0542667070    0.0194378190    0.0003716118    
0.0544893680    0.0194798740    0.0003722118    
0.0547120290    0.0193752290    0.0003686676    
0.0549346900    0.0192973090    0.0003681191    
0.0551573510    0.0198477680    0.0003777274    
0.0553800120    0.0189251860    0.0003657084    
0.0556026730    0.0195929310    0.0003798193    
0.0558253340    0.0192635880    0.0003797671    
0.0560479950    0.0194358040    0.0003814610    
0.0562706560    0.0196836850    0.0003875973    
0.0564933170    0.0193126060    0.0003872603    
0.0567159780    0.0197088570    0.0003865225    
0.0569386390    0.0194796110    0.0003902954    
0.0571613000    0.0196979420    0.0003840258    
0.0573839610    0.0193132930    0.0003771006    
0.0576066220    0.0192945050    0.0003779605    
0.0578292830    0.0199319440    0.0003828820    
0.0580519440    0.0205241330    0.0003900348    
0.0582746050    0.0197116910    0.0003805516    
0.0584972660    0.0192767370    0.0003748891    
0.0587199270    0.0189959850    0.0003689410    
0.0589425880    0.0193126510    0.0003698276    
0.0591652490    0.0193256430    0.0003721290    
0.0593879100    0.0193361620    0.0003694658    
0.0596105710    0.0192742540    0.0003684848    
0.0598332320    0.0195478380    0.0003742627    
0.0600558930    0.0194267110    0.0003707226    
0.0602785540    0.0194209590    0.0003702758    
0.0605012150    0.0197961490    0.0003730477    
0.0607238760    0.0200282590    0.0003724939    
0.0609465370    0.0192329560    0.0003678970    
0.0611691980    0.0200775880    0.0003764842    
0.0613918590    0.0193169940    0.0003652526    
0.0616145200    0.0190752070    0.0003656160    
0.0618371810    0.0195612100    0.0003666080    
0.0620598420    0.0190714200    0.0003623624    
0.0622825030    0.0195101490    0.0003721116    
0.0625051640    0.0190004780    0.0003620617    
0.0627278250    0.0198842260    0.0003696234    
0.0629504860    0.0196703900    0.0003646418    
0.0631731470    0.0195366220    0.0003678959    
0.0633958080    0.0193276590    0.0003680291    
0.0636184690    0.0198409560    0.0003780773    
0.0638411300    0.0198424360    0.0003766721    
0.0640637910    0.0190710890    0.0003718755    
0.0642864520    0.0195084820    0.0003753019    
0.0645091130    0.0199547480    0.0003828965    
0.0647317740    0.0197925990    0.0003817580    
0.0649544350    0.0195213130    0.0003787157    
0.0651770960    0.0194833290    0.0003762831    
0.0653997570    0.0206796360    0.0003868226    
0.0656224180    0.0202028270    0.0003831685    
0.0658450790    0.0195838780    0.0003718309    
0.0660677400    0.0190104460    0.0003679058    
0.0662904010    0.0191170820    0.0003733406    
0.0665130620    0.0194503150    0.0003749469    
0.0667357230    0.0194218470    0.0003813340    
0.0669583840    0.0197532090    0.0003832866    
0.0671810450    0.0191826320    0.0003756249    
0.0674037060    0.0197544260    0.0003876399    
0.0676263670    0.0194737210    0.0003820581    
0.0678490280    0.0196879190    0.0003818042    
0.0680716890    0.0198351370    0.0003840818    
0.0682943500    0.0193739220    0.0003754326    
0.0685170110    0.0195299240    0.0003731000    
0.0687396720    0.0195893540    0.0003726745    
0.0689623330    0.0197401500    0.0003729206    
0.0691849940    0.0193431960    0.0003717097    
0.0694076550    0.0194795320    0.0003728183    
0.0696303160    0.0201484800    0.0003761638    
0.0698529770    0.0193367980    0.0003677367    
0.0700756380    0.0191638410    0.0003613890    
0.0702982990    0.0196183330    0.0003696313    
0.0705209600    0.0197959720    0.0003686203    
0.0707436210    0.0186828080    0.0003564616    
0.0709662820    0.0191518000    0.0003652105    
0.0711889430    0.0196014570    0.0003649349    
0.0714116040    0.0190061880    0.0003600845    
0.0716342650    0.0201919760    0.0003696404    
0.0718569260    0.0194389670    0.0003612218    
0.0720795870    0.0196168530    0.0003643386    
0.0723022480    0.0202536150    0.0003707688    
0.0725249090    0.0196190180    0.0003605438    
0.0727475700    0.0196657980    0.0003640566    
0.0729702310    0.0191411210    0.0003563028    
0.0731928920    0.0198359550    0.0003641618    
0.0734155530    0.0190177400    0.0003558605    
0.0736382140    0.0198722320    0.0003614328    
0.0738608750    0.0197769030    0.0003628942    
0.0740835360    0.0196920810    0.0003612162    
0.0743061970    0.0199915680    0.0003588277    
0.0745288580    0.0201418590    0.0003638775    
0.0747515190    0.0198123160    0.0003616012    
0.0749741800    0.0194860940    0.0003552924    
0.0751968410    0.0182337800    0.0003463845    
0.0754195020    0.0196791020    0.0003577427    
0.0756421630    0.0196529660    0.0003545827    
0.0758648240    0.0201718330    0.0003600965    
0.0760874850    0.0198185160    0.0003567575    
0.0763101460    0.0194536060    0.0003531187    
0.0765328070    0.0198275900    0.0003601446    
0.0767554680    0.0194045420    0.0003538642    
0.0769781290    0.0190163080    0.0003482934    
0.0772007900    0.0198486850    0.0003529806    
0.0774234510    0.0200814730    0.0003570639    
0.0776461120    0.0191182180    0.0003480645    
0.0778687730    0.0192439120    0.0003480532    
0.0780914340    0.0201201230    0.0003584317    
0.0783140950    0.0190785750    0.0003434934    
0.0785367560    0.0197498290    0.0003551186    
0.0787594170    0.0193849690    0.0003486708    
0.0789820780    0.0196647860    0.0003493789    
0.0792047390    0.0191937770    0.0003462979    
0.0794274000    0.0186573560    0.0003428711    
0.0796500610    0.0194318040    0.0003464996    
0.0798727220    0.0197043080    0.0003485987    
0.0800953830    0.0193927830    0.0003450367    
0.0803180440    0.0199253510    0.0003521787    
0.0805407050    0.0195652240    0.0003486571    
0.0807633660    0.0192374430    0.0003454033    
0.0809860270    0.0196742830    0.0003480131    
0.0812086880    0.0194809130    0.0003433060    
0.0814313490    0.0193720640    0.0003439069    
0.0816540100    0.0192657240    0.0003421809    
0.0818766710    0.0192988560    0.0003432569    
0.0820993320    0.0199585470    0.0003484382    
0.0823219930    0.0194181870    0.0003451066    
0.0825446540    0.0196024780    0.0003442211    
0.0827673150    0.0199900060    0.0003452716    
0.0829899760    0.0201090530    0.0003456817    
0.0832126370    0.0195461230    0.0003423354    
0.0834352980    0.0193274970    0.0003396544    
0.0836579590    0.0195980940    0.0003412625    
0.0838806200    0.0189376040    0.0003365123    
0.0841032810    0.0189571580    0.0003345960    
0.0843259420    0.0201670480    0.0003440454    
0.0845486030    0.0194627560    0.0003379847    
0.0847712640    0.0191218950    0.0003329704    
0.0849939250    0.0192001870    0.0003342324    
0.0852165860    0.0193671920    0.0003361225    
0.0854392470    0.0196946620    0.0003357424    
0.0856619080    0.0195792610    0.0003372228    
0.0858845690    0.0197757510    0.0003358583    
0.0861072300    0.0202637040    0.0003423235    
0.0863298910    0.0191090410    0.0003341681    
0.0865525520    0.0193547790    0.0003334059    
0.0867752130    0.0193092850    0.0003303267    
0.0869978740    0.0201121260    0.0003379831    
0.0872205350    0.0195511000    0.0003328118    
0.0874431960    0.0196247800    0.0003334386    
0.0876658570    0.0195759580    0.0003343022    
0.0878885180    0.0196431440    0.0003354496    
0.0881111790    0.0195413400    0.0003341499    
0.0883338400    0.0188845430    0.0003236769    
0.0885565010    0.0195768690    0.0003340257    
0.0887791620    0.0196165580    0.0003300282    
0.0890018230    0.0200215890    0.0003366519    
0.0892244840    0.0193399780    0.0003314343    
0.0894471450    0.0192839470    0.0003295559    
0.0896698060    0.0191499220    0.0003271699    
0.0898924670    0.0193729980    0.0003305953    
0.0901151280    0.0196854300    0.0003296509    
0.0903377890    0.0199096610    0.0003342976    
0.0905604500    0.0193825140    0.0003283286    
0.0907831110    0.0191921150    0.0003258992    
0.0910057720    0.0195808920    0.0003306942    
0.0912284330    0.0194040280    0.0003244839    
0.0914510940    0.0193842750    0.0003279352    
0.0916737550    0.0196194080    0.0003290995    
0.0918964160    0.0199276610    0.0003330541    
0.0921190770    0.0200444880    0.0003310088    
0.0923417380    0.0189175680    0.0003217013    
0.0925643990    0.0195600220    0.0003263178    
0.0927870600    0.0197537100    0.0003292742    
0.0930097210    0.0199744070    0.0003282885    
0.0932323820    0.0193876400    0.0003258082    
