# Diamond Light Source Ltd.
# Data extracted from: /dls/b21/data/2018/cm19678-3/processed/b21-386631_00240.dat
q(1/A)          Column          Error           
0.0035000000    2.0946227000    0.0246682400    
0.0037226610    1.8675842000    0.0228025630    
0.0039453220    1.6451240000    0.0194692640    
0.0041679830    1.2872713000    0.0141432770    
0.0043906440    0.9727107100    0.0117595900    
0.0046133050    0.7853171600    0.0101434740    
0.0048359660    0.5903498100    0.0083189127    
0.0050586270    0.4569725600    0.0071939655    
0.0052812880    0.4328035500    0.0066194629    
0.0055039490    0.3746429400    0.0058559409    
0.0057266100    0.3218439200    0.0052507908    
0.0059492710    0.2694168900    0.0048041271    
0.0061719320    0.2216953000    0.0041994074    
0.0063945930    0.1985008100    0.0040218294    
0.0066172539    0.1749503900    0.0035454016    
0.0068399149    0.1763739100    0.0035037332    
0.0070625759    0.1452969100    0.0031474922    
0.0072852369    0.1239126000    0.0028631664    
0.0075078979    0.1118233500    0.0027065479    
0.0077305589    0.1016151300    0.0025309050    
0.0079532199    0.1000444300    0.0024764686    
0.0081758809    0.0915481350    0.0023910162    
0.0083985419    0.0831705270    0.0021256015    
0.0086212029    0.0771948640    0.0020478181    
0.0088438639    0.0716298920    0.0019567795    
0.0090665249    0.0664200200    0.0018198973    
0.0092891859    0.0620384070    0.0018358094    
0.0095118469    0.0616944990    0.0017605455    
0.0097345079    0.0574832720    0.0016504831    
0.0099571689    0.0560461280    0.0015961146    
0.0101798300    0.0495006040    0.0015000183    
0.0104024910    0.0465927140    0.0014503678    
0.0106251520    0.0488642500    0.0014903456    
0.0108478130    0.0466008870    0.0014173638    
0.0110704740    0.0432174650    0.0012995163    
0.0112931350    0.0428428090    0.0012976713    
0.0115157960    0.0411791970    0.0012648090    
0.0117384570    0.0393659880    0.0012260038    
0.0119611180    0.0361744790    0.0011786282    
0.0121837790    0.0370103650    0.0011721300    
0.0124064400    0.0365118810    0.0011156796    
0.0126291010    0.0357033640    0.0010894492    
0.0128517620    0.0343784580    0.0010717135    
0.0130744230    0.0336399990    0.0010522781    
0.0132970840    0.0322687800    0.0010255692    
0.0135197450    0.0314461960    0.0009979148    
0.0137424060    0.0305459300    0.0009698343    
0.0139650670    0.0309075780    0.0009538286    
0.0141877280    0.0313991370    0.0009635083    
0.0144103890    0.0312394380    0.0009444839    
0.0146330500    0.0273761740    0.0008785432    
0.0148557110    0.0282654060    0.0008889547    
0.0150783720    0.0278276370    0.0008747543    
0.0153010330    0.0276364810    0.0008594537    
0.0155236940    0.0262787610    0.0008330927    
0.0157463550    0.0275693710    0.0008385211    
0.0159690160    0.0264999660    0.0008189775    
0.0161916770    0.0267277680    0.0008178564    
0.0164143380    0.0257115100    0.0008082344    
0.0166369990    0.0250811610    0.0007736531    
0.0168596600    0.0265167820    0.0007884779    
0.0170823210    0.0259904810    0.0007738553    
0.0173049820    0.0237914480    0.0007416742    
0.0175276430    0.0248625350    0.0007661807    
0.0177503040    0.0231850420    0.0007210205    
0.0179729650    0.0246617000    0.0007362522    
0.0181956260    0.0245710060    0.0007208084    
0.0184182870    0.0241723660    0.0007115677    
0.0186409480    0.0234186950    0.0007048199    
0.0188636090    0.0228736920    0.0006921894    
0.0190862700    0.0234495350    0.0006997523    
0.0193089310    0.0249168840    0.0007201893    
0.0195315920    0.0235423020    0.0006762350    
0.0197542530    0.0220719500    0.0006557310    
0.0199769140    0.0230849690    0.0006706102    
0.0201995750    0.0233680570    0.0006641440    
0.0204222360    0.0225996960    0.0006587405    
0.0206448970    0.0214656420    0.0006374371    
0.0208675580    0.0211898910    0.0006202879    
0.0210902190    0.0228224220    0.0006499504    
0.0213128800    0.0220992060    0.0006308911    
0.0215355410    0.0225253590    0.0006293571    
0.0217582020    0.0227539620    0.0006325428    
0.0219808630    0.0211509000    0.0006090532    
0.0222035240    0.0214409640    0.0006076586    
0.0224261850    0.0221605770    0.0006122734    
0.0226488460    0.0217790160    0.0006024215    
0.0228715070    0.0227486840    0.0006141567    
0.0230941680    0.0218533370    0.0006019495    
0.0233168290    0.0211791610    0.0005940677    
0.0235394900    0.0212357840    0.0005882963    
0.0237621510    0.0209565510    0.0005686826    
0.0239848120    0.0208967970    0.0005685282    
0.0242074730    0.0215377450    0.0005725613    
0.0244301340    0.0207936260    0.0005632255    
0.0246527950    0.0218642370    0.0005828909    
0.0248754560    0.0206846160    0.0005542069    
0.0250981170    0.0219851040    0.0005726375    
0.0253207780    0.0211972370    0.0005454950    
0.0255434390    0.0212936440    0.0005525693    
0.0257661000    0.0209265030    0.0005495569    
0.0259887610    0.0205971070    0.0005394205    
0.0262114220    0.0211741190    0.0005498380    
0.0264340830    0.0200322820    0.0005275308    
0.0266567440    0.0208419940    0.0005347618    
0.0268794050    0.0214207120    0.0005399226    
0.0271020660    0.0211126340    0.0005338559    
0.0273247270    0.0210331850    0.0005296503    
0.0275473880    0.0204181870    0.0005208111    
0.0277700490    0.0206763700    0.0005209955    
0.0279927100    0.0204332360    0.0005134044    
0.0282153710    0.0208147570    0.0005206945    
0.0284380320    0.0200462630    0.0005080297    
0.0286606930    0.0208309120    0.0005134443    
0.0288833540    0.0210752750    0.0005174281    
0.0291060150    0.0200336140    0.0005040002    
0.0293286760    0.0202312330    0.0004994224    
0.0295513370    0.0211318550    0.0005048595    
0.0297739980    0.0199476960    0.0004959107    
0.0299966590    0.0204989560    0.0004941301    
0.0302193200    0.0199114780    0.0004940950    
0.0304419810    0.0195418130    0.0004903878    
0.0306646420    0.0200928520    0.0004832191    
0.0308873030    0.0203574430    0.0004842894    
0.0311099640    0.0202780060    0.0004845986    
0.0313326250    0.0198991680    0.0004747326    
0.0315552860    0.0206042250    0.0004893301    
0.0317779470    0.0199183680    0.0004815360    
0.0320006080    0.0212472190    0.0004860397    
0.0322232690    0.0200800810    0.0004744797    
0.0324459300    0.0199249640    0.0004691150    
0.0326685910    0.0202336140    0.0004719551    
0.0328912520    0.0197805240    0.0004681863    
0.0331139130    0.0203055750    0.0004681887    
0.0333365740    0.0217958200    0.0004866399    
0.0335592350    0.0201637470    0.0004635651    
0.0337818960    0.0203870210    0.0004657534    
0.0340045570    0.0203329200    0.0004643962    
0.0342272170    0.0201728300    0.0004607398    
0.0344498780    0.0200783840    0.0004614806    
0.0346725390    0.0190759220    0.0004414824    
0.0348952000    0.0208666770    0.0004596363    
0.0351178610    0.0196992090    0.0004486372    
0.0353405220    0.0197125040    0.0004467441    
0.0355631830    0.0206193880    0.0004551841    
0.0357858440    0.0200868340    0.0004492676    
0.0360085050    0.0209868130    0.0004606094    
0.0362311660    0.0204118680    0.0004488565    
0.0364538270    0.0198912780    0.0004395393    
0.0366764880    0.0206479950    0.0004474969    
0.0368991490    0.0202195210    0.0004405971    
0.0371218100    0.0196744220    0.0004333741    
0.0373444710    0.0201052620    0.0004428644    
0.0375671320    0.0193269680    0.0004335755    
0.0377897930    0.0196868020    0.0004262651    
0.0380124540    0.0197009760    0.0004290940    
0.0382351150    0.0195327650    0.0004272584    
0.0384577760    0.0202392920    0.0004307207    
0.0386804370    0.0200933460    0.0004324401    
0.0389030980    0.0200284930    0.0004284721    
0.0391257590    0.0203814060    0.0004292963    
0.0393484200    0.0200109280    0.0004239451    
0.0395710810    0.0197316660    0.0004215437    
0.0397937420    0.0203710900    0.0004283196    
0.0400164030    0.0203737480    0.0004300901    
0.0402390640    0.0199938760    0.0004203884    
0.0404617250    0.0195053520    0.0004127712    
0.0406843860    0.0196442870    0.0004102365    
0.0409070470    0.0198895170    0.0004170893    
0.0411297080    0.0193092540    0.0004069844    
0.0413523690    0.0204349900    0.0004197592    
0.0415750300    0.0200908450    0.0004197451    
0.0417976910    0.0196642140    0.0004045244    
0.0420203520    0.0200973340    0.0004104917    
0.0422430130    0.0188136380    0.0003986692    
0.0424656740    0.0190924360    0.0003963851    
0.0426883350    0.0204958880    0.0004127340    
0.0429109960    0.0200052710    0.0004090382    
0.0431336570    0.0202015620    0.0004052488    
0.0433563180    0.0203779290    0.0004105251    
0.0435789790    0.0200070720    0.0004003817    
0.0438016400    0.0197636550    0.0004001035    
0.0440243010    0.0195709860    0.0003941088    
0.0442469620    0.0197821340    0.0003986033    
0.0444696230    0.0201349130    0.0004006998    
0.0446922840    0.0187789040    0.0003858226    
0.0449149450    0.0198697510    0.0003915650    
0.0451376060    0.0199048980    0.0003967513    
0.0453602670    0.0198536800    0.0003920866    
0.0455829280    0.0198773200    0.0003918663    
0.0458055890    0.0198597160    0.0003939769    
0.0460282500    0.0196887770    0.0003875473    
0.0462509110    0.0197987120    0.0003862107    
0.0464735720    0.0197682790    0.0003861316    
0.0466962330    0.0189894310    0.0003801690    
0.0469188940    0.0194949190    0.0003841037    
0.0471415550    0.0194051420    0.0003851865    
0.0473642160    0.0193263860    0.0003790216    
0.0475868770    0.0201283810    0.0003848843    
0.0478095380    0.0198285850    0.0003803356    
0.0480321990    0.0192780950    0.0003758406    
0.0482548600    0.0197641980    0.0003788916    
0.0484775210    0.0193881350    0.0003789956    
0.0487001820    0.0194792470    0.0003743241    
0.0489228430    0.0198894480    0.0003780417    
0.0491455040    0.0200050280    0.0003765163    
0.0493681650    0.0196078300    0.0003759630    
0.0495908260    0.0197618850    0.0003710866    
0.0498134870    0.0190746910    0.0003680480    
0.0500361480    0.0193482820    0.0003696974    
0.0502588090    0.0192457300    0.0003631916    
0.0504814700    0.0197311120    0.0003725505    
0.0507041310    0.0202468430    0.0003729010    
0.0509267920    0.0194936950    0.0003674134    
0.0511494530    0.0199178830    0.0003689129    
0.0513721140    0.0196165920    0.0003693363    
0.0515947750    0.0198107730    0.0003662387    
0.0518174360    0.0194791740    0.0003609731    
0.0520400970    0.0194606630    0.0003582998    
0.0522627580    0.0205778460    0.0003715720    
0.0524854190    0.0198432490    0.0003678462    
0.0527080800    0.0199162620    0.0003713756    
0.0529307410    0.0193977690    0.0003682309    
0.0531534020    0.0198605110    0.0003712407    
0.0533760630    0.0200059960    0.0003737644    
0.0535987240    0.0194183890    0.0003665152    
0.0538213850    0.0196161090    0.0003726444    
0.0540440460    0.0193046550    0.0003679247    
0.0542667070    0.0190882270    0.0003683778    
0.0544893680    0.0199056540    0.0003763832    
0.0547120290    0.0196478910    0.0003713766    
0.0549346900    0.0195561390    0.0003707034    
0.0551573510    0.0194725750    0.0003742650    
0.0553800120    0.0195389110    0.0003717148    
0.0556026730    0.0201070310    0.0003848985    
0.0558253340    0.0197559270    0.0003847178    
0.0560479950    0.0202653900    0.0003896470    
0.0562706560    0.0193760570    0.0003846849    
0.0564933170    0.0199549200    0.0003937789    
0.0567159780    0.0189558910    0.0003791937    
0.0569386390    0.0194691420    0.0003903207    
0.0571613000    0.0196511590    0.0003836975    
0.0573839610    0.0192598760    0.0003767044    
0.0576066220    0.0199371370    0.0003843315    
0.0578292830    0.0195698990    0.0003795154    
0.0580519440    0.0197293770    0.0003825362    
0.0582746050    0.0195042980    0.0003786707    
0.0584972660    0.0198513700    0.0003805627    
0.0587199270    0.0192094380    0.0003711319    
0.0589425880    0.0197578370    0.0003741907    
0.0591652490    0.0199265180    0.0003779960    
0.0593879100    0.0192925580    0.0003691722    
0.0596105710    0.0192095800    0.0003679888    
0.0598332320    0.0197616620    0.0003764297    
0.0600558930    0.0199069140    0.0003754017    
0.0602785540    0.0201050350    0.0003768664    
0.0605012150    0.0191551510    0.0003670809    
0.0607238760    0.0199584430    0.0003719682    
0.0609465370    0.0198443680    0.0003738237    
0.0611691980    0.0194763960    0.0003709285    
0.0613918590    0.0194128230    0.0003662797    
0.0616145200    0.0189757430    0.0003647833    
0.0618371810    0.0194230120    0.0003654327    
0.0620598420    0.0199384620    0.0003706316    
0.0622825030    0.0197291310    0.0003743190    
0.0625051640    0.0193583560    0.0003655775    
0.0627278250    0.0198837510    0.0003697423    
0.0629504860    0.0200352560    0.0003681310    
0.0631731470    0.0194387460    0.0003670957    
0.0633958080    0.0197963780    0.0003725892    
0.0636184690    0.0191909540    0.0003719568    
0.0638411300    0.0190185250    0.0003688921    
0.0640637910    0.0195772440    0.0003769039    
0.0642864520    0.0193986850    0.0003743692    
0.0645091130    0.0189608450    0.0003733636    
0.0647317740    0.0191868830    0.0003759966    
0.0649544350    0.0196446280    0.0003800367    
0.0651770960    0.0193363530    0.0003749863    
0.0653997570    0.0197738960    0.0003783828    
0.0656224180    0.0190964190    0.0003726530    
0.0658450790    0.0197665020    0.0003736852    
0.0660677400    0.0196928670    0.0003745760    
0.0662904010    0.0193122440    0.0003753667    
0.0665130620    0.0205409800    0.0003854446    
0.0667357230    0.0199817470    0.0003869207    
0.0669583840    0.0198557040    0.0003844080    
0.0671810450    0.0194162460    0.0003780314    
0.0674037060    0.0194022530    0.0003842972    
0.0676263670    0.0196217350    0.0003836353    
0.0678490280    0.0205679410    0.0003903742    
0.0680716890    0.0198707080    0.0003845543    
0.0682943500    0.0195834200    0.0003775830    
0.0685170110    0.0201706210    0.0003792971    
0.0687396720    0.0202622320    0.0003791475    
0.0689623330    0.0197603800    0.0003732362    
0.0691849940    0.0198064200    0.0003762597    
0.0694076550    0.0192497740    0.0003707368    
0.0696303160    0.0193889060    0.0003691284    
0.0698529770    0.0193147180    0.0003676494    
0.0700756380    0.0194221420    0.0003639378    
0.0702982990    0.0184188410    0.0003582727    
0.0705209600    0.0196306050    0.0003671999    
0.0707436210    0.0195868290    0.0003651058    
0.0709662820    0.0198336060    0.0003717785    
0.0711889430    0.0199544850    0.0003683295    
0.0714116040    0.0194489530    0.0003643762    
0.0716342650    0.0198127240    0.0003662748    
0.0718569260    0.0195191150    0.0003620865    
0.0720795870    0.0191491900    0.0003600897    
0.0723022480    0.0186370730    0.0003557834    
0.0725249090    0.0193072360    0.0003577869    
0.0727475700    0.0188831390    0.0003568578    
0.0729702310    0.0193596430    0.0003584504    
0.0731928920    0.0197823000    0.0003637903    
0.0734155530    0.0192503270    0.0003581495    
0.0736382140    0.0200367950    0.0003630474    
0.0738608750    0.0193636540    0.0003592026    
0.0740835360    0.0192344780    0.0003571137    
0.0743061970    0.0192573100    0.0003522941    
0.0745288580    0.0196027460    0.0003590945    
0.0747515190    0.0199708340    0.0003631661    
0.0749741800    0.0197195070    0.0003575333    
0.0751968410    0.0195957990    0.0003592084    
0.0754195020    0.0200436560    0.0003611616    
0.0756421630    0.0195636600    0.0003538942    
0.0758648240    0.0197028610    0.0003560047    
0.0760874850    0.0194204620    0.0003532745    
0.0763101460    0.0193767980    0.0003525386    
0.0765328070    0.0200044780    0.0003618683    
0.0767554680    0.0191592000    0.0003517375    
0.0769781290    0.0195141450    0.0003529408    
0.0772007900    0.0196358060    0.0003511998    
0.0774234510    0.0195866320    0.0003527549    
0.0776461120    0.0195938800    0.0003524855    
0.0778687730    0.0195024310    0.0003505002    
0.0780914340    0.0193795860    0.0003518911    
0.0783140950    0.0191903280    0.0003446129    
0.0785367560    0.0193732510    0.0003518341    
0.0787594170    0.0196677630    0.0003513221    
0.0789820780    0.0195102070    0.0003481191    
0.0792047390    0.0194004090    0.0003482732    
0.0794274000    0.0188463600    0.0003447184    
0.0796500610    0.0192963920    0.0003454055    
0.0798727220    0.0195199810    0.0003470802    
0.0800953830    0.0187545730    0.0003394250    
0.0803180440    0.0196645830    0.0003499834    
0.0805407050    0.0199078050    0.0003518137    
0.0807633660    0.0194674890    0.0003475783    
0.0809860270    0.0195642180    0.0003471541    
0.0812086880    0.0198874310    0.0003469852    
0.0814313490    0.0196660280    0.0003466220    
0.0816540100    0.0196617260    0.0003457951    
0.0818766710    0.0190856950    0.0003414699    
0.0820993320    0.0195944710    0.0003453608    
0.0823219930    0.0195784510    0.0003466434    
0.0825446540    0.0196821000    0.0003450346    
0.0827673150    0.0198362600    0.0003440561    
0.0829899760    0.0198727320    0.0003437592    
0.0832126370    0.0197751650    0.0003444502    
0.0834352980    0.0201348030    0.0003467912    
0.0836579590    0.0194744130    0.0003402975    
0.0838806200    0.0199435360    0.0003454494    
0.0841032810    0.0194307640    0.0003388629    
0.0843259420    0.0195520750    0.0003388722    
0.0845486030    0.0194111460    0.0003376490    
0.0847712640    0.0196684370    0.0003378081    
0.0849939250    0.0193585600    0.0003357200    
0.0852165860    0.0190882540    0.0003338046    
0.0854392470    0.0190491670    0.0003303048    
0.0856619080    0.0188542070    0.0003310304    
0.0858845690    0.0197604160    0.0003358401    
0.0861072300    0.0193744800    0.0003348400    
0.0863298910    0.0193615530    0.0003364810    
0.0865525520    0.0189654050    0.0003301453    
0.0867752130    0.0200233630    0.0003364915    
0.0869978740    0.0191138770    0.0003295986    
0.0872205350    0.0194621100    0.0003321643    
0.0874431960    0.0192693900    0.0003305159    
0.0876658570    0.0189549130    0.0003290664    
0.0878885180    0.0192091350    0.0003318338    
0.0881111790    0.0193828570    0.0003329032    
0.0883338400    0.0194411950    0.0003285223    
0.0885565010    0.0191051820    0.0003300873    
0.0887791620    0.0196796600    0.0003306689    
0.0890018230    0.0195704770    0.0003329487    
0.0892244840    0.0197791660    0.0003352883    
0.0894471450    0.0192404650    0.0003292940    
0.0896698060    0.0195822060    0.0003309524    
0.0898924670    0.0194706120    0.0003315378    
0.0901151280    0.0197759090    0.0003305179    
0.0903377890    0.0199398040    0.0003346622    
0.0905604500    0.0189669180    0.0003248980    
0.0907831110    0.0190498720    0.0003247976    
0.0910057720    0.0200354720    0.0003346224    
0.0912284330    0.0197427720    0.0003274132    
0.0914510940    0.0193361500    0.0003276372    
0.0916737550    0.0196159360    0.0003291802    
0.0918964160    0.0192057130    0.0003270746    
0.0921190770    0.0196531030    0.0003278706    
0.0923417380    0.0192477090    0.0003246046    
0.0925643990    0.0190174310    0.0003218673    
0.0927870600    0.0192451280    0.0003251163    
0.0930097210    0.0191022790    0.0003211488    
0.0932323820    0.0197895820    0.0003292780    
