# Diamond Light Source Ltd.
# Data extracted from: /dls/b21/data/2018/cm19678-3/processed/b21-386631_00238.dat
q(1/A)          Column          Error           
0.0035000000    2.0825650000    0.0245945560    
0.0037226610    1.8605120000    0.0227569600    
0.0039453220    1.6222035000    0.0193311330    
0.0041679830    1.2762814000    0.0140812970    
0.0043906440    0.9733594800    0.0117622770    
0.0046133050    0.7779479800    0.0100947110    
0.0048359660    0.5943280100    0.0083460195    
0.0050586270    0.4710302500    0.0073030140    
0.0052812880    0.4425310300    0.0066927354    
0.0055039490    0.3833496400    0.0059229747    
0.0057266100    0.3162093400    0.0052040786    
0.0059492710    0.2663627200    0.0047763181    
0.0061719320    0.2199786800    0.0041826786    
0.0063945930    0.1963409700    0.0039994697    
0.0066172539    0.1811631700    0.0036074256    
0.0068399149    0.1626975900    0.0033647970    
0.0070625759    0.1440394100    0.0031335135    
0.0072852369    0.1259370500    0.0028861577    
0.0075078979    0.1151401300    0.0027461059    
0.0077305589    0.0997031050    0.0025067178    
0.0079532199    0.0976944630    0.0024469539    
0.0081758809    0.0892188540    0.0023601550    
0.0083985419    0.0789709840    0.0020710250    
0.0086212029    0.0786451190    0.0020667478    
0.0088438639    0.0681410100    0.0019083300    
0.0090665249    0.0655087070    0.0018071797    
0.0092891859    0.0630573390    0.0018506297    
0.0095118469    0.0604258250    0.0017421670    
0.0097345079    0.0578028690    0.0016548913    
0.0099571689    0.0547618950    0.0015775566    
0.0101798300    0.0489448730    0.0014914179    
0.0104024910    0.0485238960    0.0014799649    
0.0106251520    0.0476724140    0.0014719037    
0.0108478130    0.0466773110    0.0014183767    
0.0110704740    0.0448492240    0.0013236830    
0.0112931350    0.0437376540    0.0013110157    
0.0115157960    0.0395781120    0.0012398467    
0.0117384570    0.0383270230    0.0012095901    
0.0119611180    0.0382017580    0.0012110771    
0.0121837790    0.0371139430    0.0011736459    
0.0124064400    0.0368791490    0.0011211591    
0.0126291010    0.0349646740    0.0010780071    
0.0128517620    0.0354067260    0.0010875089    
0.0130744230    0.0322836750    0.0010307384    
0.0132970840    0.0326856530    0.0010320642    
0.0135197450    0.0322311290    0.0010101867    
0.0137424060    0.0309397380    0.0009759636    
0.0139650670    0.0321959970    0.0009734042    
0.0141877280    0.0294711610    0.0009333610    
0.0144103890    0.0290060430    0.0009100005    
0.0146330500    0.0290335160    0.0009046509    
0.0148557110    0.0287067090    0.0008957734    
0.0150783720    0.0283166530    0.0008823143    
0.0153010330    0.0284590690    0.0008720590    
0.0155236940    0.0272766490    0.0008486739    
0.0157463550    0.0271556150    0.0008321179    
0.0159690160    0.0266462380    0.0008211485    
0.0161916770    0.0256212470    0.0008006640    
0.0164143380    0.0264173530    0.0008191673    
0.0166369990    0.0249327450    0.0007712798    
0.0168596600    0.0239562040    0.0007493635    
0.0170823210    0.0259389550    0.0007730067    
0.0173049820    0.0254508160    0.0007670224    
0.0175276430    0.0249517440    0.0007674736    
0.0177503040    0.0243234940    0.0007384330    
0.0179729650    0.0250081350    0.0007413276    
0.0181956260    0.0249886710    0.0007268326    
0.0184182870    0.0235599710    0.0007024226    
0.0186409480    0.0243893570    0.0007192029    
0.0188636090    0.0237694090    0.0007055381    
0.0190862700    0.0233193550    0.0006977341    
0.0193089310    0.0240791870    0.0007079053    
0.0195315920    0.0231683790    0.0006707728    
0.0197542530    0.0230606410    0.0006701863    
0.0199769140    0.0220868040    0.0006558830    
0.0201995750    0.0225139290    0.0006518251    
0.0204222360    0.0221918170    0.0006527005    
0.0206448970    0.0212718870    0.0006344872    
0.0208675580    0.0225832860    0.0006402903    
0.0210902190    0.0213001600    0.0006278345    
0.0213128800    0.0208520880    0.0006127669    
0.0215355410    0.0228898240    0.0006343617    
0.0217582020    0.0222569340    0.0006255305    
0.0219808630    0.0231979860    0.0006377792    
0.0222035240    0.0215397750    0.0006089933    
0.0224261850    0.0211242400    0.0005977229    
0.0226488460    0.0219243860    0.0006043653    
0.0228715070    0.0221305560    0.0006056918    
0.0230941680    0.0208043890    0.0005872636    
0.0233168290    0.0210081190    0.0005916020    
0.0235394900    0.0205795620    0.0005790745    
0.0237621510    0.0205818660    0.0005635167    
0.0239848120    0.0211089150    0.0005713465    
0.0242074730    0.0210766920    0.0005663404    
0.0244301340    0.0210180530    0.0005661974    
0.0246527950    0.0206167420    0.0005659585    
0.0248754560    0.0207248150    0.0005546869    
0.0250981170    0.0219804920    0.0005725174    
0.0253207780    0.0212208600    0.0005457416    
0.0255434390    0.0207730760    0.0005457159    
0.0257661000    0.0212251230    0.0005534060    
0.0259887610    0.0210023820    0.0005446444    
0.0262114220    0.0207699800    0.0005445084    
0.0264340830    0.0203197510    0.0005312467    
0.0266567440    0.0201791580    0.0005261344    
0.0268794050    0.0213754000    0.0005392947    
0.0271020660    0.0202984280    0.0005234057    
0.0273247270    0.0201353500    0.0005181682    
0.0275473880    0.0201881150    0.0005178142    
0.0277700490    0.0206720320    0.0005208863    
0.0279927100    0.0203515670    0.0005123236    
0.0282153710    0.0211099150    0.0005243183    
0.0284380320    0.0207242850    0.0005164956    
0.0286606930    0.0198269690    0.0005008663    
0.0288833540    0.0206771240    0.0005124635    
0.0291060150    0.0198899660    0.0005021374    
0.0293286760    0.0201407060    0.0004982516    
0.0295513370    0.0208259460    0.0005011394    
0.0297739980    0.0201900320    0.0004988616    
0.0299966590    0.0216736050    0.0005080371    
0.0302193200    0.0209860210    0.0005071988    
0.0304419810    0.0196484440    0.0004916723    
0.0306646420    0.0207508990    0.0004910166    
0.0308873030    0.0198348410    0.0004779827    
0.0311099640    0.0200769190    0.0004821393    
0.0313326250    0.0210952600    0.0004887406    
0.0315552860    0.0196704100    0.0004780628    
0.0317779470    0.0210315260    0.0004947567    
0.0320006080    0.0208203520    0.0004810821    
0.0322232690    0.0205802870    0.0004803028    
0.0324459300    0.0198876560    0.0004686264    
0.0326685910    0.0202403750    0.0004719844    
0.0328912520    0.0199093250    0.0004696588    
0.0331139130    0.0194486820    0.0004581554    
0.0333365740    0.0205311360    0.0004722610    
0.0335592350    0.0202447590    0.0004644466    
0.0337818960    0.0201699810    0.0004632190    
0.0340045570    0.0201589840    0.0004623571    
0.0342272170    0.0203579750    0.0004628008    
0.0344498780    0.0205831850    0.0004671967    
0.0346725390    0.0198993580    0.0004508630    
0.0348952000    0.0205282600    0.0004558460    
0.0351178610    0.0194805560    0.0004460936    
0.0353405220    0.0201233890    0.0004513287    
0.0355631830    0.0206753410    0.0004557535    
0.0357858440    0.0202634540    0.0004511911    
0.0360085050    0.0194865550    0.0004437941    
0.0362311660    0.0201214060    0.0004456047    
0.0364538270    0.0207222080    0.0004485789    
0.0366764880    0.0194510050    0.0004342868    
0.0368991490    0.0195913510    0.0004336535    
0.0371218100    0.0205578910    0.0004429510    
0.0373444710    0.0188819120    0.0004291344    
0.0375671320    0.0189825500    0.0004296498    
0.0377897930    0.0200333240    0.0004299551    
0.0380124540    0.0202387870    0.0004348658    
0.0382351150    0.0201453620    0.0004338611    
0.0384577760    0.0197401670    0.0004253319    
0.0386804370    0.0198379010    0.0004296374    
0.0389030980    0.0199693050    0.0004277936    
0.0391257590    0.0199160680    0.0004243228    
0.0393484200    0.0202671400    0.0004266057    
0.0395710810    0.0198445770    0.0004227037    
0.0397937420    0.0195114470    0.0004191409    
0.0400164030    0.0198974540    0.0004249885    
0.0402390640    0.0195036370    0.0004151590    
0.0404617250    0.0199117210    0.0004170051    
0.0406843860    0.0195802090    0.0004095239    
0.0409070470    0.0194393670    0.0004122991    
0.0411297080    0.0193909660    0.0004078018    
0.0413523690    0.0200772600    0.0004160253    
0.0415750300    0.0201567710    0.0004203891    
0.0417976910    0.0198597680    0.0004064882    
0.0420203520    0.0197829610    0.0004072258    
0.0422430130    0.0202708850    0.0004137777    
0.0424656740    0.0204460130    0.0004101526    
0.0426883350    0.0201010350    0.0004086961    
0.0429109960    0.0196498850    0.0004053462    
0.0431336570    0.0190269360    0.0003932495    
0.0433563180    0.0195798760    0.0004023640    
0.0435789790    0.0198827140    0.0003990936    
0.0438016400    0.0197919010    0.0004003473    
0.0440243010    0.0190987350    0.0003892840    
0.0442469620    0.0191998220    0.0003926516    
0.0444696230    0.0200350190    0.0003996626    
0.0446922840    0.0194089860    0.0003922008    
0.0449149450    0.0197421470    0.0003902647    
0.0451376060    0.0200430390    0.0003980839    
0.0453602670    0.0196946830    0.0003904725    
0.0455829280    0.0194174500    0.0003872662    
0.0458055890    0.0197930380    0.0003932737    
0.0460282500    0.0194405910    0.0003850566    
0.0462509110    0.0198774130    0.0003869369    
0.0464735720    0.0188366280    0.0003768833    
0.0466962330    0.0192898230    0.0003831239    
0.0469188940    0.0198691450    0.0003877322    
0.0471415550    0.0201119850    0.0003920979    
0.0473642160    0.0197310740    0.0003829292    
0.0475868770    0.0197268260    0.0003809858    
0.0478095380    0.0192992750    0.0003751855    
0.0480321990    0.0193912630    0.0003769026    
0.0482548600    0.0202030380    0.0003830347    
0.0484775210    0.0202284640    0.0003870812    
0.0487001820    0.0202734410    0.0003818387    
0.0489228430    0.0187789420    0.0003672978    
0.0491455040    0.0195757340    0.0003724154    
0.0493681650    0.0201514680    0.0003810993    
0.0495908260    0.0196462710    0.0003699607    
0.0498134870    0.0200362940    0.0003771715    
0.0500361480    0.0193795360    0.0003699570    
0.0502588090    0.0201325120    0.0003714258    
0.0504814700    0.0199590540    0.0003746569    
0.0507041310    0.0193430780    0.0003644451    
0.0509267920    0.0193442120    0.0003659636    
0.0511494530    0.0198112330    0.0003678854    
0.0513721140    0.0200018060    0.0003729059    
0.0515947750    0.0194816970    0.0003631461    
0.0518174360    0.0195553420    0.0003616402    
0.0520400970    0.0198457120    0.0003617892    
0.0522627580    0.0192587550    0.0003594277    
0.0524854190    0.0196277420    0.0003658049    
0.0527080800    0.0204382730    0.0003761716    
0.0529307410    0.0192679020    0.0003669577    
0.0531534020    0.0194192560    0.0003670550    
0.0533760630    0.0195898950    0.0003698182    
0.0535987240    0.0202027840    0.0003738053    
0.0538213850    0.0187839160    0.0003646160    
0.0540440460    0.0197282620    0.0003719005    
0.0542667070    0.0198092100    0.0003752310    
0.0544893680    0.0191686030    0.0003693105    
0.0547120290    0.0200087130    0.0003747318    
0.0549346900    0.0199314150    0.0003742040    
0.0551573510    0.0193390360    0.0003729404    
0.0553800120    0.0195772330    0.0003720402    
0.0556026730    0.0197197620    0.0003811338    
0.0558253340    0.0196094680    0.0003832490    
0.0560479950    0.0199240780    0.0003863113    
0.0562706560    0.0200057630    0.0003908449    
0.0564933170    0.0198575060    0.0003927754    
0.0567159780    0.0196117050    0.0003856569    
0.0569386390    0.0197154120    0.0003927404    
0.0571613000    0.0195796240    0.0003829584    
0.0573839610    0.0198304160    0.0003822032    
0.0576066220    0.0185403890    0.0003705855    
0.0578292830    0.0193376850    0.0003772175    
0.0580519440    0.0199032100    0.0003841775    
0.0582746050    0.0203307850    0.0003865699    
0.0584972660    0.0196502650    0.0003785904    
0.0587199270    0.0198291010    0.0003770309    
0.0589425880    0.0198245450    0.0003747826    
0.0591652490    0.0185100670    0.0003642754    
0.0593879100    0.0200371670    0.0003761895    
0.0596105710    0.0201429220    0.0003767831    
0.0598332320    0.0196714890    0.0003755305    
0.0600558930    0.0193223590    0.0003698101    
0.0602785540    0.0197264880    0.0003732625    
0.0605012150    0.0195379530    0.0003706918    
0.0607238760    0.0199057390    0.0003714378    
0.0609465370    0.0189390170    0.0003651584    
0.0611691980    0.0194511210    0.0003706489    
0.0613918590    0.0196713110    0.0003686715    
0.0616145200    0.0194415000    0.0003691942    
0.0618371810    0.0199688540    0.0003704931    
0.0620598420    0.0193212350    0.0003648114    
0.0622825030    0.0192137620    0.0003693588    
0.0625051640    0.0190505900    0.0003626218    
0.0627278250    0.0197077300    0.0003680635    
0.0629504860    0.0197334950    0.0003653098    
0.0631731470    0.0191504950    0.0003643255    
0.0633958080    0.0203390880    0.0003776223    
0.0636184690    0.0200806850    0.0003804416    
0.0638411300    0.0193865280    0.0003724049    
0.0640637910    0.0194498070    0.0003756357    
0.0642864520    0.0189395470    0.0003698735    
0.0645091130    0.0201255930    0.0003846201    
0.0647317740    0.0199931940    0.0003837755    
0.0649544350    0.0193023840    0.0003766722    
0.0651770960    0.0194704360    0.0003762447    
0.0653997570    0.0199000500    0.0003795481    
0.0656224180    0.0195141040    0.0003766668    
0.0658450790    0.0201932000    0.0003776574    
0.0660677400    0.0190476410    0.0003683498    
0.0662904010    0.0193592530    0.0003757839    
0.0665130620    0.0196183050    0.0003766488    
0.0667357230    0.0201723120    0.0003887205    
0.0669583840    0.0195836770    0.0003817256    
0.0671810450    0.0197874650    0.0003815880    
0.0674037060    0.0191774890    0.0003820247    
0.0676263670    0.0200900610    0.0003881458    
0.0678490280    0.0196524860    0.0003815477    
0.0680716890    0.0193531340    0.0003794732    
0.0682943500    0.0202926100    0.0003843187    
0.0685170110    0.0193178040    0.0003711532    
0.0687396720    0.0194280850    0.0003712222    
0.0689623330    0.0196787040    0.0003724250    
0.0691849940    0.0194663910    0.0003729769    
0.0694076550    0.0193742310    0.0003718943    
0.0696303160    0.0194972550    0.0003701195    
0.0698529770    0.0194366050    0.0003687689    
0.0700756380    0.0195885210    0.0003654549    
0.0702982990    0.0197039560    0.0003705218    
0.0705209600    0.0191801180    0.0003629241    
0.0707436210    0.0193853960    0.0003631855    
0.0709662820    0.0194462330    0.0003680913    
0.0711889430    0.0199163120    0.0003679384    
0.0714116040    0.0197247050    0.0003669117    
0.0716342650    0.0193075990    0.0003615376    
0.0718569260    0.0192329720    0.0003593850    
0.0720795870    0.0193888880    0.0003622984    
0.0723022480    0.0198758270    0.0003673786    
0.0725249090    0.0197672040    0.0003619857    
0.0727475700    0.0195534340    0.0003630982    
0.0729702310    0.0199793130    0.0003641038    
0.0731928920    0.0194504090    0.0003606879    
0.0734155530    0.0201056770    0.0003659815    
0.0736382140    0.0193946530    0.0003571450    
0.0738608750    0.0200391100    0.0003653756    
0.0740835360    0.0196480640    0.0003608948    
0.0743061970    0.0198138570    0.0003573111    
0.0745288580    0.0193750260    0.0003569652    
0.0747515190    0.0193657970    0.0003575850    
0.0749741800    0.0197996240    0.0003582213    
0.0751968410    0.0200195980    0.0003630339    
0.0754195020    0.0197336540    0.0003583202    
0.0756421630    0.0200971880    0.0003586497    
0.0758648240    0.0198209200    0.0003570323    
0.0760874850    0.0194870630    0.0003538426    
0.0763101460    0.0192765430    0.0003515885    
0.0765328070    0.0194832580    0.0003570854    
0.0767554680    0.0192455660    0.0003524923    
0.0769781290    0.0196313110    0.0003539616    
0.0772007900    0.0191167160    0.0003464902    
0.0774234510    0.0195063020    0.0003519938    
0.0776461120    0.0193298410    0.0003500657    
0.0778687730    0.0191708480    0.0003474713    
0.0780914340    0.0197779800    0.0003554524    
0.0783140950    0.0198421380    0.0003503797    
0.0785367560    0.0191008800    0.0003493154    
0.0787594170    0.0193122770    0.0003480961    
0.0789820780    0.0195123240    0.0003481015    
0.0792047390    0.0197588880    0.0003514392    
0.0794274000    0.0197879930    0.0003531881    
0.0796500610    0.0197683160    0.0003495670    
0.0798727220    0.0197071580    0.0003487037    
0.0800953830    0.0200281140    0.0003507233    
0.0803180440    0.0192245280    0.0003460090    
0.0805407050    0.0196736370    0.0003497017    
0.0807633660    0.0198356730    0.0003508130    
0.0809860270    0.0192768130    0.0003445586    
0.0812086880    0.0196290430    0.0003446876    
0.0814313490    0.0196313620    0.0003462801    
0.0816540100    0.0197974480    0.0003469501    
0.0818766710    0.0196863920    0.0003467656    
0.0820993320    0.0199798550    0.0003487040    
0.0823219930    0.0191509490    0.0003428021    
0.0825446540    0.0198593900    0.0003465488    
0.0827673150    0.0190445430    0.0003370848    
0.0829899760    0.0198745090    0.0003437385    
0.0832126370    0.0196810390    0.0003435935    
0.0834352980    0.0194498070    0.0003408054    
0.0836579590    0.0194941080    0.0003404338    
0.0838806200    0.0195146010    0.0003416785    
0.0841032810    0.0190840020    0.0003357903    
0.0843259420    0.0194657650    0.0003380880    
0.0845486030    0.0190253910    0.0003342421    
0.0847712640    0.0194844890    0.0003361894    
0.0849939250    0.0191565880    0.0003339291    
0.0852165860    0.0184889610    0.0003284883    
0.0854392470    0.0194460010    0.0003336925    
0.0856619080    0.0191233590    0.0003333498    
0.0858845690    0.0197733900    0.0003359151    
0.0861072300    0.0193357010    0.0003344696    
0.0863298910    0.0194861130    0.0003375263    
0.0865525520    0.0192544670    0.0003326169    
0.0867752130    0.0187018890    0.0003251642    
0.0869978740    0.0194053520    0.0003320673    
0.0872205350    0.0191916340    0.0003298135    
0.0874431960    0.0198321420    0.0003352723    
0.0876658570    0.0191279950    0.0003305307    
0.0878885180    0.0190675580    0.0003305740    
0.0881111790    0.0199447200    0.0003376583    
0.0883338400    0.0196369270    0.0003301373    
0.0885565010    0.0194660920    0.0003331555    
0.0887791620    0.0193144620    0.0003275520    
0.0890018230    0.0198551950    0.0003353267    
0.0892244840    0.0187010280    0.0003259880    
0.0894471450    0.0196533870    0.0003327738    
0.0896698060    0.0192928990    0.0003284641    
0.0898924670    0.0200083620    0.0003360496    
0.0901151280    0.0198711720    0.0003312782    
0.0903377890    0.0196211440    0.0003319425    
0.0905604500    0.0193023580    0.0003277240    
0.0907831110    0.0192341200    0.0003263303    
0.0910057720    0.0191428530    0.0003270491    
0.0912284330    0.0197874880    0.0003277494    
0.0914510940    0.0197539250    0.0003311230    
0.0916737550    0.0193522440    0.0003269259    
0.0918964160    0.0191849770    0.0003268637    
0.0921190770    0.0193700780    0.0003254671    
0.0923417380    0.0198019350    0.0003292103    
0.0925643990    0.0192912090    0.0003241419    
0.0927870600    0.0194222990    0.0003265751    
0.0930097210    0.0189147380    0.0003195349    
0.0932323820    0.0192760050    0.0003249432    
