# Diamond Light Source Ltd.
# Data extracted from: /dls/b21/data/2018/cm19678-3/processed/b21-386631_00243.dat
q(1/A)          Column          Error           
0.0035000000    2.1073200000    0.0247458060    
0.0037226610    1.8986561000    0.0229941740    
0.0039453220    1.5915825000    0.0191520770    
0.0041679830    1.3066919000    0.0142512410    
0.0043906440    0.9642653100    0.0117098050    
0.0046133050    0.7889091800    0.0101678410    
0.0048359660    0.5921302600    0.0083324279    
0.0050586270    0.4594589300    0.0072143586    
0.0052812880    0.4206523900    0.0065266468    
0.0055039490    0.3772946100    0.0058773194    
0.0057266100    0.3171212700    0.0052127372    
0.0059492710    0.2685377400    0.0047968466    
0.0061719320    0.2254870200    0.0042356651    
0.0063945930    0.2001776300    0.0040392558    
0.0066172539    0.1767163200    0.0035636693    
0.0068399149    0.1721686300    0.0034621187    
0.0070625759    0.1504459900    0.0032031543    
0.0072852369    0.1263239800    0.0028912313    
0.0075078979    0.1123738500    0.0027135210    
0.0077305589    0.0993691800    0.0025030735    
0.0079532199    0.1011716600    0.0024906740    
0.0081758809    0.0928189190    0.0024078371    
0.0083985419    0.0833531060    0.0021281837    
0.0086212029    0.0773217010    0.0020497408    
0.0088438639    0.0692406970    0.0019240952    
0.0090665249    0.0648894730    0.0017990184    
0.0092891859    0.0634114320    0.0018562315    
0.0095118469    0.0627140470    0.0017752419    
0.0097345079    0.0567383890    0.0016399474    
0.0099571689    0.0561502460    0.0015977844    
0.0101798300    0.0496031820    0.0015017483    
0.0104024910    0.0461520900    0.0014436633    
0.0106251520    0.0468297850    0.0014591621    
0.0108478130    0.0464824940    0.0014157287    
0.0110704740    0.0438920720    0.0013097735    
0.0112931350    0.0414768790    0.0012769675    
0.0115157960    0.0418883190    0.0012758028    
0.0117384570    0.0376184500    0.0011986235    
0.0119611180    0.0362598120    0.0011801564    
0.0121837790    0.0381329870    0.0011899141    
0.0124064400    0.0359748810    0.0011075750    
0.0126291010    0.0332179260    0.0010509687    
0.0128517620    0.0339521200    0.0010651727    
0.0130744230    0.0335162200    0.0010504639    
0.0132970840    0.0323741800    0.0010273635    
0.0135197450    0.0296164260    0.0009685607    
0.0137424060    0.0316311000    0.0009870271    
0.0139650670    0.0301787820    0.0009426268    
0.0141877280    0.0314065250    0.0009637350    
0.0144103890    0.0310754160    0.0009421119    
0.0146330500    0.0291028410    0.0009059319    
0.0148557110    0.0290830250    0.0009018263    
0.0150783720    0.0272841020    0.0008662711    
0.0153010330    0.0281509300    0.0008675181    
0.0155236940    0.0268661190    0.0008424506    
0.0157463550    0.0271677040    0.0008324883    
0.0159690160    0.0267087320    0.0008222938    
0.0161916770    0.0259580680    0.0008060890    
0.0164143380    0.0261749860    0.0008155824    
0.0166369990    0.0259463710    0.0007869767    
0.0168596600    0.0244358870    0.0007569971    
0.0170823210    0.0253512900    0.0007643702    
0.0173049820    0.0249996170    0.0007603622    
0.0175276430    0.0253171020    0.0007732441    
0.0177503040    0.0246483130    0.0007435126    
0.0179729650    0.0244476500    0.0007331363    
0.0181956260    0.0232866110    0.0007017988    
0.0184182870    0.0239475860    0.0007083349    
0.0186409480    0.0239758620    0.0007132389    
0.0188636090    0.0248485180    0.0007215362    
0.0190862700    0.0236847990    0.0007033365    
0.0193089310    0.0231529600    0.0006943111    
0.0195315920    0.0238975620    0.0006813983    
0.0197542530    0.0222330270    0.0006581968    
0.0199769140    0.0239282800    0.0006828295    
0.0201995750    0.0225994710    0.0006532076    
0.0204222360    0.0221248730    0.0006518603    
0.0206448970    0.0233072510    0.0006642966    
0.0208675580    0.0223935590    0.0006377370    
0.0210902190    0.0228277920    0.0006501033    
0.0213128800    0.0228790510    0.0006420016    
0.0215355410    0.0210708270    0.0006087699    
0.0217582020    0.0220557820    0.0006228360    
0.0219808630    0.0218751060    0.0006194652    
0.0222035240    0.0208947860    0.0005999396    
0.0224261850    0.0210828820    0.0005972704    
0.0226488460    0.0214174600    0.0005974704    
0.0228715070    0.0224720990    0.0006104836    
0.0230941680    0.0207141420    0.0005861189    
0.0233168290    0.0217341650    0.0006018720    
0.0235394900    0.0206539290    0.0005802490    
0.0237621510    0.0209460460    0.0005686069    
0.0239848120    0.0212575530    0.0005734821    
0.0242074730    0.0224258390    0.0005843154    
0.0244301340    0.0211800030    0.0005685011    
0.0246527950    0.0206259190    0.0005662104    
0.0248754560    0.0217737130    0.0005686768    
0.0250981170    0.0211249880    0.0005613902    
0.0253207780    0.0208231110    0.0005407232    
0.0255434390    0.0213990520    0.0005540004    
0.0257661000    0.0214222330    0.0005560934    
0.0259887610    0.0216899850    0.0005536115    
0.0262114220    0.0206364130    0.0005428756    
0.0264340830    0.0210513510    0.0005408461    
0.0266567440    0.0205724160    0.0005313547    
0.0268794050    0.0215754870    0.0005419335    
0.0271020660    0.0206450210    0.0005279728    
0.0273247270    0.0212249030    0.0005321213    
0.0275473880    0.0208614810    0.0005264963    
0.0277700490    0.0208913290    0.0005237584    
0.0279927100    0.0192509850    0.0004983891    
0.0282153710    0.0207154260    0.0005195117    
0.0284380320    0.0196903960    0.0005035594    
0.0286606930    0.0200383310    0.0005036410    
0.0288833540    0.0201145320    0.0005055562    
0.0291060150    0.0202792940    0.0005071409    
0.0293286760    0.0202359930    0.0004995399    
0.0295513370    0.0208472810    0.0005015076    
0.0297739980    0.0207539380    0.0005058927    
0.0299966590    0.0205990900    0.0004953938    
0.0302193200    0.0204189720    0.0005004109    
0.0304419810    0.0203957200    0.0005010462    
0.0306646420    0.0202603130    0.0004852857    
0.0308873030    0.0200741420    0.0004809644    
0.0311099640    0.0198541860    0.0004795641    
0.0313326250    0.0208440990    0.0004859306    
0.0315552860    0.0204114680    0.0004870931    
0.0317779470    0.0196552410    0.0004784011    
0.0320006080    0.0201512400    0.0004733939    
0.0322232690    0.0197483770    0.0004705998    
0.0324459300    0.0195650850    0.0004649138    
0.0326685910    0.0204585960    0.0004746276    
0.0328912520    0.0199071040    0.0004697372    
0.0331139130    0.0202131740    0.0004671771    
0.0333365740    0.0198882030    0.0004649112    
0.0335592350    0.0207014860    0.0004697609    
0.0337818960    0.0199022440    0.0004602367    
0.0340045570    0.0206453690    0.0004680058    
0.0342272170    0.0200196920    0.0004590417    
0.0344498780    0.0201679820    0.0004625635    
0.0346725390    0.0195811820    0.0004473435    
0.0348952000    0.0201525750    0.0004517561    
0.0351178610    0.0202352760    0.0004547540    
0.0353405220    0.0202943780    0.0004533430    
0.0355631830    0.0199407850    0.0004476838    
0.0357858440    0.0200413060    0.0004488109    
0.0360085050    0.0199906990    0.0004495983    
0.0362311660    0.0202488350    0.0004471129    
0.0364538270    0.0202554060    0.0004435963    
0.0366764880    0.0194596630    0.0004344801    
0.0368991490    0.0199745960    0.0004379720    
0.0371218100    0.0199750480    0.0004367239    
0.0373444710    0.0196221220    0.0004375624    
0.0375671320    0.0193023280    0.0004333501    
0.0377897930    0.0204946010    0.0004349737    
0.0380124540    0.0193410390    0.0004252062    
0.0382351150    0.0194625760    0.0004265402    
0.0384577760    0.0200606840    0.0004288665    
0.0386804370    0.0200142930    0.0004316393    
0.0389030980    0.0190521740    0.0004179475    
0.0391257590    0.0196807340    0.0004219023    
0.0393484200    0.0197820600    0.0004215634    
0.0395710810    0.0201506720    0.0004260460    
0.0397937420    0.0193399740    0.0004173879    
0.0400164030    0.0197610100    0.0004236231    
0.0402390640    0.0192294040    0.0004123217    
0.0404617250    0.0198157400    0.0004160914    
0.0406843860    0.0196317710    0.0004101540    
0.0409070470    0.0196667350    0.0004147956    
0.0411297080    0.0200688460    0.0004149610    
0.0413523690    0.0197153490    0.0004123503    
0.0415750300    0.0197622540    0.0004163474    
0.0417976910    0.0203014400    0.0004110749    
0.0420203520    0.0193305190    0.0004026318    
0.0422430130    0.0207193060    0.0004184224    
0.0424656740    0.0193356400    0.0003989487    
0.0426883350    0.0197441960    0.0004051424    
0.0429109960    0.0195917090    0.0004048358    
0.0431336570    0.0193769210    0.0003969381    
0.0433563180    0.0200601080    0.0004073591    
0.0435789790    0.0190901310    0.0003911452    
0.0438016400    0.0202139020    0.0004046829    
0.0440243010    0.0190357930    0.0003887285    
0.0442469620    0.0192485370    0.0003932369    
0.0444696230    0.0195573950    0.0003949579    
0.0446922840    0.0203849390    0.0004020299    
0.0449149450    0.0192801230    0.0003857568    
0.0451376060    0.0198700310    0.0003964503    
0.0453602670    0.0197421750    0.0003910300    
0.0455829280    0.0195033650    0.0003882084    
0.0458055890    0.0191373570    0.0003867909    
0.0460282500    0.0199604650    0.0003902580    
0.0462509110    0.0196300530    0.0003846074    
0.0464735720    0.0196597700    0.0003851157    
0.0466962330    0.0199531100    0.0003897419    
0.0469188940    0.0194692270    0.0003838957    
0.0471415550    0.0195091270    0.0003862625    
0.0473642160    0.0200818660    0.0003864041    
0.0475868770    0.0202729820    0.0003863097    
0.0478095380    0.0200010810    0.0003820313    
0.0480321990    0.0193779080    0.0003768566    
0.0482548600    0.0195436250    0.0003768157    
0.0484775210    0.0195631340    0.0003807470    
0.0487001820    0.0194910250    0.0003744813    
0.0489228430    0.0207134670    0.0003858387    
0.0491455040    0.0201656740    0.0003780695    
0.0493681650    0.0203767520    0.0003833089    
0.0495908260    0.0196062270    0.0003696657    
0.0498134870    0.0195195770    0.0003723592    
0.0500361480    0.0190207490    0.0003665980    
0.0502588090    0.0192502580    0.0003632771    
0.0504814700    0.0199046160    0.0003742289    
0.0507041310    0.0191868180    0.0003630509    
0.0509267920    0.0205649720    0.0003774184    
0.0511494530    0.0196081820    0.0003660767    
0.0513721140    0.0192456150    0.0003658703    
0.0515947750    0.0196867630    0.0003651336    
0.0518174360    0.0194168490    0.0003604376    
0.0520400970    0.0195312260    0.0003589911    
0.0522627580    0.0197035440    0.0003636355    
0.0524854190    0.0196910440    0.0003664758    
0.0527080800    0.0196854430    0.0003692608    
0.0529307410    0.0196680220    0.0003708308    
0.0531534020    0.0194556640    0.0003674807    
0.0533760630    0.0195567080    0.0003695871    
0.0535987240    0.0194644750    0.0003669930    
0.0538213850    0.0198756310    0.0003751455    
0.0540440460    0.0195055860    0.0003698780    
0.0542667070    0.0199531350    0.0003766754    
0.0544893680    0.0194262820    0.0003718672    
0.0547120290    0.0198210240    0.0003730531    
0.0549346900    0.0204885220    0.0003794821    
0.0551573510    0.0201175210    0.0003804573    
0.0553800120    0.0194091150    0.0003705217    
0.0556026730    0.0193232100    0.0003773661    
0.0558253340    0.0195282740    0.0003825398    
0.0560479950    0.0195807480    0.0003830536    
0.0562706560    0.0196021520    0.0003869683    
0.0564933170    0.0193533650    0.0003878438    
0.0567159780    0.0193700590    0.0003833589    
0.0569386390    0.0191997750    0.0003876568    
0.0571613000    0.0199405410    0.0003865579    
0.0573839610    0.0196623710    0.0003806650    
0.0576066220    0.0197491530    0.0003825603    
0.0578292830    0.0198763290    0.0003825201    
0.0580519440    0.0194743610    0.0003801006    
0.0582746050    0.0197000790    0.0003806112    
0.0584972660    0.0198852300    0.0003809319    
0.0587199270    0.0192139580    0.0003712192    
0.0589425880    0.0192521200    0.0003694143    
0.0591652490    0.0199742390    0.0003784928    
0.0593879100    0.0188236790    0.0003647014    
0.0596105710    0.0194538350    0.0003703645    
0.0598332320    0.0195081160    0.0003740510    
0.0600558930    0.0199965690    0.0003762904    
0.0602785540    0.0196080810    0.0003722233    
0.0605012150    0.0192018750    0.0003675715    
0.0607238760    0.0189507670    0.0003624991    
0.0609465370    0.0198279060    0.0003737125    
0.0611691980    0.0195163080    0.0003713520    
0.0613918590    0.0199980460    0.0003718034    
0.0616145200    0.0197096770    0.0003718145    
0.0618371810    0.0192006400    0.0003633775    
0.0620598420    0.0191024260    0.0003628206    
0.0622825030    0.0202381280    0.0003791614    
0.0625051640    0.0186102160    0.0003584858    
0.0627278250    0.0197577660    0.0003686125    
0.0629504860    0.0197084510    0.0003651592    
0.0631731470    0.0192352960    0.0003652125    
0.0633958080    0.0190084330    0.0003651419    
0.0636184690    0.0195488050    0.0003754529    
0.0638411300    0.0200464350    0.0003787744    
0.0640637910    0.0201334520    0.0003822654    
0.0642864520    0.0192803980    0.0003732700    
0.0645091130    0.0192300410    0.0003760489    
0.0647317740    0.0189260780    0.0003734764    
0.0649544350    0.0196418960    0.0003800550    
0.0651770960    0.0195154720    0.0003767634    
0.0653997570    0.0199016660    0.0003796480    
0.0656224180    0.0199083010    0.0003805369    
0.0658450790    0.0194743730    0.0003709573    
0.0660677400    0.0197758910    0.0003754089    
0.0662904010    0.0199881680    0.0003819240    
0.0665130620    0.0196053350    0.0003766081    
0.0667357230    0.0193419660    0.0003807208    
0.0669583840    0.0202772350    0.0003885127    
0.0671810450    0.0195165200    0.0003790509    
0.0674037060    0.0200006720    0.0003902245    
0.0676263670    0.0197463900    0.0003848972    
0.0678490280    0.0198687400    0.0003837266    
0.0680716890    0.0200093740    0.0003859392    
0.0682943500    0.0195589000    0.0003773909    
0.0685170110    0.0197615860    0.0003754758    
0.0687396720    0.0197418750    0.0003742914    
0.0689623330    0.0193207920    0.0003691048    
0.0691849940    0.0192319750    0.0003708069    
0.0694076550    0.0195042660    0.0003732233    
0.0696303160    0.0192528850    0.0003678746    
0.0698529770    0.0193612610    0.0003681354    
0.0700756380    0.0190242620    0.0003602331    
0.0702982990    0.0192317590    0.0003661366    
0.0705209600    0.0197314070    0.0003681848    
0.0707436210    0.0201087930    0.0003699821    
0.0709662820    0.0193433610    0.0003671981    
0.0711889430    0.0198027700    0.0003669698    
0.0714116040    0.0193715910    0.0003636936    
0.0716342650    0.0193026490    0.0003615718    
0.0718569260    0.0194699600    0.0003616728    
0.0720795870    0.0200680330    0.0003686710    
0.0723022480    0.0193819530    0.0003628663    
0.0725249090    0.0196964220    0.0003614174    
0.0727475700    0.0199129080    0.0003665021    
0.0729702310    0.0195633500    0.0003603738    
0.0731928920    0.0194323020    0.0003606002    
0.0734155530    0.0195147870    0.0003606437    
0.0736382140    0.0201599430    0.0003642042    
0.0738608750    0.0194082000    0.0003596579    
0.0740835360    0.0196435460    0.0003609337    
0.0743061970    0.0194552330    0.0003541415    
0.0745288580    0.0188046410    0.0003517499    
0.0747515190    0.0193479950    0.0003575002    
0.0749741800    0.0187126520    0.0003483270    
0.0751968410    0.0195279620    0.0003586283    
0.0754195020    0.0187139840    0.0003490176    
0.0756421630    0.0197347470    0.0003554801    
0.0758648240    0.0190447890    0.0003500502    
0.0760874850    0.0197721360    0.0003565007    
0.0763101460    0.0197598750    0.0003560482    
0.0765328070    0.0199371620    0.0003613014    
0.0767554680    0.0194866560    0.0003547723    
0.0769781290    0.0194931970    0.0003527928    
0.0772007900    0.0194142400    0.0003492538    
0.0774234510    0.0189557800    0.0003470684    
0.0776461120    0.0195223800    0.0003518831    
0.0778687730    0.0190533680    0.0003464822    
0.0780914340    0.0189367700    0.0003478885    
0.0783140950    0.0194671980    0.0003471308    
0.0785367560    0.0194928490    0.0003529599    
0.0787594170    0.0197037760    0.0003516850    
0.0789820780    0.0190550410    0.0003440749    
0.0792047390    0.0192799010    0.0003472306    
0.0794274000    0.0195319200    0.0003509735    
0.0796500610    0.0199750110    0.0003514680    
0.0798727220    0.0196542020    0.0003483124    
0.0800953830    0.0189187410    0.0003409474    
0.0803180440    0.0191334000    0.0003452648    
0.0805407050    0.0197072700    0.0003500784    
0.0807633660    0.0197265660    0.0003499246    
0.0809860270    0.0190943880    0.0003430007    
0.0812086880    0.0190504040    0.0003396447    
0.0814313490    0.0191634590    0.0003422046    
0.0816540100    0.0194230330    0.0003437301    
0.0818766710    0.0195973830    0.0003460578    
0.0820993320    0.0194651330    0.0003442596    
0.0823219930    0.0199575300    0.0003500244    
0.0825446540    0.0193539800    0.0003421867    
0.0827673150    0.0192858110    0.0003392887    
0.0829899760    0.0199368860    0.0003443541    
0.0832126370    0.0195277680    0.0003423291    
0.0834352980    0.0193987210    0.0003404332    
0.0836579590    0.0192589270    0.0003384493    
0.0838806200    0.0196370040    0.0003428247    
0.0841032810    0.0197722620    0.0003418679    
0.0843259420    0.0190690800    0.0003346998    
0.0845486030    0.0196918210    0.0003401213    
0.0847712640    0.0191043450    0.0003329678    
0.0849939250    0.0195669360    0.0003375617    
0.0852165860    0.0198459450    0.0003404052    
0.0854392470    0.0193286260    0.0003327579    
0.0856619080    0.0193411540    0.0003353173    
0.0858845690    0.0189315300    0.0003287596    
0.0861072300    0.0193500970    0.0003346686    
0.0863298910    0.0192432790    0.0003354912    
0.0865525520    0.0193722580    0.0003337070    
0.0867752130    0.0194059090    0.0003313017    
0.0869978740    0.0196470720    0.0003342035    
0.0872205350    0.0192285300    0.0003302039    
0.0874431960    0.0193986740    0.0003316618    
0.0876658570    0.0193136470    0.0003322048    
0.0878885180    0.0197640910    0.0003366326    
0.0881111790    0.0195418310    0.0003343049    
0.0883338400    0.0203008940    0.0003357469    
0.0885565010    0.0192180610    0.0003310999    
0.0887791620    0.0192452570    0.0003270374    
0.0890018230    0.0196657330    0.0003337973    
0.0892244840    0.0198065600    0.0003355598    
0.0894471450    0.0191378870    0.0003284537    
0.0896698060    0.0193126770    0.0003287056    
0.0898924670    0.0194017870    0.0003309902    
0.0901151280    0.0191175270    0.0003250077    
0.0903377890    0.0203995680    0.0003385383    
0.0905604500    0.0193944520    0.0003285780    
0.0907831110    0.0192592990    0.0003266165    
0.0910057720    0.0199004360    0.0003335321    
0.0912284330    0.0192586200    0.0003234117    
0.0914510940    0.0198404590    0.0003319214    
0.0916737550    0.0188635760    0.0003228437    
0.0918964160    0.0199512300    0.0003334015    
0.0921190770    0.0196631990    0.0003279934    
0.0923417380    0.0195698230    0.0003273480    
0.0925643990    0.0198228850    0.0003286514    
0.0927870600    0.0194199580    0.0003266281    
0.0930097210    0.0194254000    0.0003238916    
0.0932323820    0.0193832280    0.0003259182    
