# Diamond Light Source Ltd.
# Data extracted from: /dls/b21/data/2018/cm19678-3/processed/b21-386631_00237.dat
q(1/A)          Column          Error           
0.0035000000    2.1130679000    0.0247757500    
0.0037226610    1.8771973000    0.0228603750    
0.0039453220    1.6567590000    0.0195373060    
0.0041679830    1.2797229000    0.0141012560    
0.0043906440    0.9749172100    0.0117725080    
0.0046133050    0.8119878800    0.0103139200    
0.0048359660    0.6046090800    0.0084184861    
0.0050586270    0.4639617400    0.0072485175    
0.0052812880    0.4167783900    0.0064955324    
0.0055039490    0.3827625700    0.0059188516    
0.0057266100    0.3129985200    0.0051779519    
0.0059492710    0.2663143200    0.0047762181    
0.0061719320    0.2270090200    0.0042492877    
0.0063945930    0.2061461100    0.0040984052    
0.0066172539    0.1844214600    0.0036399760    
0.0068399149    0.1662698500    0.0034017738    
0.0070625759    0.1494455900    0.0031919997    
0.0072852369    0.1279392500    0.0029092133    
0.0075078979    0.1188244600    0.0027898909    
0.0077305589    0.0980782120    0.0024863814    
0.0079532199    0.0986275890    0.0024587841    
0.0081758809    0.0867960490    0.0023280513    
0.0083985419    0.0834906330    0.0021296136    
0.0086212029    0.0776783500    0.0020541491    
0.0088438639    0.0739767440    0.0019885072    
0.0090665249    0.0643710580    0.0017915442    
0.0092891859    0.0643698520    0.0018699213    
0.0095118469    0.0589271870    0.0017205477    
0.0097345079    0.0535935970    0.0015936084    
0.0099571689    0.0562240160    0.0015985897    
0.0101798300    0.0500425650    0.0015081547    
0.0104024910    0.0492981450    0.0014918297    
0.0106251520    0.0508152660    0.0015197540    
0.0108478130    0.0445716440    0.0013861122    
0.0110704740    0.0432925880    0.0013005998    
0.0112931350    0.0418572480    0.0012826137    
0.0115157960    0.0421474560    0.0012795478    
0.0117384570    0.0395159540    0.0012282939    
0.0119611180    0.0392054780    0.0012269698    
0.0121837790    0.0357457260    0.0011518899    
0.0124064400    0.0368161290    0.0011202791    
0.0126291010    0.0360665180    0.0010949376    
0.0128517620    0.0327390990    0.0010458121    
0.0130744230    0.0340984360    0.0010593869    
0.0132970840    0.0317124520    0.0010166545    
0.0135197450    0.0306206890    0.0009846950    
0.0137424060    0.0322064600    0.0009958115    
0.0139650670    0.0312586210    0.0009591964    
0.0141877280    0.0300369990    0.0009423444    
0.0144103890    0.0299238040    0.0009243494    
0.0146330500    0.0289248090    0.0009030189    
0.0148557110    0.0286268560    0.0008945893    
0.0150783720    0.0282656230    0.0008815806    
0.0153010330    0.0291311960    0.0008823585    
0.0155236940    0.0272540550    0.0008483817    
0.0157463550    0.0278479620    0.0008427177    
0.0159690160    0.0264728040    0.0008185291    
0.0161916770    0.0247990310    0.0007877672    
0.0164143380    0.0274372420    0.0008348887    
0.0166369990    0.0253418930    0.0007776368    
0.0168596600    0.0264445960    0.0007873764    
0.0170823210    0.0262881780    0.0007782474    
0.0173049820    0.0253156590    0.0007650366    
0.0175276430    0.0245066540    0.0007606508    
0.0177503040    0.0241923700    0.0007364914    
0.0179729650    0.0226379450    0.0007053723    
0.0181956260    0.0243578480    0.0007176500    
0.0184182870    0.0229139680    0.0006927741    
0.0186409480    0.0223777130    0.0006889528    
0.0188636090    0.0239402950    0.0007081192    
0.0190862700    0.0232599780    0.0006968940    
0.0193089310    0.0220843480    0.0006779956    
0.0195315920    0.0228414290    0.0006660696    
0.0197542530    0.0238430510    0.0006815083    
0.0199769140    0.0226742820    0.0006645950    
0.0201995750    0.0223094600    0.0006489038    
0.0204222360    0.0224637170    0.0006567328    
0.0206448970    0.0215966360    0.0006393568    
0.0208675580    0.0221506940    0.0006341725    
0.0210902190    0.0220064570    0.0006382035    
0.0213128800    0.0209810710    0.0006147021    
0.0215355410    0.0221193750    0.0006236380    
0.0217582020    0.0212402350    0.0006111191    
0.0219808630    0.0220788730    0.0006222487    
0.0222035240    0.0219044170    0.0006141694    
0.0224261850    0.0222436040    0.0006133979    
0.0226488460    0.0215942090    0.0005998391    
0.0228715070    0.0216860040    0.0005996194    
0.0230941680    0.0227802610    0.0006145615    
0.0233168290    0.0206944750    0.0005872102    
0.0235394900    0.0206639230    0.0005803008    
0.0237621510    0.0213254250    0.0005736456    
0.0239848120    0.0214830650    0.0005764281    
0.0242074730    0.0211405190    0.0005672370    
0.0244301340    0.0210057380    0.0005660711    
0.0246527950    0.0212722440    0.0005749255    
0.0248754560    0.0211583040    0.0005604972    
0.0250981170    0.0221327090    0.0005745365    
0.0253207780    0.0210273110    0.0005432851    
0.0255434390    0.0205035570    0.0005422021    
0.0257661000    0.0210837810    0.0005515989    
0.0259887610    0.0211607060    0.0005467317    
0.0262114220    0.0208014390    0.0005449587    
0.0264340830    0.0211004920    0.0005413943    
0.0266567440    0.0207307770    0.0005333144    
0.0268794050    0.0202489140    0.0005249286    
0.0271020660    0.0210166700    0.0005326226    
0.0273247270    0.0206582920    0.0005248905    
0.0275473880    0.0198987020    0.0005141251    
0.0277700490    0.0200973380    0.0005136307    
0.0279927100    0.0202125260    0.0005106062    
0.0282153710    0.0205788590    0.0005177174    
0.0284380320    0.0205212000    0.0005139946    
0.0286606930    0.0202346900    0.0005060254    
0.0288833540    0.0211373140    0.0005181711    
0.0291060150    0.0201082840    0.0005049210    
0.0293286760    0.0206982720    0.0005051365    
0.0295513370    0.0205755840    0.0004981529    
0.0297739980    0.0204640660    0.0005022708    
0.0299966590    0.0208548300    0.0004983834    
0.0302193200    0.0197016670    0.0004914678    
0.0304419810    0.0203279710    0.0005001370    
0.0306646420    0.0208467640    0.0004921839    
0.0308873030    0.0216693110    0.0004996325    
0.0311099640    0.0199291880    0.0004803958    
0.0313326250    0.0199770500    0.0004756441    
0.0315552860    0.0201960740    0.0004844423    
0.0317779470    0.0198122100    0.0004802343    
0.0320006080    0.0194113290    0.0004645507    
0.0322232690    0.0209979680    0.0004851861    
0.0324459300    0.0209617170    0.0004811481    
0.0326685910    0.0194616580    0.0004628483    
0.0328912520    0.0198345450    0.0004688088    
0.0331139130    0.0209734040    0.0004758089    
0.0333365740    0.0202732580    0.0004693186    
0.0335592350    0.0200664280    0.0004624288    
0.0337818960    0.0204707130    0.0004666921    
0.0340045570    0.0206708860    0.0004682235    
0.0342272170    0.0201714190    0.0004607076    
0.0344498780    0.0199072860    0.0004594941    
0.0346725390    0.0197080240    0.0004487216    
0.0348952000    0.0200046920    0.0004500268    
0.0351178610    0.0203823520    0.0004563340    
0.0353405220    0.0204197950    0.0004546722    
0.0355631830    0.0199447480    0.0004476600    
0.0357858440    0.0188897480    0.0004356595    
0.0360085050    0.0198026450    0.0004474103    
0.0362311660    0.0199959150    0.0004442440    
0.0364538270    0.0201715300    0.0004426094    
0.0366764880    0.0197058680    0.0004371532    
0.0368991490    0.0196996940    0.0004348814    
0.0371218100    0.0202457690    0.0004396063    
0.0373444710    0.0195185900    0.0004363399    
0.0375671320    0.0204246570    0.0004457026    
0.0377897930    0.0190024800    0.0004187763    
0.0380124540    0.0189426400    0.0004207398    
0.0382351150    0.0200640730    0.0004330151    
0.0384577760    0.0197612600    0.0004255888    
0.0386804370    0.0196731650    0.0004278798    
0.0389030980    0.0199812640    0.0004279516    
0.0391257590    0.0204342310    0.0004298373    
0.0393484200    0.0193808630    0.0004172030    
0.0395710810    0.0200634760    0.0004250584    
0.0397937420    0.0194511400    0.0004185219    
0.0400164030    0.0201090440    0.0004272721    
0.0402390640    0.0199836390    0.0004202660    
0.0404617250    0.0195913320    0.0004136655    
0.0406843860    0.0199256070    0.0004131490    
0.0409070470    0.0192409310    0.0004102180    
0.0411297080    0.0194966080    0.0004089398    
0.0413523690    0.0206749690    0.0004222020    
0.0415750300    0.0199842140    0.0004186151    
0.0417976910    0.0192384610    0.0004001072    
0.0420203520    0.0194922960    0.0004042514    
0.0422430130    0.0200287460    0.0004113277    
0.0424656740    0.0193873420    0.0003994207    
0.0426883350    0.0197049280    0.0004046775    
0.0429109960    0.0199955090    0.0004089241    
0.0431336570    0.0205090450    0.0004083070    
0.0433563180    0.0199547500    0.0004062259    
0.0435789790    0.0202300050    0.0004025922    
0.0438016400    0.0202401310    0.0004048836    
0.0440243010    0.0203393870    0.0004017571    
0.0442469620    0.0199413740    0.0004001905    
0.0444696230    0.0191607180    0.0003908723    
0.0446922840    0.0201488540    0.0003996341    
0.0449149450    0.0198683620    0.0003915376    
0.0451376060    0.0195160320    0.0003928429    
0.0453602670    0.0196509810    0.0003900663    
0.0455829280    0.0187558320    0.0003806379    
0.0458055890    0.0200458910    0.0003958054    
0.0460282500    0.0190695470    0.0003813909    
0.0462509110    0.0194507990    0.0003827889    
0.0464735720    0.0203249850    0.0003915172    
0.0466962330    0.0195741090    0.0003859638    
0.0469188940    0.0206286620    0.0003951010    
0.0471415550    0.0197478240    0.0003885591    
0.0473642160    0.0198453240    0.0003840631    
0.0475868770    0.0196412770    0.0003801854    
0.0478095380    0.0188642880    0.0003709592    
0.0480321990    0.0203024960    0.0003856836    
0.0482548600    0.0191890330    0.0003733247    
0.0484775210    0.0192682510    0.0003778089    
0.0487001820    0.0194347290    0.0003738831    
0.0489228430    0.0194928830    0.0003742408    
0.0491455040    0.0201807780    0.0003781533    
0.0493681650    0.0193397530    0.0003733710    
0.0495908260    0.0201367610    0.0003745766    
0.0498134870    0.0194710150    0.0003718389    
0.0500361480    0.0197212950    0.0003732310    
0.0502588090    0.0194774000    0.0003653583    
0.0504814700    0.0198282050    0.0003734529    
0.0507041310    0.0201698850    0.0003721786    
0.0509267920    0.0194507850    0.0003669959    
0.0511494530    0.0199506520    0.0003692034    
0.0513721140    0.0195665470    0.0003688520    
0.0515947750    0.0196672150    0.0003648966    
0.0518174360    0.0193172800    0.0003594574    
0.0520400970    0.0192877960    0.0003566925    
0.0522627580    0.0199323450    0.0003656849    
0.0524854190    0.0206464450    0.0003752039    
0.0527080800    0.0198040780    0.0003703152    
0.0529307410    0.0201582890    0.0003753670    
0.0531534020    0.0199007560    0.0003716037    
0.0533760630    0.0204165590    0.0003775669    
0.0535987240    0.0204615530    0.0003762179    
0.0538213850    0.0197917010    0.0003742954    
0.0540440460    0.0193734230    0.0003685665    
0.0542667070    0.0193001540    0.0003704042    
0.0544893680    0.0197548200    0.0003749414    
0.0547120290    0.0189235480    0.0003644539    
0.0549346900    0.0199763620    0.0003746519    
0.0551573510    0.0193201620    0.0003727844    
0.0553800120    0.0199618120    0.0003757029    
0.0556026730    0.0196562140    0.0003805458    
0.0558253340    0.0201965310    0.0003889707    
0.0560479950    0.0199568300    0.0003866557    
0.0562706560    0.0191837810    0.0003827581    
0.0564933170    0.0197281930    0.0003915218    
0.0567159780    0.0196372030    0.0003859345    
0.0569386390    0.0192017410    0.0003876175    
0.0571613000    0.0195898540    0.0003830852    
0.0573839610    0.0200394790    0.0003842395    
0.0576066220    0.0200320510    0.0003852317    
0.0578292830    0.0196274050    0.0003800593    
0.0580519440    0.0194165020    0.0003794776    
0.0582746050    0.0196058520    0.0003796420    
0.0584972660    0.0195071120    0.0003772352    
0.0587199270    0.0196526270    0.0003753757    
0.0589425880    0.0198769220    0.0003753036    
0.0591652490    0.0197745570    0.0003765387    
0.0593879100    0.0198139290    0.0003741142    
0.0596105710    0.0195324860    0.0003710558    
0.0598332320    0.0197674500    0.0003764716    
0.0600558930    0.0188012330    0.0003648147    
0.0602785540    0.0199552890    0.0003754471    
0.0605012150    0.0197798450    0.0003730055    
0.0607238760    0.0201372770    0.0003736179    
0.0609465370    0.0192867000    0.0003685207    
0.0611691980    0.0194750340    0.0003709026    
0.0613918590    0.0194943910    0.0003670355    
0.0616145200    0.0192268470    0.0003671761    
0.0618371810    0.0199785220    0.0003706086    
0.0620598420    0.0198406200    0.0003697081    
0.0622825030    0.0188826820    0.0003661883    
0.0625051640    0.0200542410    0.0003720773    
0.0627278250    0.0194286140    0.0003654734    
0.0629504860    0.0193101470    0.0003613953    
0.0631731470    0.0190214650    0.0003631215    
0.0633958080    0.0197318850    0.0003719688    
0.0636184690    0.0199176930    0.0003789209    
0.0638411300    0.0200403170    0.0003786588    
0.0640637910    0.0191768110    0.0003730163    
0.0642864520    0.0199319290    0.0003794665    
0.0645091130    0.0193123910    0.0003767958    
0.0647317740    0.0193623660    0.0003776989    
0.0649544350    0.0202534300    0.0003858671    
0.0651770960    0.0195895040    0.0003774198    
0.0653997570    0.0195770320    0.0003764814    
0.0656224180    0.0191896140    0.0003735481    
0.0658450790    0.0193130220    0.0003693609    
0.0660677400    0.0201616920    0.0003789952    
0.0662904010    0.0194130280    0.0003763317    
0.0665130620    0.0193679210    0.0003742637    
0.0667357230    0.0193360640    0.0003806046    
0.0669583840    0.0198245490    0.0003840928    
0.0671810450    0.0193633710    0.0003775031    
0.0674037060    0.0189213920    0.0003794919    
0.0676263670    0.0191778540    0.0003792579    
0.0678490280    0.0196181910    0.0003812413    
0.0680716890    0.0195716500    0.0003816362    
0.0682943500    0.0197422010    0.0003790973    
0.0685170110    0.0203689060    0.0003811436    
0.0687396720    0.0199415800    0.0003761224    
0.0689623330    0.0187862040    0.0003639070    
0.0691849940    0.0192189600    0.0003706248    
0.0694076550    0.0195839900    0.0003739282    
0.0696303160    0.0201534950    0.0003763230    
0.0698529770    0.0195093000    0.0003694837    
0.0700756380    0.0181865270    0.0003521586    
0.0702982990    0.0194558490    0.0003682074    
0.0705209600    0.0193407680    0.0003644663    
0.0707436210    0.0193608870    0.0003629812    
0.0709662820    0.0198391870    0.0003718178    
0.0711889430    0.0188449620    0.0003579305    
0.0714116040    0.0201848130    0.0003711924    
0.0716342650    0.0192358220    0.0003608902    
0.0718569260    0.0196655100    0.0003634291    
0.0720795870    0.0199264930    0.0003673125    
0.0723022480    0.0194575370    0.0003635177    
0.0725249090    0.0201743850    0.0003657205    
0.0727475700    0.0192257380    0.0003600679    
0.0729702310    0.0196436530    0.0003610575    
0.0731928920    0.0196872630    0.0003629027    
0.0734155530    0.0200618490    0.0003656079    
0.0736382140    0.0196144270    0.0003591880    
0.0738608750    0.0200752270    0.0003657303    
0.0740835360    0.0192596520    0.0003573349    
0.0743061970    0.0193848520    0.0003534464    
0.0745288580    0.0197658160    0.0003605724    
0.0747515190    0.0191902070    0.0003559851    
0.0749741800    0.0192579090    0.0003533115    
0.0751968410    0.0198051210    0.0003611092    
0.0754195020    0.0193394740    0.0003547482    
0.0756421630    0.0187109220    0.0003460834    
0.0758648240    0.0198172610    0.0003570243    
0.0760874850    0.0192263260    0.0003514920    
0.0763101460    0.0193882710    0.0003526306    
0.0765328070    0.0202387170    0.0003639680    
0.0767554680    0.0192482580    0.0003525417    
0.0769781290    0.0192766100    0.0003507738    
0.0772007900    0.0201871610    0.0003560839    
0.0774234510    0.0197186680    0.0003539295    
0.0776461120    0.0194086320    0.0003508030    
0.0778687730    0.0194758720    0.0003502492    
0.0780914340    0.0197935240    0.0003556169    
0.0783140950    0.0195293260    0.0003476312    
0.0785367560    0.0203047120    0.0003601802    
0.0787594170    0.0190263200    0.0003455335    
0.0789820780    0.0195771640    0.0003487038    
0.0792047390    0.0190114460    0.0003447521    
0.0794274000    0.0196646650    0.0003521104    
0.0796500610    0.0190353850    0.0003430495    
0.0798727220    0.0194198810    0.0003461770    
0.0800953830    0.0198036410    0.0003487767    
0.0803180440    0.0194016130    0.0003476233    
0.0805407050    0.0189676650    0.0003433941    
0.0807633660    0.0196709030    0.0003493773    
0.0809860270    0.0193534240    0.0003452667    
0.0812086880    0.0196620570    0.0003450015    
0.0814313490    0.0195119300    0.0003452493    
0.0816540100    0.0195144040    0.0003444851    
0.0818766710    0.0197991070    0.0003477812    
0.0820993320    0.0197757010    0.0003469421    
0.0823219930    0.0195954930    0.0003467822    
0.0825446540    0.0200919990    0.0003485967    
0.0827673150    0.0196260220    0.0003422160    
0.0829899760    0.0196335050    0.0003416719    
0.0832126370    0.0196118000    0.0003430125    
0.0834352980    0.0190882030    0.0003376460    
0.0836579590    0.0200379180    0.0003451737    
0.0838806200    0.0192241520    0.0003391500    
0.0841032810    0.0194412230    0.0003389422    
0.0843259420    0.0192100820    0.0003358837    
0.0845486030    0.0190632890    0.0003345982    
0.0847712640    0.0194988180    0.0003363365    
0.0849939250    0.0194969270    0.0003369059    
0.0852165860    0.0195188550    0.0003375369    
0.0854392470    0.0190192000    0.0003300333    
0.0856619080    0.0198292400    0.0003394701    
0.0858845690    0.0196106420    0.0003345532    
0.0861072300    0.0190432950    0.0003319542    
0.0863298910    0.0189859760    0.0003331899    
0.0865525520    0.0192571600    0.0003326634    
0.0867752130    0.0198806040    0.0003352781    
0.0869978740    0.0190613920    0.0003291343    
0.0872205350    0.0201523340    0.0003379913    
0.0874431960    0.0192963860    0.0003307358    
0.0876658570    0.0195191100    0.0003339162    
0.0878885180    0.0195459780    0.0003347189    
0.0881111790    0.0198503170    0.0003368818    
0.0883338400    0.0193843250    0.0003280300    
0.0885565010    0.0196398940    0.0003346629    
0.0887791620    0.0194171670    0.0003284447    
0.0890018230    0.0194558280    0.0003319605    
0.0892244840    0.0196584340    0.0003342517    
0.0894471450    0.0192447550    0.0003293192    
0.0896698060    0.0193794920    0.0003292235    
0.0898924670    0.0193055480    0.0003301179    
0.0901151280    0.0193878740    0.0003272477    
0.0903377890    0.0199103280    0.0003344031    
0.0905604500    0.0196222650    0.0003304517    
0.0907831110    0.0191869740    0.0003259529    
0.0910057720    0.0192293550    0.0003278101    
0.0912284330    0.0194101960    0.0003246324    
0.0914510940    0.0192015690    0.0003264836    
0.0916737550    0.0193825690    0.0003272048    
0.0918964160    0.0197613410    0.0003317604    
0.0921190770    0.0195259320    0.0003267967    
0.0923417380    0.0194324770    0.0003261474    
0.0925643990    0.0193265900    0.0003244617    
0.0927870600    0.0196886290    0.0003288296    
0.0930097210    0.0198621730    0.0003274627    
0.0932323820    0.0191143480    0.0003236004    
