# Diamond Light Source Ltd.
# Data extracted from: /dls/b21/data/2018/cm19678-3/processed/b21-386631_00252.dat
q(1/A)          Column          Error           
0.0035000000    2.0662148000    0.0245042080    
0.0037226610    1.8720653000    0.0228334600    
0.0039453220    1.6269677000    0.0193645470    
0.0041679830    1.2884497000    0.0141519540    
0.0043906440    0.9839641900    0.0118292610    
0.0046133050    0.7809748800    0.0101169680    
0.0048359660    0.6039017200    0.0084151653    
0.0050586270    0.4754675500    0.0073392453    
0.0052812880    0.4375969600    0.0066570553    
0.0055039490    0.3896841700    0.0059732674    
0.0057266100    0.3195448600    0.0052328182    
0.0059492710    0.2730142200    0.0048368474    
0.0061719320    0.2255838100    0.0042367359    
0.0063945930    0.2013340800    0.0040510613    
0.0066172539    0.1863604700    0.0036597595    
0.0068399149    0.1648711800    0.0033880820    
0.0070625759    0.1526400000    0.0032265494    
0.0072852369    0.1307013700    0.0029410106    
0.0075078979    0.1135619500    0.0027279322    
0.0077305589    0.1021512500    0.0025379681    
0.0079532199    0.1014859900    0.0024946354    
0.0081758809    0.0895152550    0.0023646886    
0.0083985419    0.0857504870    0.0021586543    
0.0086212029    0.0765668280    0.0020397886    
0.0088438639    0.0731494270    0.0019777340    
0.0090665249    0.0667898840    0.0018252418    
0.0092891859    0.0608622340    0.0018186071    
0.0095118469    0.0577435440    0.0017035050    
0.0097345079    0.0571693590    0.0016462268    
0.0099571689    0.0549268640    0.0015803429    
0.0101798300    0.0529716950    0.0015519614    
0.0104024910    0.0475104760    0.0014648107    
0.0106251520    0.0493341720    0.0014977281    
0.0108478130    0.0468741460    0.0014217348    
0.0110704740    0.0442081260    0.0013145309    
0.0112931350    0.0429741150    0.0012998608    
0.0115157960    0.0389381270    0.0012301022    
0.0117384570    0.0374685460    0.0011962786    
0.0119611180    0.0395277500    0.0012322374    
0.0121837790    0.0370961670    0.0011736708    
0.0124064400    0.0361822410    0.0011108049    
0.0126291010    0.0359805210    0.0010938400    
0.0128517620    0.0337207730    0.0010615781    
0.0130744230    0.0339468180    0.0010572306    
0.0132970840    0.0321810230    0.0010243332    
0.0135197450    0.0316777400    0.0010017381    
0.0137424060    0.0303706390    0.0009671982    
0.0139650670    0.0307994310    0.0009523067    
0.0141877280    0.0304625150    0.0009491769    
0.0144103890    0.0302494290    0.0009295424    
0.0146330500    0.0288794430    0.0009024826    
0.0148557110    0.0284140480    0.0008914280    
0.0150783720    0.0275612480    0.0008706929    
0.0153010330    0.0278589830    0.0008630409    
0.0155236940    0.0296685890    0.0008853337    
0.0157463550    0.0263023860    0.0008191545    
0.0159690160    0.0263816340    0.0008172743    
0.0161916770    0.0263605910    0.0008123458    
0.0164143380    0.0250079160    0.0007972232    
0.0166369990    0.0260438390    0.0007884835    
0.0168596600    0.0248833550    0.0007639259    
0.0170823210    0.0264825970    0.0007812689    
0.0173049820    0.0248858860    0.0007586596    
0.0175276430    0.0258858790    0.0007819116    
0.0177503040    0.0236408610    0.0007281871    
0.0179729650    0.0235920250    0.0007202203    
0.0181956260    0.0235422140    0.0007056669    
0.0184182870    0.0242427590    0.0007127141    
0.0186409480    0.0242323230    0.0007170708    
0.0188636090    0.0236770400    0.0007043495    
0.0190862700    0.0239999230    0.0007080270    
0.0193089310    0.0227174540    0.0006877764    
0.0195315920    0.0223255250    0.0006586302    
0.0197542530    0.0225465180    0.0006628463    
0.0199769140    0.0223711430    0.0006602634    
0.0201995750    0.0216571200    0.0006394683    
0.0204222360    0.0234326440    0.0006708747    
0.0206448970    0.0221729280    0.0006479546    
0.0208675580    0.0226858810    0.0006419104    
0.0210902190    0.0219407940    0.0006373723    
0.0213128800    0.0211151930    0.0006167814    
0.0215355410    0.0220398680    0.0006226349    
0.0217582020    0.0212307510    0.0006110992    
0.0219808630    0.0217890590    0.0006182693    
0.0222035240    0.0217060520    0.0006114987    
0.0224261850    0.0208983530    0.0005946735    
0.0226488460    0.0222025180    0.0006083452    
0.0228715070    0.0209479180    0.0005894394    
0.0230941680    0.0232533590    0.0006210287    
0.0233168290    0.0213857840    0.0005970516    
0.0235394900    0.0207370190    0.0005814372    
0.0237621510    0.0211328860    0.0005711591    
0.0239848120    0.0222339420    0.0005865271    
0.0242074730    0.0215901350    0.0005733466    
0.0244301340    0.0211663600    0.0005683396    
0.0246527950    0.0217156070    0.0005809968    
0.0248754560    0.0209287210    0.0005575543    
0.0250981170    0.0218278370    0.0005706746    
0.0253207780    0.0204315180    0.0005356352    
0.0255434390    0.0200093550    0.0005357300    
0.0257661000    0.0216259810    0.0005587530    
0.0259887610    0.0214514090    0.0005505794    
0.0262114220    0.0213092590    0.0005516758    
0.0264340830    0.0209973740    0.0005401728    
0.0266567440    0.0203818350    0.0005289079    
0.0268794050    0.0202294150    0.0005247759    
0.0271020660    0.0204980610    0.0005261104    
0.0273247270    0.0210130580    0.0005294793    
0.0275473880    0.0205840140    0.0005230032    
0.0277700490    0.0206040220    0.0005201643    
0.0279927100    0.0205041230    0.0005143743    
0.0282153710    0.0211600130    0.0005250769    
0.0284380320    0.0205676680    0.0005146744    
0.0286606930    0.0204829410    0.0005092172    
0.0288833540    0.0209039370    0.0005154009    
0.0291060150    0.0206106130    0.0005112864    
0.0293286760    0.0204595220    0.0005023105    
0.0295513370    0.0201249540    0.0004927616    
0.0297739980    0.0199169160    0.0004956052    
0.0299966590    0.0205410890    0.0004947147    
0.0302193200    0.0204818540    0.0005012000    
0.0304419810    0.0208035000    0.0005060496    
0.0306646420    0.0203664820    0.0004865741    
0.0308873030    0.0207786700    0.0004893503    
0.0311099640    0.0200873910    0.0004823908    
0.0313326250    0.0195541650    0.0004706726    
0.0315552860    0.0197969160    0.0004797226    
0.0317779470    0.0204020210    0.0004874231    
0.0320006080    0.0198524890    0.0004698896    
0.0322232690    0.0199966180    0.0004735664    
0.0324459300    0.0196660140    0.0004661292    
0.0326685910    0.0204931940    0.0004750469    
0.0328912520    0.0204185330    0.0004757510    
0.0331139130    0.0205494700    0.0004710654    
0.0333365740    0.0206070560    0.0004732567    
0.0335592350    0.0206817450    0.0004695548    
0.0337818960    0.0202975820    0.0004648030    
0.0340045570    0.0202862070    0.0004639348    
0.0342272170    0.0198317460    0.0004568993    
0.0344498780    0.0205408700    0.0004668380    
0.0346725390    0.0197053240    0.0004487765    
0.0348952000    0.0199211770    0.0004491722    
0.0351178610    0.0199404230    0.0004514459    
0.0353405220    0.0193337950    0.0004425009    
0.0355631830    0.0195301940    0.0004430678    
0.0357858440    0.0199724750    0.0004480567    
0.0360085050    0.0193955940    0.0004428726    
0.0362311660    0.0187298750    0.0004300324    
0.0364538270    0.0202180910    0.0004432044    
0.0366764880    0.0202857750    0.0004436235    
0.0368991490    0.0200241410    0.0004385316    
0.0371218100    0.0200434170    0.0004374874    
0.0373444710    0.0201408020    0.0004433247    
0.0375671320    0.0202183980    0.0004435310    
0.0377897930    0.0203946080    0.0004339278    
0.0380124540    0.0197258140    0.0004294313    
0.0382351150    0.0198941040    0.0004312594    
0.0384577760    0.0196587710    0.0004245648    
0.0386804370    0.0193455240    0.0004243828    
0.0389030980    0.0195671060    0.0004235741    
0.0391257590    0.0198088690    0.0004232896    
0.0393484200    0.0197116960    0.0004208290    
0.0395710810    0.0204134590    0.0004288315    
0.0397937420    0.0204945510    0.0004296825    
0.0400164030    0.0200713080    0.0004269525    
0.0402390640    0.0201327340    0.0004219114    
0.0404617250    0.0200094840    0.0004181366    
0.0406843860    0.0203274190    0.0004173735    
0.0409070470    0.0198082240    0.0004163009    
0.0411297080    0.0193924990    0.0004079243    
0.0413523690    0.0201481070    0.0004168673    
0.0415750300    0.0195444580    0.0004140626    
0.0417976910    0.0192458030    0.0004002599    
0.0420203520    0.0202545630    0.0004121586    
0.0422430130    0.0199687850    0.0004107899    
0.0424656740    0.0195593820    0.0004012656    
0.0426883350    0.0190057590    0.0003975091    
0.0429109960    0.0195932050    0.0004048667    
0.0431336570    0.0188986170    0.0003920234    
0.0433563180    0.0189199880    0.0003956287    
0.0435789790    0.0194442470    0.0003947714    
0.0438016400    0.0198346340    0.0004008838    
0.0440243010    0.0201963120    0.0004004179    
0.0442469620    0.0207283040    0.0004080881    
0.0444696230    0.0191281470    0.0003906145    
0.0446922840    0.0199503790    0.0003977368    
0.0449149450    0.0203159160    0.0003959984    
0.0451376060    0.0204490250    0.0004022002    
0.0453602670    0.0196894630    0.0003905225    
0.0455829280    0.0203471800    0.0003965325    
0.0458055890    0.0199831780    0.0003952612    
0.0460282500    0.0197254360    0.0003879684    
0.0462509110    0.0200837190    0.0003890411    
0.0464735720    0.0203402870    0.0003917393    
0.0466962330    0.0197033930    0.0003873101    
0.0469188940    0.0193344490    0.0003825792    
0.0471415550    0.0198241940    0.0003893839    
0.0473642160    0.0204403060    0.0003898522    
0.0475868770    0.0191702520    0.0003756707    
0.0478095380    0.0196596240    0.0003787707    
0.0480321990    0.0197385370    0.0003803617    
0.0482548600    0.0193707370    0.0003751596    
0.0484775210    0.0195127510    0.0003802709    
0.0487001820    0.0196148370    0.0003756832    
0.0489228430    0.0199531490    0.0003787056    
0.0491455040    0.0188061920    0.0003651172    
0.0493681650    0.0193255010    0.0003733046    
0.0495908260    0.0195171100    0.0003688387    
0.0498134870    0.0189243540    0.0003666519    
0.0500361480    0.0198065490    0.0003741082    
0.0502588090    0.0196562340    0.0003671018    
0.0504814700    0.0194909850    0.0003703343    
0.0507041310    0.0198065950    0.0003688820    
0.0509267920    0.0191880510    0.0003645784    
0.0511494530    0.0192474230    0.0003627073    
0.0513721140    0.0195253230    0.0003685335    
0.0515947750    0.0191599940    0.0003602292    
0.0518174360    0.0198465790    0.0003644182    
0.0520400970    0.0192159700    0.0003560956    
0.0522627580    0.0201278750    0.0003675443    
0.0524854190    0.0191809640    0.0003617119    
0.0527080800    0.0198739800    0.0003710390    
0.0529307410    0.0196695240    0.0003708591    
0.0531534020    0.0193322020    0.0003663268    
0.0533760630    0.0192089480    0.0003663003    
0.0535987240    0.0194036810    0.0003664335    
0.0538213850    0.0191123700    0.0003678859    
0.0540440460    0.0197946660    0.0003726230    
0.0542667070    0.0197697620    0.0003749549    
0.0544893680    0.0195772650    0.0003733238    
0.0547120290    0.0202649110    0.0003772216    
0.0549346900    0.0202300070    0.0003770949    
0.0551573510    0.0199247750    0.0003786448    
0.0553800120    0.0200047990    0.0003761790    
0.0556026730    0.0196121240    0.0003801913    
0.0558253340    0.0199344490    0.0003865124    
0.0560479950    0.0190501580    0.0003778425    
0.0562706560    0.0191223440    0.0003822176    
0.0564933170    0.0192926590    0.0003872498    
0.0567159780    0.0198040400    0.0003876444    
0.0569386390    0.0190368610    0.0003860233    
0.0571613000    0.0195373770    0.0003826447    
0.0573839610    0.0198186490    0.0003821894    
0.0576066220    0.0197432500    0.0003825177    
0.0578292830    0.0198704840    0.0003824785    
0.0580519440    0.0193793960    0.0003791872    
0.0582746050    0.0196942290    0.0003805693    
0.0584972660    0.0197043010    0.0003792095    
0.0587199270    0.0193732230    0.0003727688    
0.0589425880    0.0199908420    0.0003764493    
0.0591652490    0.0195310610    0.0003742847    
0.0593879100    0.0191360410    0.0003677289    
0.0596105710    0.0188770910    0.0003648471    
0.0598332320    0.0201192810    0.0003798796    
0.0600558930    0.0198564670    0.0003749842    
0.0602785540    0.0193198520    0.0003694916    
0.0605012150    0.0199210920    0.0003744063    
0.0607238760    0.0196040650    0.0003687086    
0.0609465370    0.0198646410    0.0003740728    
0.0611691980    0.0197227280    0.0003733250    
0.0613918590    0.0190317400    0.0003627232    
0.0616145200    0.0196761080    0.0003715119    
0.0618371810    0.0195322280    0.0003665157    
0.0620598420    0.0201583200    0.0003727275    
0.0622825030    0.0194795310    0.0003720016    
0.0625051640    0.0193160480    0.0003652347    
0.0627278250    0.0198830710    0.0003697936    
0.0629504860    0.0194054770    0.0003623554    
0.0631731470    0.0188137500    0.0003612023    
0.0633958080    0.0191852530    0.0003668503    
0.0636184690    0.0197377960    0.0003772778    
0.0638411300    0.0188097300    0.0003669187    
0.0640637910    0.0196631880    0.0003777891    
0.0642864520    0.0197371770    0.0003776802    
0.0645091130    0.0198713340    0.0003822824    
0.0647317740    0.0198193580    0.0003822031    
0.0649544350    0.0192830340    0.0003765815    
0.0651770960    0.0191532470    0.0003732648    
0.0653997570    0.0204898520    0.0003852320    
0.0656224180    0.0199243700    0.0003807050    
0.0658450790    0.0199139960    0.0003751353    
0.0660677400    0.0182664800    0.0003608117    
0.0662904010    0.0196758730    0.0003789432    
0.0665130620    0.0197732370    0.0003782317    
0.0667357230    0.0196732030    0.0003839816    
0.0669583840    0.0193780010    0.0003798148    
0.0671810450    0.0193486720    0.0003774318    
0.0674037060    0.0194920550    0.0003852456    
0.0676263670    0.0193877540    0.0003814005    
0.0678490280    0.0189956990    0.0003752157    
0.0680716890    0.0199364570    0.0003852500    
0.0682943500    0.0190142170    0.0003721131    
0.0685170110    0.0196988840    0.0003748939    
0.0687396720    0.0198782220    0.0003755960    
0.0689623330    0.0193786830    0.0003696714    
0.0691849940    0.0197982930    0.0003762411    
0.0694076550    0.0189843640    0.0003682295    
0.0696303160    0.0198940580    0.0003739643    
0.0698529770    0.0198107560    0.0003723984    
0.0700756380    0.0192167220    0.0003620644    
0.0702982990    0.0197560590    0.0003711081    
0.0705209600    0.0191420260    0.0003626581    
0.0707436210    0.0200354430    0.0003693208    
0.0709662820    0.0193796930    0.0003675568    
0.0711889430    0.0198382870    0.0003673127    
0.0714116040    0.0195164730    0.0003650650    
0.0716342650    0.0200762880    0.0003687604    
0.0718569260    0.0194512900    0.0003615132    
0.0720795870    0.0195141480    0.0003635616    
0.0723022480    0.0195736670    0.0003646704    
0.0725249090    0.0196249710    0.0003607751    
0.0727475700    0.0195366480    0.0003630369    
0.0729702310    0.0188544810    0.0003537980    
0.0731928920    0.0198821540    0.0003647641    
0.0734155530    0.0195829310    0.0003612866    
0.0736382140    0.0200167200    0.0003629220    
0.0738608750    0.0197096250    0.0003624538    
0.0740835360    0.0194925030    0.0003595571    
0.0743061970    0.0190312240    0.0003502745    
0.0745288580    0.0196220160    0.0003593270    
0.0747515190    0.0188209790    0.0003526111    
0.0749741800    0.0191809610    0.0003526722    
0.0751968410    0.0196743600    0.0003599838    
0.0754195020    0.0190864660    0.0003524874    
0.0756421630    0.0192879940    0.0003514468    
0.0758648240    0.0191620650    0.0003511397    
0.0760874850    0.0188993880    0.0003485572    
0.0763101460    0.0192352690    0.0003513035    
0.0765328070    0.0193755560    0.0003561900    
0.0767554680    0.0202051420    0.0003612672    
0.0769781290    0.0194883000    0.0003527619    
0.0772007900    0.0193403220    0.0003486016    
0.0774234510    0.0194974100    0.0003520053    
0.0776461120    0.0197078190    0.0003535639    
0.0778687730    0.0196597380    0.0003519658    
0.0780914340    0.0197243790    0.0003550630    
0.0783140950    0.0200320070    0.0003521439    
0.0785367560    0.0197627840    0.0003554090    
0.0787594170    0.0201133230    0.0003553347    
0.0789820780    0.0193858060    0.0003470616    
0.0792047390    0.0194502340    0.0003487744    
0.0794274000    0.0197352420    0.0003528090    
0.0796500610    0.0192281900    0.0003448483    
0.0798727220    0.0193161730    0.0003453173    
0.0800953830    0.0192274320    0.0003437308    
0.0803180440    0.0187734740    0.0003420149    
0.0805407050    0.0197896240    0.0003508225    
0.0807633660    0.0189955640    0.0003433930    
0.0809860270    0.0191882760    0.0003438560    
0.0812086880    0.0198694050    0.0003468820    
0.0814313490    0.0191160330    0.0003417940    
0.0816540100    0.0189986730    0.0003399674    
0.0818766710    0.0195866570    0.0003459763    
0.0820993320    0.0198745840    0.0003478748    
0.0823219930    0.0192407490    0.0003436944    
0.0825446540    0.0196761330    0.0003450361    
0.0827673150    0.0194663670    0.0003408863    
0.0829899760    0.0195993600    0.0003414398    
0.0832126370    0.0189711100    0.0003374275    
0.0834352980    0.0192866810    0.0003394617    
0.0836579590    0.0194685860    0.0003402996    
0.0838806200    0.0193212710    0.0003400705    
0.0841032810    0.0195550480    0.0003399978    
0.0843259420    0.0191704130    0.0003356008    
0.0845486030    0.0200987070    0.0003436304    
0.0847712640    0.0193553630    0.0003351609    
0.0849939250    0.0195975510    0.0003378386    
0.0852165860    0.0198065860    0.0003400805    
0.0854392470    0.0192556230    0.0003321416    
0.0856619080    0.0191391470    0.0003335744    
0.0858845690    0.0194125810    0.0003329230    
0.0861072300    0.0197278390    0.0003379323    
0.0863298910    0.0191862540    0.0003350065    
0.0865525520    0.0198853890    0.0003381106    
0.0867752130    0.0186437660    0.0003247432    
0.0869978740    0.0194950680    0.0003329209    
0.0872205350    0.0194681760    0.0003322679    
0.0874431960    0.0192470400    0.0003303757    
0.0876658570    0.0196979950    0.0003355068    
0.0878885180    0.0196107780    0.0003353372    
0.0881111790    0.0198407340    0.0003368648    
0.0883338400    0.0190474250    0.0003252290    
0.0885565010    0.0187003900    0.0003266226    
0.0887791620    0.0193745560    0.0003281467    
0.0890018230    0.0196332380    0.0003335342    
0.0892244840    0.0198421850    0.0003358743    
0.0894471450    0.0192915610    0.0003297823    
0.0896698060    0.0195771200    0.0003309610    
0.0898924670    0.0197477390    0.0003339409    
0.0901151280    0.0194007980    0.0003274192    
0.0903377890    0.0189740020    0.0003265077    
0.0905604500    0.0194738730    0.0003292626    
0.0907831110    0.0191832180    0.0003259832    
0.0910057720    0.0190801610    0.0003265983    
0.0912284330    0.0196837470    0.0003269744    
0.0914510940    0.0192866430    0.0003272685    
0.0916737550    0.0196220490    0.0003292828    
0.0918964160    0.0190501150    0.0003257977    
0.0921190770    0.0196099850    0.0003275618    
0.0923417380    0.0195056050    0.0003268229    
0.0925643990    0.0193993570    0.0003251340    
0.0927870600    0.0195972510    0.0003281282    
0.0930097210    0.0196051110    0.0003253988    
0.0932323820    0.0189736680    0.0003224688    
