# Diamond Light Source Ltd.
# Data extracted from: /dls/b21/data/2018/cm19678-3/processed/b21-386631_00245.dat
q(1/A)          Column          Error           
0.0035000000    2.1243229000    0.0248429080    
0.0037226610    1.9213788000    0.0231290060    
0.0039453220    1.6281254000    0.0193687260    
0.0041679830    1.3009872000    0.0142186520    
0.0043906440    0.9595196400    0.0116797660    
0.0046133050    0.7846870300    0.0101395650    
0.0048359660    0.6071324300    0.0084364643    
0.0050586270    0.4608377900    0.0072244409    
0.0052812880    0.4385882100    0.0066636585    
0.0055039490    0.3859137300    0.0059434680    
0.0057266100    0.3150864000    0.0051954574    
0.0059492710    0.2732805100    0.0048385287    
0.0061719320    0.2240092700    0.0042213335    
0.0063945930    0.1964699000    0.0040012660    
0.0066172539    0.1796980900    0.0035932432    
0.0068399149    0.1666347900    0.0034056782    
0.0070625759    0.1493926200    0.0031915962    
0.0072852369    0.1274229900    0.0029034854    
0.0075078979    0.1147093800    0.0027412954    
0.0077305589    0.1009879700    0.0025231228    
0.0079532199    0.0946528850    0.0024088525    
0.0081758809    0.0901147060    0.0023722612    
0.0083985419    0.0826842370    0.0021194120    
0.0086212029    0.0766540590    0.0020406647    
0.0088438639    0.0693869820    0.0019259307    
0.0090665249    0.0633304120    0.0017770942    
0.0092891859    0.0647023580    0.0018748401    
0.0095118469    0.0574761820    0.0016993189    
0.0097345079    0.0568216280    0.0016409830    
0.0099571689    0.0566388450    0.0016045578    
0.0101798300    0.0475020900    0.0014694492    
0.0104024910    0.0484904710    0.0014796339    
0.0106251520    0.0442746910    0.0014186526    
0.0108478130    0.0480250130    0.0014388811    
0.0110704740    0.0419293080    0.0012800232    
0.0112931350    0.0431586240    0.0013024661    
0.0115157960    0.0445604160    0.0013157323    
0.0117384570    0.0390235880    0.0012206798    
0.0119611180    0.0377117500    0.0012034303    
0.0121837790    0.0357493630    0.0011520071    
0.0124064400    0.0350811590    0.0010936195    
0.0126291010    0.0355382770    0.0010869449    
0.0128517620    0.0347136580    0.0010769427    
0.0130744230    0.0318635560    0.0010241335    
0.0132970840    0.0330195090    0.0010374469    
0.0135197450    0.0317005470    0.0010019584    
0.0137424060    0.0313475260    0.0009824928    
0.0139650670    0.0324098340    0.0009767494    
0.0141877280    0.0301583230    0.0009442937    
0.0144103890    0.0289844960    0.0009097723    
0.0146330500    0.0295762300    0.0009131772    
0.0148557110    0.0280985530    0.0008863412    
0.0150783720    0.0274985400    0.0008695802    
0.0153010330    0.0277442740    0.0008611418    
0.0155236940    0.0284981760    0.0008675736    
0.0157463550    0.0272896990    0.0008342704    
0.0159690160    0.0266273650    0.0008209568    
0.0161916770    0.0267786710    0.0008186479    
0.0164143380    0.0273638110    0.0008338131    
0.0166369990    0.0267763630    0.0007993835    
0.0168596600    0.0245715930    0.0007590190    
0.0170823210    0.0261526010    0.0007762774    
0.0173049820    0.0249020450    0.0007587997    
0.0175276430    0.0242730280    0.0007570550    
0.0177503040    0.0228270050    0.0007154430    
0.0179729650    0.0258494490    0.0007537852    
0.0181956260    0.0246352250    0.0007217613    
0.0184182870    0.0231886130    0.0006969489    
0.0186409480    0.0243740370    0.0007190638    
0.0188636090    0.0229372610    0.0006931616    
0.0190862700    0.0232832260    0.0006972776    
0.0193089310    0.0231898840    0.0006947939    
0.0195315920    0.0231351270    0.0006703722    
0.0197542530    0.0238844400    0.0006821342    
0.0199769140    0.0232025930    0.0006723271    
0.0201995750    0.0228025130    0.0006560686    
0.0204222360    0.0244437790    0.0006851003    
0.0206448970    0.0214852550    0.0006377384    
0.0208675580    0.0233150690    0.0006506601    
0.0210902190    0.0231748430    0.0006549598    
0.0213128800    0.0217396820    0.0006257481    
0.0215355410    0.0219457780    0.0006212175    
0.0217582020    0.0209434550    0.0006068655    
0.0219808630    0.0227125100    0.0006311466    
0.0222035240    0.0214933130    0.0006084096    
0.0224261850    0.0223304520    0.0006146255    
0.0226488460    0.0209465140    0.0005908049    
0.0228715070    0.0210581250    0.0005909052    
0.0230941680    0.0217545440    0.0006005969    
0.0233168290    0.0211964980    0.0005943203    
0.0235394900    0.0213342480    0.0005896679    
0.0237621510    0.0213893250    0.0005745336    
0.0239848120    0.0209748020    0.0005695974    
0.0242074730    0.0215536510    0.0005727818    
0.0244301340    0.0201840370    0.0005549171    
0.0246527950    0.0212277880    0.0005743536    
0.0248754560    0.0215316920    0.0005654499    
0.0250981170    0.0212847640    0.0005634519    
0.0253207780    0.0216752150    0.0005516197    
0.0255434390    0.0207063970    0.0005449052    
0.0257661000    0.0210281960    0.0005508993    
0.0259887610    0.0208661830    0.0005429412    
0.0262114220    0.0209320610    0.0005466949    
0.0264340830    0.0201718440    0.0005293736    
0.0266567440    0.0208838210    0.0005353066    
0.0268794050    0.0208089650    0.0005321655    
0.0271020660    0.0205598240    0.0005268287    
0.0273247270    0.0212072470    0.0005318458    
0.0275473880    0.0206579640    0.0005238686    
0.0277700490    0.0195742520    0.0005069281    
0.0279927100    0.0205241870    0.0005145539    
0.0282153710    0.0199817600    0.0005101772    
0.0284380320    0.0204460360    0.0005130786    
0.0286606930    0.0201608130    0.0005051265    
0.0288833540    0.0210632410    0.0005172886    
0.0291060150    0.0202624890    0.0005068791    
0.0293286760    0.0206264040    0.0005042844    
0.0295513370    0.0207103590    0.0004998072    
0.0297739980    0.0201209360    0.0004980674    
0.0299966590    0.0192965520    0.0004794267    
0.0302193200    0.0202554230    0.0004983521    
0.0304419810    0.0207853730    0.0005057583    
0.0306646420    0.0201283550    0.0004836535    
0.0308873030    0.0206346010    0.0004875827    
0.0311099640    0.0203828820    0.0004858579    
0.0313326250    0.0201149950    0.0004773077    
0.0315552860    0.0210000110    0.0004940154    
0.0317779470    0.0203381040    0.0004865909    
0.0320006080    0.0197135100    0.0004681765    
0.0322232690    0.0204507160    0.0004788463    
0.0324459300    0.0197599190    0.0004671754    
0.0326685910    0.0208727700    0.0004793591    
0.0328912520    0.0208006860    0.0004801153    
0.0331139130    0.0198312210    0.0004626951    
0.0333365740    0.0192974110    0.0004579073    
0.0335592350    0.0195355840    0.0004562944    
0.0337818960    0.0194512840    0.0004549463    
0.0340045570    0.0203547800    0.0004646532    
0.0342272170    0.0192053130    0.0004495624    
0.0344498780    0.0197077790    0.0004572091    
0.0346725390    0.0192808840    0.0004438549    
0.0348952000    0.0205230950    0.0004558437    
0.0351178610    0.0192604720    0.0004436201    
0.0353405220    0.0206344950    0.0004570795    
0.0355631830    0.0199869720    0.0004481564    
0.0357858440    0.0198965460    0.0004471416    
0.0360085050    0.0195620300    0.0004447065    
0.0362311660    0.0203730350    0.0004484364    
0.0364538270    0.0185515370    0.0004244859    
0.0366764880    0.0190774530    0.0004301483    
0.0368991490    0.0202777710    0.0004412384    
0.0371218100    0.0195127590    0.0004315968    
0.0373444710    0.0210033990    0.0004526553    
0.0375671320    0.0196583010    0.0004372832    
0.0377897930    0.0195858990    0.0004251780    
0.0380124540    0.0199819860    0.0004321503    
0.0382351150    0.0196081550    0.0004280889    
0.0384577760    0.0193782720    0.0004214660    
0.0386804370    0.0202056700    0.0004336540    
0.0389030980    0.0198366300    0.0004264217    
0.0391257590    0.0197942840    0.0004230746    
0.0393484200    0.0202900010    0.0004268978    
0.0395710810    0.0194711170    0.0004187579    
0.0397937420    0.0195972160    0.0004201118    
0.0400164030    0.0196480360    0.0004223675    
0.0402390640    0.0189956700    0.0004097665    
0.0404617250    0.0202047980    0.0004201136    
0.0406843860    0.0200818460    0.0004147867    
0.0409070470    0.0202225270    0.0004205731    
0.0411297080    0.0191983490    0.0004058204    
0.0413523690    0.0201597150    0.0004169290    
0.0415750300    0.0196705360    0.0004153379    
0.0417976910    0.0196565170    0.0004044517    
0.0420203520    0.0193768940    0.0004030735    
0.0422430130    0.0199885430    0.0004109356    
0.0424656740    0.0210517260    0.0004162339    
0.0426883350    0.0202638140    0.0004103972    
0.0429109960    0.0201731810    0.0004107577    
0.0431336570    0.0197306840    0.0004005044    
0.0433563180    0.0196259590    0.0004028859    
0.0435789790    0.0195509840    0.0003957981    
0.0438016400    0.0200720880    0.0004032198    
0.0440243010    0.0197938320    0.0003963526    
0.0442469620    0.0200638830    0.0004014383    
0.0444696230    0.0198325240    0.0003976858    
0.0446922840    0.0193344040    0.0003914938    
0.0449149450    0.0201713330    0.0003945316    
0.0451376060    0.0194389330    0.0003920861    
0.0453602670    0.0199782070    0.0003933206    
0.0455829280    0.0193989650    0.0003871286    
0.0458055890    0.0192819670    0.0003882100    
0.0460282500    0.0191554020    0.0003822680    
0.0462509110    0.0196109920    0.0003843815    
0.0464735720    0.0202968830    0.0003912663    
0.0466962330    0.0190509250    0.0003807901    
0.0469188940    0.0194274260    0.0003834443    
0.0471415550    0.0197574790    0.0003886738    
0.0473642160    0.0196392070    0.0003820828    
0.0475868770    0.0194298420    0.0003781528    
0.0478095380    0.0195811680    0.0003779613    
0.0480321990    0.0196597400    0.0003795486    
0.0482548600    0.0198374650    0.0003795992    
0.0484775210    0.0197073290    0.0003821087    
0.0487001820    0.0202711470    0.0003818632    
0.0489228430    0.0199547530    0.0003786678    
0.0491455040    0.0192757380    0.0003695954    
0.0493681650    0.0197093800    0.0003769413    
0.0495908260    0.0198461350    0.0003718827    
0.0498134870    0.0199133040    0.0003760576    
0.0500361480    0.0208111910    0.0003834251    
0.0502588090    0.0195067980    0.0003656525    
0.0504814700    0.0196684290    0.0003719642    
0.0507041310    0.0200826500    0.0003713918    
0.0509267920    0.0198890490    0.0003711264    
0.0511494530    0.0195768610    0.0003657470    
0.0513721140    0.0192834240    0.0003661923    
0.0515947750    0.0197572370    0.0003657494    
0.0518174360    0.0202959110    0.0003684688    
0.0520400970    0.0200945980    0.0003640947    
0.0522627580    0.0197062450    0.0003636235    
0.0524854190    0.0195915700    0.0003655118    
0.0527080800    0.0201800540    0.0003738329    
0.0529307410    0.0194543090    0.0003687731    
0.0531534020    0.0192088200    0.0003651049    
0.0533760630    0.0191267600    0.0003654647    
0.0535987240    0.0200347140    0.0003722921    
0.0538213850    0.0194751470    0.0003713090    
0.0540440460    0.0195086300    0.0003698692    
0.0542667070    0.0190532870    0.0003680463    
0.0544893680    0.0201411480    0.0003786091    
0.0547120290    0.0191641480    0.0003667821    
0.0549346900    0.0196340600    0.0003714471    
0.0551573510    0.0194588070    0.0003741387    
0.0553800120    0.0198577660    0.0003747415    
0.0556026730    0.0201813520    0.0003856153    
0.0558253340    0.0193969360    0.0003812125    
0.0560479950    0.0195617810    0.0003828291    
0.0562706560    0.0195599770    0.0003865125    
0.0564933170    0.0195592410    0.0003898615    
0.0567159780    0.0197757420    0.0003873132    
0.0569386390    0.0194932370    0.0003905684    
0.0571613000    0.0202286760    0.0003893011    
0.0573839610    0.0197394220    0.0003813713    
0.0576066220    0.0197525450    0.0003825542    
0.0578292830    0.0193791580    0.0003776674    
0.0580519440    0.0200044440    0.0003851998    
0.0582746050    0.0201077850    0.0003844905    
0.0584972660    0.0198592970    0.0003806447    
0.0587199270    0.0195829210    0.0003747284    
0.0589425880    0.0195883780    0.0003725885    
0.0591652490    0.0198769580    0.0003775316    
0.0593879100    0.0198088800    0.0003740855    
0.0596105710    0.0195767710    0.0003714951    
0.0598332320    0.0190093730    0.0003692011    
0.0600558930    0.0198933880    0.0003752802    
0.0602785540    0.0195193180    0.0003713421    
0.0605012150    0.0200773190    0.0003758190    
0.0607238760    0.0195431190    0.0003680835    
0.0609465370    0.0198802100    0.0003741670    
0.0611691980    0.0197101460    0.0003731537    
0.0613918590    0.0191646390    0.0003639366    
0.0616145200    0.0190675120    0.0003656701    
0.0618371810    0.0191829830    0.0003631734    
0.0620598420    0.0197806310    0.0003691676    
0.0622825030    0.0199428230    0.0003763467    
0.0625051640    0.0198767760    0.0003704462    
0.0627278250    0.0203037980    0.0003736333    
0.0629504860    0.0192038830    0.0003604179    
0.0631731470    0.0192244500    0.0003650724    
0.0633958080    0.0198250590    0.0003728650    
0.0636184690    0.0196601790    0.0003764826    
0.0638411300    0.0191693950    0.0003703583    
0.0640637910    0.0195343280    0.0003764965    
0.0642864520    0.0194209770    0.0003745902    
0.0645091130    0.0197260820    0.0003808294    
0.0647317740    0.0197180230    0.0003811714    
0.0649544350    0.0196011390    0.0003796219    
0.0651770960    0.0199623830    0.0003810143    
0.0653997570    0.0194414490    0.0003751945    
0.0656224180    0.0188206800    0.0003699586    
0.0658450790    0.0197600660    0.0003736304    
0.0660677400    0.0202278680    0.0003796360    
0.0662904010    0.0198892520    0.0003809391    
0.0665130620    0.0191167380    0.0003718478    
0.0667357230    0.0196826840    0.0003840204    
0.0669583840    0.0200349530    0.0003861454    
0.0671810450    0.0200645830    0.0003842972    
0.0674037060    0.0194028700    0.0003843094    
0.0676263670    0.0195998560    0.0003834274    
0.0678490280    0.0200499340    0.0003854331    
0.0680716890    0.0194620050    0.0003805850    
0.0682943500    0.0195258000    0.0003770331    
0.0685170110    0.0196220450    0.0003741097    
0.0687396720    0.0190922280    0.0003680440    
0.0689623330    0.0202474550    0.0003778142    
0.0691849940    0.0203360000    0.0003812628    
0.0694076550    0.0197859120    0.0003758701    
0.0696303160    0.0196425210    0.0003715406    
0.0698529770    0.0197142360    0.0003714382    
0.0700756380    0.0198251270    0.0003676998    
0.0702982990    0.0197156860    0.0003706768    
0.0705209600    0.0190954570    0.0003621660    
0.0707436210    0.0188796360    0.0003584597    
0.0709662820    0.0195763770    0.0003693656    
0.0711889430    0.0194655900    0.0003637951    
0.0714116040    0.0199411020    0.0003689635    
0.0716342650    0.0199690990    0.0003677232    
0.0718569260    0.0194861500    0.0003617864    
0.0720795870    0.0190956270    0.0003595915    
0.0723022480    0.0200979790    0.0003694706    
0.0725249090    0.0194073060    0.0003587186    
0.0727475700    0.0193490890    0.0003612395    
0.0729702310    0.0193137990    0.0003580315    
0.0731928920    0.0195956030    0.0003620754    
0.0734155530    0.0199506100    0.0003646114    
0.0736382140    0.0192940870    0.0003562609    
0.0738608750    0.0194309060    0.0003598316    
0.0740835360    0.0197257470    0.0003616512    
0.0743061970    0.0194835000    0.0003543626    
0.0745288580    0.0199651770    0.0003624047    
0.0747515190    0.0196808800    0.0003605258    
0.0749741800    0.0196812390    0.0003571918    
0.0751968410    0.0193857080    0.0003572833    
0.0754195020    0.0196733440    0.0003578155    
0.0756421630    0.0192185780    0.0003507647    
0.0758648240    0.0193175230    0.0003525119    
0.0760874850    0.0193632400    0.0003527593    
0.0763101460    0.0191593310    0.0003505603    
0.0765328070    0.0199461980    0.0003613465    
0.0767554680    0.0193793700    0.0003537583    
0.0769781290    0.0198850170    0.0003562845    
0.0772007900    0.0197369370    0.0003521086    
0.0774234510    0.0195427820    0.0003523654    
0.0776461120    0.0198354710    0.0003546575    
0.0778687730    0.0203345770    0.0003579055    
0.0780914340    0.0193482540    0.0003516121    
0.0783140950    0.0188815070    0.0003418342    
0.0785367560    0.0200128470    0.0003576004    
0.0787594170    0.0188588090    0.0003440266    
0.0789820780    0.0194176520    0.0003472979    
0.0792047390    0.0193259980    0.0003476101    
0.0794274000    0.0188532650    0.0003447871    
0.0796500610    0.0189754920    0.0003425268    
0.0798727220    0.0201809570    0.0003529132    
0.0800953830    0.0193817750    0.0003450594    
0.0803180440    0.0195219400    0.0003487173    
0.0805407050    0.0199954830    0.0003525932    
0.0807633660    0.0202128240    0.0003541752    
0.0809860270    0.0191890680    0.0003438150    
0.0812086880    0.0194703230    0.0003433327    
0.0814313490    0.0196361060    0.0003463638    
0.0816540100    0.0191454020    0.0003412299    
0.0818766710    0.0191779450    0.0003422996    
0.0820993320    0.0190107110    0.0003401828    
0.0823219930    0.0198920940    0.0003494146    
0.0825446540    0.0194528720    0.0003430249    
0.0827673150    0.0196518900    0.0003424589    
0.0829899760    0.0196592880    0.0003419136    
0.0832126370    0.0197337940    0.0003440952    
0.0834352980    0.0195022920    0.0003413061    
0.0836579590    0.0194750320    0.0003403083    
0.0838806200    0.0195731710    0.0003422322    
0.0841032810    0.0192777270    0.0003375311    
0.0843259420    0.0193118850    0.0003367897    
0.0845486030    0.0197230560    0.0003403564    
0.0847712640    0.0190946560    0.0003328495    
0.0849939250    0.0198948280    0.0003403437    
0.0852165860    0.0198243950    0.0003401857    
0.0854392470    0.0187576680    0.0003277730    
0.0856619080    0.0193255950    0.0003351483    
0.0858845690    0.0195783890    0.0003342950    
0.0861072300    0.0193230120    0.0003344003    
0.0863298910    0.0197071910    0.0003394765    
0.0865525520    0.0200062650    0.0003390892    
0.0867752130    0.0191248710    0.0003288605    
0.0869978740    0.0197055960    0.0003346668    
0.0872205350    0.0197178480    0.0003343449    
0.0874431960    0.0189695290    0.0003279394    
0.0876658570    0.0188926730    0.0003285310    
0.0878885180    0.0198861860    0.0003376365    
0.0881111790    0.0198637720    0.0003370131    
0.0883338400    0.0199470120    0.0003327739    
0.0885565010    0.0193168090    0.0003319157    
0.0887791620    0.0199414310    0.0003328661    
0.0890018230    0.0194181560    0.0003316558    
0.0892244840    0.0195865440    0.0003336569    
0.0894471450    0.0193594310    0.0003303157    
0.0896698060    0.0200359020    0.0003347697    
0.0898924670    0.0189236210    0.0003268528    
0.0901151280    0.0194616600    0.0003278865    
0.0903377890    0.0192439280    0.0003287760    
0.0905604500    0.0189842190    0.0003250513    
0.0907831110    0.0194270580    0.0003280026    
0.0910057720    0.0201087650    0.0003352392    
0.0912284330    0.0189994930    0.0003211959    
0.0914510940    0.0197475950    0.0003311100    
0.0916737550    0.0198375290    0.0003310395    
0.0918964160    0.0195405410    0.0003299186    
0.0921190770    0.0192106580    0.0003241642    
0.0923417380    0.0192154740    0.0003243378    
0.0925643990    0.0195791520    0.0003265915    
0.0927870600    0.0196412000    0.0003284500    
0.0930097210    0.0194106490    0.0003237357    
0.0932323820    0.0202614070    0.0003331855    
