# Diamond Light Source Ltd.
# Data extracted from: /dls/b21/data/2018/cm19678-3/processed/b21-386631_00244.dat
q(1/A)          Column          Error           
0.0035000000    2.1122014000    0.0247724020    
0.0037226610    1.8668796000    0.0227990580    
0.0039453220    1.6185097000    0.0193118130    
0.0041679830    1.2901586000    0.0141596240    
0.0043906440    0.9790345600    0.0117981660    
0.0046133050    0.8001780700    0.0102393570    
0.0048359660    0.6025834500    0.0084049598    
0.0050586270    0.4576840800    0.0071998158    
0.0052812880    0.4308088700    0.0066044226    
0.0055039490    0.3764999300    0.0058706413    
0.0057266100    0.3240938800    0.0052692968    
0.0059492710    0.2748330100    0.0048523455    
0.0061719320    0.2186878400    0.0041709720    
0.0063945930    0.2048710800    0.0040859968    
0.0066172539    0.1894769800    0.0036897879    
0.0068399149    0.1739499700    0.0034796954    
0.0070625759    0.1483755000    0.0031807736    
0.0072852369    0.1261707700    0.0028892387    
0.0075078979    0.1118966800    0.0027075299    
0.0077305589    0.1028830600    0.0025467351    
0.0079532199    0.0986413860    0.0024591281    
0.0081758809    0.0906802110    0.0023797384    
0.0083985419    0.0830676880    0.0021243613    
0.0086212029    0.0811118880    0.0020992038    
0.0088438639    0.0717952790    0.0019591057    
0.0090665249    0.0633328270    0.0017771620    
0.0092891859    0.0654110920    0.0018851163    
0.0095118469    0.0632061140    0.0017820454    
0.0097345079    0.0581981820    0.0016607729    
0.0099571689    0.0524588440    0.0015442436    
0.0101798300    0.0512769390    0.0015267486    
0.0104024910    0.0501177620    0.0015042852    
0.0106251520    0.0475039190    0.0014695058    
0.0108478130    0.0440605340    0.0013782383    
0.0110704740    0.0443146770    0.0013159551    
0.0112931350    0.0419024120    0.0012833952    
0.0115157960    0.0411820770    0.0012648974    
0.0117384570    0.0392160020    0.0012237088    
0.0119611180    0.0382508510    0.0012120246    
0.0121837790    0.0351938620    0.0011430435    
0.0124064400    0.0373667800    0.0011287049    
0.0126291010    0.0341433140    0.0010654190    
0.0128517620    0.0336792120    0.0010607955    
0.0130744230    0.0317989350    0.0010231140    
0.0132970840    0.0318798730    0.0010194059    
0.0135197450    0.0328102090    0.0010193636    
0.0137424060    0.0310715720    0.0009781774    
0.0139650670    0.0299088530    0.0009383242    
0.0141877280    0.0289471800    0.0009251559    
0.0144103890    0.0304991350    0.0009332584    
0.0146330500    0.0270397390    0.0008731587    
0.0148557110    0.0292459770    0.0009042745    
0.0150783720    0.0284070750    0.0008838455    
0.0153010330    0.0268365260    0.0008469532    
0.0155236940    0.0268880900    0.0008427254    
0.0157463550    0.0268316430    0.0008272550    
0.0159690160    0.0261474500    0.0008135405    
0.0161916770    0.0258786940    0.0008047891    
0.0164143380    0.0257387170    0.0008086902    
0.0166369990    0.0252022440    0.0007755454    
0.0168596600    0.0265186370    0.0007885330    
0.0170823210    0.0251858000    0.0007618082    
0.0173049820    0.0236774990    0.0007399219    
0.0175276430    0.0257851730    0.0007802948    
0.0177503040    0.0257878750    0.0007604429    
0.0179729650    0.0238940670    0.0007247284    
0.0181956260    0.0247630460    0.0007236451    
0.0184182870    0.0228543290    0.0006919203    
0.0186409480    0.0224657000    0.0006903542    
0.0188636090    0.0221211620    0.0006807317    
0.0190862700    0.0237226490    0.0007038401    
0.0193089310    0.0225662420    0.0006854008    
0.0195315920    0.0231942860    0.0006712416    
0.0197542530    0.0223267640    0.0006595284    
0.0199769140    0.0225995250    0.0006635449    
0.0201995750    0.0229732750    0.0006585331    
0.0204222360    0.0235229940    0.0006720855    
0.0206448970    0.0218078920    0.0006425212    
0.0208675580    0.0228983050    0.0006448308    
0.0210902190    0.0226203980    0.0006470899    
0.0213128800    0.0223529200    0.0006345245    
0.0215355410    0.0221224700    0.0006237252    
0.0217582020    0.0214718170    0.0006144845    
0.0219808630    0.0215557830    0.0006148765    
0.0222035240    0.0212702350    0.0006052556    
0.0224261850    0.0225343150    0.0006174364    
0.0226488460    0.0211472870    0.0005936409    
0.0228715070    0.0215066380    0.0005971763    
0.0230941680    0.0210755190    0.0005911606    
0.0233168290    0.0214306100    0.0005976048    
0.0235394900    0.0212372700    0.0005883374    
0.0237621510    0.0214673060    0.0005755910    
0.0239848120    0.0216252890    0.0005783734    
0.0242074730    0.0204584830    0.0005580509    
0.0244301340    0.0214206120    0.0005716738    
0.0246527950    0.0210887310    0.0005724803    
0.0248754560    0.0209236630    0.0005574196    
0.0250981170    0.0211364120    0.0005614956    
0.0253207780    0.0205388920    0.0005369760    
0.0255434390    0.0219691210    0.0005612848    
0.0257661000    0.0215485890    0.0005576850    
0.0259887610    0.0204572690    0.0005376051    
0.0262114220    0.0213612260    0.0005522813    
0.0264340830    0.0212284800    0.0005430718    
0.0266567440    0.0214472120    0.0005424895    
0.0268794050    0.0211500090    0.0005365189    
0.0271020660    0.0203716070    0.0005244217    
0.0273247270    0.0205277980    0.0005232666    
0.0275473880    0.0209111740    0.0005270794    
0.0277700490    0.0198638320    0.0005106738    
0.0279927100    0.0211313010    0.0005221187    
0.0282153710    0.0212591110    0.0005262414    
0.0284380320    0.0213609990    0.0005244431    
0.0286606930    0.0200603310    0.0005038758    
0.0288833540    0.0206066830    0.0005116614    
0.0291060150    0.0198321290    0.0005014769    
0.0293286760    0.0197148100    0.0004930244    
0.0295513370    0.0202527770    0.0004942643    
0.0297739980    0.0204792590    0.0005024923    
0.0299966590    0.0193687590    0.0004803320    
0.0302193200    0.0195818070    0.0004900048    
0.0304419810    0.0211676770    0.0005103980    
0.0306646420    0.0198501970    0.0004803092    
0.0308873030    0.0196445210    0.0004757505    
0.0311099640    0.0206152920    0.0004886293    
0.0313326250    0.0209086130    0.0004866418    
0.0315552860    0.0203732280    0.0004865964    
0.0317779470    0.0205600810    0.0004892485    
0.0320006080    0.0211152760    0.0004845452    
0.0322232690    0.0201823980    0.0004757037    
0.0324459300    0.0205117770    0.0004759895    
0.0326685910    0.0206864090    0.0004772234    
0.0328912520    0.0194383570    0.0004641355    
0.0331139130    0.0197456110    0.0004617041    
0.0333365740    0.0198305850    0.0004641989    
0.0335592350    0.0211776790    0.0004750939    
0.0337818960    0.0212397400    0.0004754107    
0.0340045570    0.0194963590    0.0004547584    
0.0342272170    0.0196901440    0.0004552102    
0.0344498780    0.0192524130    0.0004519047    
0.0346725390    0.0201910330    0.0004542188    
0.0348952000    0.0203011230    0.0004533805    
0.0351178610    0.0202421490    0.0004547936    
0.0353405220    0.0196632570    0.0004462013    
0.0355631830    0.0202088160    0.0004506453    
0.0357858440    0.0200279440    0.0004486242    
0.0360085050    0.0200379450    0.0004500921    
0.0362311660    0.0200381960    0.0004447445    
0.0364538270    0.0199315220    0.0004399991    
0.0366764880    0.0202808730    0.0004435163    
0.0368991490    0.0191743630    0.0004290737    
0.0371218100    0.0195994240    0.0004325625    
0.0373444710    0.0200871560    0.0004426804    
0.0375671320    0.0197757790    0.0004385963    
0.0377897930    0.0213403980    0.0004438218    
0.0380124540    0.0199640550    0.0004319646    
0.0382351150    0.0200949190    0.0004333782    
0.0384577760    0.0204057130    0.0004325031    
0.0386804370    0.0204112040    0.0004358623    
0.0389030980    0.0192690330    0.0004202847    
0.0391257590    0.0203737890    0.0004292311    
0.0393484200    0.0198147190    0.0004218763    
0.0395710810    0.0201203220    0.0004256899    
0.0397937420    0.0208138300    0.0004329642    
0.0400164030    0.0197214240    0.0004231637    
0.0402390640    0.0202693040    0.0004232888    
0.0404617250    0.0189388990    0.0004067477    
0.0406843860    0.0196970670    0.0004108016    
0.0409070470    0.0196372420    0.0004144502    
0.0411297080    0.0202027870    0.0004163090    
0.0413523690    0.0190998600    0.0004058292    
0.0415750300    0.0201536410    0.0004204153    
0.0417976910    0.0203064060    0.0004110912    
0.0420203520    0.0198471910    0.0004079434    
0.0422430130    0.0192711770    0.0004035019    
0.0424656740    0.0195958060    0.0004015905    
0.0426883350    0.0195830050    0.0004034518    
0.0429109960    0.0198728460    0.0004076964    
0.0431336570    0.0204224840    0.0004074729    
0.0433563180    0.0193703120    0.0004002609    
0.0435789790    0.0199443680    0.0003997678    
0.0438016400    0.0195706270    0.0003981588    
0.0440243010    0.0199136410    0.0003975579    
0.0442469620    0.0199682610    0.0004004882    
0.0444696230    0.0199529020    0.0003988985    
0.0446922840    0.0202705850    0.0004008676    
0.0449149450    0.0198634240    0.0003915163    
0.0451376060    0.0200011950    0.0003977237    
0.0453602670    0.0201880510    0.0003953884    
0.0455829280    0.0196392070    0.0003895258    
0.0458055890    0.0194937410    0.0003903435    
0.0460282500    0.0202089180    0.0003926468    
0.0462509110    0.0200939340    0.0003890930    
0.0464735720    0.0194453220    0.0003829779    
0.0466962330    0.0196529620    0.0003867674    
0.0469188940    0.0201168940    0.0003901966    
0.0471415550    0.0194982560    0.0003861230    
0.0473642160    0.0196102200    0.0003818080    
0.0475868770    0.0196219450    0.0003800248    
0.0478095380    0.0196548730    0.0003786792    
0.0480321990    0.0191328880    0.0003744356    
0.0482548600    0.0200561440    0.0003816930    
0.0484775210    0.0194635820    0.0003797456    
0.0487001820    0.0191065360    0.0003707387    
0.0489228430    0.0199411420    0.0003785459    
0.0491455040    0.0199497320    0.0003760087    
0.0493681650    0.0195659460    0.0003755744    
0.0495908260    0.0199444540    0.0003728098    
0.0498134870    0.0197578190    0.0003745937    
0.0500361480    0.0201973740    0.0003777355    
0.0502588090    0.0195692320    0.0003662442    
0.0504814700    0.0200982990    0.0003760141    
0.0507041310    0.0194171740    0.0003651936    
0.0509267920    0.0193011470    0.0003656071    
0.0511494530    0.0196322740    0.0003662712    
0.0513721140    0.0200074030    0.0003730103    
0.0515947750    0.0196699660    0.0003649476    
0.0518174360    0.0196477800    0.0003625447    
0.0520400970    0.0197127220    0.0003606254    
0.0522627580    0.0196600280    0.0003632037    
0.0524854190    0.0197832620    0.0003673026    
0.0527080800    0.0199869100    0.0003720467    
0.0529307410    0.0192872740    0.0003671935    
0.0531534020    0.0192164930    0.0003651848    
0.0533760630    0.0197559940    0.0003714346    
0.0535987240    0.0198556020    0.0003706313    
0.0538213850    0.0199006630    0.0003753506    
0.0540440460    0.0200914300    0.0003753605    
0.0542667070    0.0196156810    0.0003734458    
0.0544893680    0.0199639850    0.0003769474    
0.0547120290    0.0194948230    0.0003699401    
0.0549346900    0.0194591220    0.0003697956    
0.0551573510    0.0194235800    0.0003738070    
0.0553800120    0.0192008150    0.0003684977    
0.0556026730    0.0197473850    0.0003814540    
0.0558253340    0.0198921710    0.0003860557    
0.0560479950    0.0200120680    0.0003872175    
0.0562706560    0.0198738770    0.0003896090    
0.0564933170    0.0194045640    0.0003883244    
0.0567159780    0.0202923390    0.0003923469    
0.0569386390    0.0194313750    0.0003899556    
0.0571613000    0.0205890820    0.0003927613    
0.0573839610    0.0193864870    0.0003779538    
0.0576066220    0.0193606030    0.0003787470    
0.0578292830    0.0187763450    0.0003717542    
0.0580519440    0.0196417460    0.0003816991    
0.0582746050    0.0193512640    0.0003771954    
0.0584972660    0.0198746470    0.0003807991    
0.0587199270    0.0199565530    0.0003782936    
0.0589425880    0.0194261190    0.0003710492    
0.0591652490    0.0195191710    0.0003741255    
0.0593879100    0.0192303240    0.0003685891    
0.0596105710    0.0196762160    0.0003724446    
0.0598332320    0.0198204110    0.0003770020    
0.0600558930    0.0192640480    0.0003693034    
0.0602785540    0.0197814600    0.0003738345    
0.0605012150    0.0196489460    0.0003717952    
0.0607238760    0.0200776980    0.0003730909    
0.0609465370    0.0193457380    0.0003691101    
0.0611691980    0.0194636280    0.0003708199    
0.0613918590    0.0194072700    0.0003662401    
0.0616145200    0.0194539520    0.0003693640    
0.0618371810    0.0191837140    0.0003631872    
0.0620598420    0.0190510380    0.0003623023    
0.0622825030    0.0197234090    0.0003742778    
0.0625051640    0.0198982470    0.0003706533    
0.0627278250    0.0195826020    0.0003669445    
0.0629504860    0.0194346110    0.0003625835    
0.0631731470    0.0198144880    0.0003706395    
0.0633958080    0.0194120470    0.0003689676    
0.0636184690    0.0191778770    0.0003718431    
0.0638411300    0.0192416830    0.0003710630    
0.0640637910    0.0192302910    0.0003735622    
0.0642864520    0.0194795210    0.0003751616    
0.0645091130    0.0195136110    0.0003787801    
0.0647317740    0.0197777250    0.0003817553    
0.0649544350    0.0198886360    0.0003824031    
0.0651770960    0.0198176940    0.0003796382    
0.0653997570    0.0199128590    0.0003797233    
0.0656224180    0.0198395570    0.0003798479    
0.0658450790    0.0198173390    0.0003741786    
0.0660677400    0.0193094800    0.0003709249    
0.0662904010    0.0192990020    0.0003752511    
0.0665130620    0.0197178260    0.0003776558    
0.0667357230    0.0194961160    0.0003822033    
0.0669583840    0.0193063340    0.0003790660    
0.0671810450    0.0197120330    0.0003809133    
0.0674037060    0.0205149980    0.0003951774    
0.0676263670    0.0192480480    0.0003799779    
0.0678490280    0.0196950330    0.0003820140    
0.0680716890    0.0196116020    0.0003820522    
0.0682943500    0.0195119840    0.0003769069    
0.0685170110    0.0196299260    0.0003741920    
0.0687396720    0.0196747550    0.0003736237    
0.0689623330    0.0196842100    0.0003725292    
0.0691849940    0.0197863600    0.0003760823    
0.0694076550    0.0193510890    0.0003717241    
0.0696303160    0.0195237940    0.0003704231    
0.0698529770    0.0196589990    0.0003709245    
0.0700756380    0.0194712400    0.0003644102    
0.0702982990    0.0193679680    0.0003674005    
0.0705209600    0.0198243130    0.0003690201    
0.0707436210    0.0198536410    0.0003675970    
0.0709662820    0.0200231680    0.0003735640    
0.0711889430    0.0203434390    0.0003719149    
0.0714116040    0.0194230050    0.0003641458    
0.0716342650    0.0200782080    0.0003687335    
0.0718569260    0.0197421510    0.0003641620    
0.0720795870    0.0184124080    0.0003531067    
0.0723022480    0.0191817700    0.0003609577    
0.0725249090    0.0197263200    0.0003616618    
0.0727475700    0.0193633160    0.0003613792    
0.0729702310    0.0195800280    0.0003604975    
0.0731928920    0.0190142810    0.0003566711    
0.0734155530    0.0198514140    0.0003637108    
0.0736382140    0.0194066580    0.0003573055    
0.0738608750    0.0205245100    0.0003698260    
0.0740835360    0.0197928070    0.0003622724    
0.0743061970    0.0198387370    0.0003575853    
0.0745288580    0.0197027960    0.0003600223    
0.0747515190    0.0202694370    0.0003658839    
0.0749741800    0.0193772940    0.0003544298    
0.0751968410    0.0201173900    0.0003639704    
0.0754195020    0.0197912410    0.0003588928    
0.0756421630    0.0194305830    0.0003527008    
0.0758648240    0.0199293940    0.0003580580    
0.0760874850    0.0191197600    0.0003505411    
0.0763101460    0.0197758520    0.0003561627    
0.0765328070    0.0195541730    0.0003577848    
0.0767554680    0.0192380350    0.0003524727    
0.0769781290    0.0191771650    0.0003498923    
0.0772007900    0.0191974470    0.0003472696    
0.0774234510    0.0200454580    0.0003568751    
0.0776461120    0.0193669560    0.0003504506    
0.0778687730    0.0187856320    0.0003440107    
0.0780914340    0.0191700710    0.0003499960    
0.0783140950    0.0204480100    0.0003557386    
0.0785367560    0.0190295440    0.0003487113    
0.0787594170    0.0196691390    0.0003513467    
0.0789820780    0.0193190030    0.0003464212    
0.0792047390    0.0194267760    0.0003485219    
0.0794274000    0.0198376700    0.0003536806    
0.0796500610    0.0191493450    0.0003440989    
0.0798727220    0.0191818980    0.0003440734    
0.0800953830    0.0192166420    0.0003435929    
0.0803180440    0.0194354740    0.0003479508    
0.0805407050    0.0196667050    0.0003496890    
0.0807633660    0.0191337160    0.0003445978    
0.0809860270    0.0192144410    0.0003440488    
0.0812086880    0.0197737880    0.0003460045    
0.0814313490    0.0189647780    0.0003403979    
0.0816540100    0.0193042640    0.0003426493    
0.0818766710    0.0198202060    0.0003479908    
0.0820993320    0.0196932420    0.0003462423    
0.0823219930    0.0191685830    0.0003430078    
0.0825446540    0.0198951920    0.0003469095    
0.0827673150    0.0199092640    0.0003447007    
0.0829899760    0.0192853920    0.0003386530    
0.0832126370    0.0192425330    0.0003397917    
0.0834352980    0.0194791420    0.0003411100    
0.0836579590    0.0194936150    0.0003404771    
0.0838806200    0.0193943960    0.0003406722    
0.0841032810    0.0201295040    0.0003449140    
0.0843259420    0.0194653370    0.0003381315    
0.0845486030    0.0196944400    0.0003401158    
0.0847712640    0.0201107870    0.0003415976    
0.0849939250    0.0197034430    0.0003387092    
0.0852165860    0.0193055880    0.0003357113    
0.0854392470    0.0194743530    0.0003339824    
0.0856619080    0.0199192000    0.0003402631    
0.0858845690    0.0195505950    0.0003340640    
0.0861072300    0.0192948130    0.0003341626    
0.0863298910    0.0188365830    0.0003318996    
0.0865525520    0.0196391890    0.0003359704    
0.0867752130    0.0193631150    0.0003309088    
0.0869978740    0.0195585650    0.0003334223    
0.0872205350    0.0193047250    0.0003308301    
0.0874431960    0.0199737600    0.0003365143    
0.0876658570    0.0193790120    0.0003327390    
0.0878885180    0.0190614270    0.0003305671    
0.0881111790    0.0197158600    0.0003357624    
0.0883338400    0.0196757320    0.0003305096    
0.0885565010    0.0193061390    0.0003318303    
0.0887791620    0.0197532710    0.0003312983    
0.0890018230    0.0194472200    0.0003319102    
0.0892244840    0.0193030870    0.0003312401    
0.0894471450    0.0193545330    0.0003302802    
0.0896698060    0.0196507010    0.0003315423    
0.0898924670    0.0196356990    0.0003329520    
0.0901151280    0.0194568780    0.0003278525    
0.0903377890    0.0196491030    0.0003322254    
0.0905604500    0.0196194440    0.0003304510    
0.0907831110    0.0190899720    0.0003251507    
0.0910057720    0.0191929220    0.0003275224    
0.0912284330    0.0193911910    0.0003244962    
0.0914510940    0.0195651330    0.0003295830    
0.0916737550    0.0187610180    0.0003219382    
0.0918964160    0.0192070560    0.0003270975    
0.0921190770    0.0186534290    0.0003194343    
0.0923417380    0.0189315230    0.0003219386    
0.0925643990    0.0195853470    0.0003266494    
0.0927870600    0.0191695760    0.0003244889    
0.0930097210    0.0199837420    0.0003284863    
0.0932323820    0.0195772770    0.0003275184    
