# Diamond Light Source Ltd.
# Data extracted from: /dls/b21/data/2018/cm19678-3/processed/b21-386631_00251.dat
q(1/A)          Column          Error           
0.0035000000    2.0534803000    0.0244288890    
0.0037226610    1.8704418000    0.0228238480    
0.0039453220    1.6251652000    0.0193540630    
0.0041679830    1.2852181000    0.0141343750    
0.0043906440    0.9664966800    0.0117239430    
0.0046133050    0.7790288100    0.0101044830    
0.0048359660    0.5960602800    0.0083604592    
0.0050586270    0.4557671100    0.0071856816    
0.0052812880    0.4249487400    0.0065602261    
0.0055039490    0.3846580800    0.0059346966    
0.0057266100    0.3192959000    0.0052308457    
0.0059492710    0.2681366000    0.0047935064    
0.0061719320    0.2286133200    0.0042651441    
0.0063945930    0.2025619000    0.0040634467    
0.0066172539    0.1813341400    0.0036101143    
0.0068399149    0.1653627600    0.0033931722    
0.0070625759    0.1480059100    0.0031772338    
0.0072852369    0.1291163800    0.0029231608    
0.0075078979    0.1158584200    0.0027554115    
0.0077305589    0.1000729300    0.0025120493    
0.0079532199    0.0978092220    0.0024490602    
0.0081758809    0.0854570700    0.0023104945    
0.0083985419    0.0839593590    0.0021360178    
0.0086212029    0.0797206470    0.0020814010    
0.0088438639    0.0673761840    0.0018981090    
0.0090665249    0.0645469050    0.0017943547    
0.0092891859    0.0654829070    0.0018864028    
0.0095118469    0.0618660660    0.0017632889    
0.0097345079    0.0555590310    0.0016228966    
0.0099571689    0.0520181530    0.0015379489    
0.0101798300    0.0501084050    0.0015094536    
0.0104024910    0.0478278260    0.0014697134    
0.0106251520    0.0438789730    0.0014125141    
0.0108478130    0.0449347750    0.0013920304    
0.0110704740    0.0437792740    0.0013081560    
0.0112931350    0.0417563310    0.0012813273    
0.0115157960    0.0399106510    0.0012453849    
0.0117384570    0.0397612100    0.0012323504    
0.0119611180    0.0384915560    0.0012159945    
0.0121837790    0.0361316190    0.0011583265    
0.0124064400    0.0353646910    0.0010981976    
0.0126291010    0.0361477090    0.0010963924    
0.0128517620    0.0342897840    0.0010705108    
0.0130744230    0.0338159730    0.0010552046    
0.0132970840    0.0316601490    0.0010160225    
0.0135197450    0.0331991160    0.0010255241    
0.0137424060    0.0316651220    0.0009876080    
0.0139650670    0.0319780420    0.0009703691    
0.0141877280    0.0303745610    0.0009478177    
0.0144103890    0.0305072820    0.0009335077    
0.0146330500    0.0289929900    0.0009042665    
0.0148557110    0.0289461490    0.0008997474    
0.0150783720    0.0285246910    0.0008857916    
0.0153010330    0.0264961160    0.0008416769    
0.0155236940    0.0285068760    0.0008678385    
0.0157463550    0.0258438360    0.0008119929    
0.0159690160    0.0260025210    0.0008113911    
0.0161916770    0.0274377410    0.0008287873    
0.0164143380    0.0243985870    0.0007874610    
0.0166369990    0.0245166840    0.0007650266    
0.0168596600    0.0243211070    0.0007552556    
0.0170823210    0.0248237440    0.0007564138    
0.0173049820    0.0248171320    0.0007576205    
0.0175276430    0.0247055820    0.0007638872    
0.0177503040    0.0237087520    0.0007292412    
0.0179729650    0.0232628110    0.0007151866    
0.0181956260    0.0237331850    0.0007085322    
0.0184182870    0.0236357190    0.0007037433    
0.0186409480    0.0235539080    0.0007069708    
0.0188636090    0.0233633370    0.0006996767    
0.0190862700    0.0237916510    0.0007049571    
0.0193089310    0.0234051940    0.0006981184    
0.0195315920    0.0234142220    0.0006745066    
0.0197542530    0.0230147920    0.0006697028    
0.0199769140    0.0218260600    0.0006521783    
0.0201995750    0.0228472380    0.0006568119    
0.0204222360    0.0226073140    0.0006589625    
0.0206448970    0.0225143310    0.0006529323    
0.0208675580    0.0225593110    0.0006401254    
0.0210902190    0.0226264400    0.0006472628    
0.0213128800    0.0212778810    0.0006191608    
0.0215355410    0.0229199350    0.0006349524    
0.0217582020    0.0223218790    0.0006266138    
0.0219808630    0.0228773390    0.0006335293    
0.0222035240    0.0217066040    0.0006115143    
0.0224261850    0.0213219380    0.0006006776    
0.0226488460    0.0219030400    0.0006042362    
0.0228715070    0.0218275220    0.0006016951    
0.0230941680    0.0211309070    0.0005920160    
0.0233168290    0.0213696590    0.0005968340    
0.0235394900    0.0221233100    0.0006005652    
0.0237621510    0.0213958540    0.0005747090    
0.0239848120    0.0214608640    0.0005762474    
0.0242074730    0.0212252560    0.0005684883    
0.0244301340    0.0224488150    0.0005853115    
0.0246527950    0.0223534970    0.0005894759    
0.0248754560    0.0216422430    0.0005669862    
0.0250981170    0.0211420580    0.0005616456    
0.0253207780    0.0206005490    0.0005378532    
0.0255434390    0.0207127180    0.0005450715    
0.0257661000    0.0211645480    0.0005527669    
0.0259887610    0.0214802170    0.0005509559    
0.0262114220    0.0220810670    0.0005615848    
0.0264340830    0.0211785640    0.0005425053    
0.0266567440    0.0204509800    0.0005298110    
0.0268794050    0.0212373410    0.0005376973    
0.0271020660    0.0203500410    0.0005242141    
0.0273247270    0.0210002500    0.0005293246    
0.0275473880    0.0203719140    0.0005203083    
0.0277700490    0.0206702070    0.0005210057    
0.0279927100    0.0211111370    0.0005219393    
0.0282153710    0.0206914750    0.0005192377    
0.0284380320    0.0208386550    0.0005180604    
0.0286606930    0.0205847390    0.0005104875    
0.0288833540    0.0203580300    0.0005086329    
0.0291060150    0.0202559910    0.0005068752    
0.0293286760    0.0203243820    0.0005006552    
0.0295513370    0.0206442870    0.0004990854    
0.0297739980    0.0209903730    0.0005087921    
0.0299966590    0.0202437340    0.0004911271    
0.0302193200    0.0204823750    0.0005012127    
0.0304419810    0.0208655790    0.0005068105    
0.0306646420    0.0204483750    0.0004875575    
0.0308873030    0.0190965780    0.0004691312    
0.0311099640    0.0203543500    0.0004855918    
0.0313326250    0.0199851820    0.0004758377    
0.0315552860    0.0202624200    0.0004853361    
0.0317779470    0.0200415350    0.0004831039    
0.0320006080    0.0199086040    0.0004705592    
0.0322232690    0.0206924830    0.0004817419    
0.0324459300    0.0204399160    0.0004752184    
0.0326685910    0.0201633490    0.0004712143    
0.0328912520    0.0210398270    0.0004829410    
0.0331139130    0.0198696720    0.0004632141    
0.0333365740    0.0198250130    0.0004641957    
0.0335592350    0.0197121230    0.0004584215    
0.0337818960    0.0213092770    0.0004762519    
0.0340045570    0.0205095370    0.0004664874    
0.0342272170    0.0202848970    0.0004620957    
0.0344498780    0.0198305070    0.0004587005    
0.0346725390    0.0193787570    0.0004450479    
0.0348952000    0.0202356500    0.0004527093    
0.0351178610    0.0194094440    0.0004454004    
0.0353405220    0.0202964430    0.0004533891    
0.0355631830    0.0207369090    0.0004565564    
0.0357858440    0.0201941230    0.0004505417    
0.0360085050    0.0196286780    0.0004455314    
0.0362311660    0.0199645600    0.0004439859    
0.0364538270    0.0205100790    0.0004463990    
0.0366764880    0.0203153950    0.0004439529    
0.0368991490    0.0207065440    0.0004459470    
0.0371218100    0.0209797550    0.0004475952    
0.0373444710    0.0195460520    0.0004367356    
0.0375671320    0.0194599720    0.0004351382    
0.0377897930    0.0193518270    0.0004226942    
0.0380124540    0.0194832420    0.0004267882    
0.0382351150    0.0202311730    0.0004349030    
0.0384577760    0.0190540880    0.0004179895    
0.0386804370    0.0198208220    0.0004295699    
0.0389030980    0.0198426860    0.0004265519    
0.0391257590    0.0206325010    0.0004320055    
0.0393484200    0.0206196410    0.0004304173    
0.0395710810    0.0195311140    0.0004194666    
0.0397937420    0.0200266130    0.0004247543    
0.0400164030    0.0211526080    0.0004383078    
0.0402390640    0.0197441980    0.0004178257    
0.0404617250    0.0197565910    0.0004154911    
0.0406843860    0.0197023290    0.0004109113    
0.0409070470    0.0197824790    0.0004160355    
0.0411297080    0.0194959630    0.0004090162    
0.0413523690    0.0196828540    0.0004120313    
0.0415750300    0.0198256720    0.0004170362    
0.0417976910    0.0192795900    0.0004006162    
0.0420203520    0.0196428130    0.0004058918    
0.0422430130    0.0198932350    0.0004100173    
0.0424656740    0.0201772990    0.0004075598    
0.0426883350    0.0193388100    0.0004009820    
0.0429109960    0.0196271680    0.0004052226    
0.0431336570    0.0195903290    0.0003991382    
0.0433563180    0.0193589400    0.0004001968    
0.0435789790    0.0196371040    0.0003967294    
0.0438016400    0.0198594450    0.0004011395    
0.0440243010    0.0195934610    0.0003944015    
0.0442469620    0.0195879420    0.0003967089    
0.0444696230    0.0197109470    0.0003965255    
0.0446922840    0.0193085880    0.0003912921    
0.0449149450    0.0191971760    0.0003849457    
0.0451376060    0.0195556190    0.0003933212    
0.0453602670    0.0195118090    0.0003887617    
0.0455829280    0.0200463070    0.0003935948    
0.0458055890    0.0199133210    0.0003945747    
0.0460282500    0.0197717230    0.0003884283    
0.0462509110    0.0196320510    0.0003846465    
0.0464735720    0.0203030790    0.0003913858    
0.0466962330    0.0195287810    0.0003855951    
0.0469188940    0.0189639880    0.0003789011    
0.0471415550    0.0199700180    0.0003908184    
0.0473642160    0.0197641730    0.0003833550    
0.0475868770    0.0199732020    0.0003834624    
0.0478095380    0.0200104150    0.0003821399    
0.0480321990    0.0191086800    0.0003742486    
0.0482548600    0.0196618700    0.0003779731    
0.0484775210    0.0196911120    0.0003820098    
0.0487001820    0.0191835960    0.0003715352    
0.0489228430    0.0195439450    0.0003748069    
0.0491455040    0.0190264240    0.0003672535    
0.0493681650    0.0193043580    0.0003731051    
0.0495908260    0.0196012530    0.0003696376    
0.0498134870    0.0194363170    0.0003715831    
0.0500361480    0.0191781450    0.0003681304    
0.0502588090    0.0201846610    0.0003720082    
0.0504814700    0.0202373640    0.0003773632    
0.0507041310    0.0196216000    0.0003671600    
0.0509267920    0.0191261930    0.0003639949    
0.0511494530    0.0200476300    0.0003701749    
0.0513721140    0.0195745120    0.0003690021    
0.0515947750    0.0198919530    0.0003670502    
0.0518174360    0.0200076790    0.0003658989    
0.0520400970    0.0201271290    0.0003644449    
0.0522627580    0.0203632960    0.0003696922    
0.0524854190    0.0205661730    0.0003745500    
0.0527080800    0.0195004090    0.0003675399    
0.0529307410    0.0193203970    0.0003675578    
0.0531534020    0.0196311880    0.0003691534    
0.0533760630    0.0199149470    0.0003729757    
0.0535987240    0.0198539860    0.0003706657    
0.0538213850    0.0193323810    0.0003700020    
0.0540440460    0.0193883230    0.0003687833    
0.0542667070    0.0193222330    0.0003706914    
0.0544893680    0.0190438230    0.0003682072    
0.0547120290    0.0197177120    0.0003720985    
0.0549346900    0.0193518500    0.0003688242    
0.0551573510    0.0196158600    0.0003757028    
0.0553800120    0.0197081990    0.0003733846    
0.0556026730    0.0192883250    0.0003770445    
0.0558253340    0.0195377560    0.0003826521    
0.0560479950    0.0201448180    0.0003885516    
0.0562706560    0.0204445440    0.0003952159    
0.0564933170    0.0189355810    0.0003836542    
0.0567159780    0.0196983120    0.0003866132    
0.0569386390    0.0192643530    0.0003883279    
0.0571613000    0.0195978280    0.0003832411    
0.0573839610    0.0192147750    0.0003763265    
0.0576066220    0.0201661970    0.0003865981    
0.0578292830    0.0196501190    0.0003803565    
0.0580519440    0.0202034600    0.0003871702    
0.0582746050    0.0198123980    0.0003817141    
0.0584972660    0.0197048020    0.0003792191    
0.0587199270    0.0203635610    0.0003821827    
0.0589425880    0.0195660020    0.0003724325    
0.0591652490    0.0197252240    0.0003761453    
0.0593879100    0.0199845270    0.0003757978    
0.0596105710    0.0191737450    0.0003677074    
0.0598332320    0.0190008300    0.0003691744    
0.0600558930    0.0195028880    0.0003716353    
0.0602785540    0.0193415430    0.0003697036    
0.0605012150    0.0193797540    0.0003692889    
0.0607238760    0.0195490850    0.0003681958    
0.0609465370    0.0196115480    0.0003716869    
0.0611691980    0.0198221640    0.0003742697    
0.0613918590    0.0187626070    0.0003601540    
0.0616145200    0.0190943770    0.0003659834    
0.0618371810    0.0200347980    0.0003712058    
0.0620598420    0.0198418040    0.0003697944    
0.0622825030    0.0195723820    0.0003728918    
0.0625051640    0.0204146180    0.0003754819    
0.0627278250    0.0199042090    0.0003699948    
0.0629504860    0.0193383060    0.0003617323    
0.0631731470    0.0190985570    0.0003639306    
0.0633958080    0.0188420110    0.0003635584    
0.0636184690    0.0188801110    0.0003689943    
0.0638411300    0.0198981650    0.0003773902    
0.0640637910    0.0201935700    0.0003828552    
0.0642864520    0.0201351780    0.0003814740    
0.0645091130    0.0191143260    0.0003749349    
0.0647317740    0.0195545160    0.0003796457    
0.0649544350    0.0188643170    0.0003724752    
0.0651770960    0.0191391850    0.0003731325    
0.0653997570    0.0196864020    0.0003776084    
0.0656224180    0.0193574650    0.0003752546    
0.0658450790    0.0195187570    0.0003713986    
0.0660677400    0.0192006030    0.0003699270    
0.0662904010    0.0195595990    0.0003778266    
0.0665130620    0.0195349790    0.0003759508    
0.0667357230    0.0205580830    0.0003925272    
0.0669583840    0.0195348310    0.0003813535    
0.0671810450    0.0198645530    0.0003824352    
0.0674037060    0.0200179360    0.0003904128    
0.0676263670    0.0194782850    0.0003822948    
0.0678490280    0.0186626560    0.0003719166    
0.0680716890    0.0193190520    0.0003792426    
0.0682943500    0.0198886050    0.0003805778    
0.0685170110    0.0198064070    0.0003759205    
0.0687396720    0.0201200250    0.0003778783    
0.0689623330    0.0192451860    0.0003684006    
0.0691849940    0.0192410830    0.0003709135    
0.0694076550    0.0190991270    0.0003693455    
0.0696303160    0.0203374460    0.0003781135    
0.0698529770    0.0192862260    0.0003674400    
0.0700756380    0.0198584660    0.0003680651    
0.0702982990    0.0196938200    0.0003705277    
0.0705209600    0.0197608990    0.0003684786    
0.0707436210    0.0190283680    0.0003599239    
0.0709662820    0.0195962960    0.0003696099    
0.0711889430    0.0195531460    0.0003646680    
0.0714116040    0.0201042540    0.0003705263    
0.0716342650    0.0198735910    0.0003668988    
0.0718569260    0.0201505700    0.0003679587    
0.0720795870    0.0203206980    0.0003710035    
0.0723022480    0.0198391390    0.0003671397    
0.0725249090    0.0189290610    0.0003543252    
0.0727475700    0.0202927250    0.0003699998    
0.0729702310    0.0192267480    0.0003572782    
0.0731928920    0.0195346630    0.0003615671    
0.0734155530    0.0193967930    0.0003595700    
0.0736382140    0.0199645860    0.0003624537    
0.0738608750    0.0199700840    0.0003648455    
0.0740835360    0.0199042140    0.0003633390    
0.0743061970    0.0186255430    0.0003465255    
0.0745288580    0.0202476460    0.0003650151    
0.0747515190    0.0198388330    0.0003620249    
0.0749741800    0.0191944170    0.0003528004    
0.0751968410    0.0192664760    0.0003562373    
0.0754195020    0.0196533100    0.0003576878    
0.0756421630    0.0196278890    0.0003545344    
0.0758648240    0.0192140300    0.0003516200    
0.0760874850    0.0198448630    0.0003571740    
0.0763101460    0.0191651790    0.0003506673    
0.0765328070    0.0195724930    0.0003580001    
0.0767554680    0.0193142300    0.0003532172    
0.0769781290    0.0198463880    0.0003559926    
0.0772007900    0.0191397390    0.0003467936    
0.0774234510    0.0191102350    0.0003484972    
0.0776461120    0.0197780940    0.0003541982    
0.0778687730    0.0196413330    0.0003518055    
0.0780914340    0.0197951900    0.0003557043    
0.0783140950    0.0194444170    0.0003469453    
0.0785367560    0.0196929770    0.0003547852    
0.0787594170    0.0193793400    0.0003487953    
0.0789820780    0.0197156170    0.0003500059    
0.0792047390    0.0196383560    0.0003504615    
0.0794274000    0.0193762240    0.0003495896    
0.0796500610    0.0189503600    0.0003423522    
0.0798727220    0.0194710000    0.0003467029    
0.0800953830    0.0194983030    0.0003461480    
0.0803180440    0.0199142210    0.0003522572    
0.0805407050    0.0195724490    0.0003488966    
0.0807633660    0.0195920010    0.0003487469    
0.0809860270    0.0196139480    0.0003476536    
0.0812086880    0.0190705110    0.0003398412    
0.0814313490    0.0193487520    0.0003438725    
0.0816540100    0.0192850860    0.0003425247    
0.0818766710    0.0193243630    0.0003436562    
0.0820993320    0.0192905270    0.0003427295    
0.0823219930    0.0191982620    0.0003433191    
0.0825446540    0.0191925830    0.0003407743    
0.0827673150    0.0196041630    0.0003420950    
0.0829899760    0.0196593420    0.0003419663    
0.0832126370    0.0198538510    0.0003451930    
0.0834352980    0.0187793000    0.0003349710    
0.0836579590    0.0191300220    0.0003373319    
0.0838806200    0.0199323010    0.0003454103    
0.0841032810    0.0197801860    0.0003419538    
0.0843259420    0.0192590280    0.0003363798    
0.0845486030    0.0191415520    0.0003353525    
0.0847712640    0.0193790700    0.0003353704    
0.0849939250    0.0200872720    0.0003420380    
0.0852165860    0.0190596520    0.0003336106    
0.0854392470    0.0193363220    0.0003328411    
0.0856619080    0.0191163770    0.0003333801    
0.0858845690    0.0201153710    0.0003389001    
0.0861072300    0.0195894080    0.0003367489    
0.0863298910    0.0194733730    0.0003375082    
0.0865525520    0.0195122070    0.0003349272    
0.0867752130    0.0193400040    0.0003307555    
0.0869978740    0.0198708060    0.0003361181    
0.0872205350    0.0194176310    0.0003318405    
0.0874431960    0.0198429900    0.0003354557    
0.0876658570    0.0191841750    0.0003311063    
0.0878885180    0.0197144940    0.0003362271    
0.0881111790    0.0186401260    0.0003265176    
0.0883338400    0.0195199420    0.0003292425    
0.0885565010    0.0196478880    0.0003347991    
0.0887791620    0.0197474320    0.0003312936    
0.0890018230    0.0193730870    0.0003313212    
0.0892244840    0.0195242960    0.0003331772    
0.0894471450    0.0194442680    0.0003310892    
0.0896698060    0.0200028530    0.0003345445    
0.0898924670    0.0197256520    0.0003337583    
0.0901151280    0.0194897050    0.0003281728    
0.0903377890    0.0187553530    0.0003246251    
0.0905604500    0.0200979040    0.0003345008    
0.0907831110    0.0191227690    0.0003254733    
0.0910057720    0.0201596280    0.0003357141    
0.0912284330    0.0199612610    0.0003292754    
0.0914510940    0.0194592900    0.0003287342    
0.0916737550    0.0194015110    0.0003274313    
0.0918964160    0.0196913770    0.0003312400    
0.0921190770    0.0191453910    0.0003236624    
0.0923417380    0.0201139550    0.0003318845    
0.0925643990    0.0193290070    0.0003245480    
0.0927870600    0.0197680680    0.0003295594    
0.0930097210    0.0190331040    0.0003206208    
0.0932323820    0.0190125150    0.0003228029    
