# Diamond Light Source Ltd.
# Data extracted from: /dls/b21/data/2018/cm19678-3/processed/b21-386631_00247.dat
q(1/A)          Column          Error           
0.0035000000    2.0908611000    0.0246478820    
0.0037226610    1.8823369000    0.0228941220    
0.0039453220    1.6294640000    0.0193777940    
0.0041679830    1.3112381000    0.0142753750    
0.0043906440    0.9577809900    0.0116698470    
0.0046133050    0.7748180600    0.0100761770    
0.0048359660    0.5857464200    0.0082870207    
0.0050586270    0.4727837400    0.0073178973    
0.0052812880    0.4313480100    0.0066088060    
0.0055039490    0.3790003900    0.0058903281    
0.0057266100    0.3139229700    0.0051861534    
0.0059492710    0.2739115300    0.0048443888    
0.0061719320    0.2246713700    0.0042278092    
0.0063945930    0.1949439200    0.0039859248    
0.0066172539    0.1786407700    0.0035828615    
0.0068399149    0.1708306500    0.0034484863    
0.0070625759    0.1403401100    0.0030935642    
0.0072852369    0.1285624100    0.0029166049    
0.0075078979    0.1104638100    0.0026902414    
0.0077305589    0.1012517100    0.0025265599    
0.0079532199    0.0961964830    0.0024285538    
0.0081758809    0.0893130810    0.0023618214    
0.0083985419    0.0830196930    0.0021238285    
0.0086212029    0.0800314310    0.0020852552    
0.0088438639    0.0705711070    0.0019424058    
0.0090665249    0.0621905990    0.0017611304    
0.0092891859    0.0626451350    0.0018448994    
0.0095118469    0.0625074760    0.0017722369    
0.0097345079    0.0561171860    0.0016308726    
0.0099571689    0.0534630050    0.0015590129    
0.0101798300    0.0495533040    0.0015009263    
0.0104024910    0.0475929290    0.0014659600    
0.0106251520    0.0452799160    0.0014347490    
0.0108478130    0.0465214710    0.0014162591    
0.0110704740    0.0437709220    0.0013079064    
0.0112931350    0.0419842310    0.0012846966    
0.0115157960    0.0405635550    0.0012554105    
0.0117384570    0.0384934230    0.0012124289    
0.0119611180    0.0381001390    0.0012096806    
0.0121837790    0.0367558870    0.0011681788    
0.0124064400    0.0356648110    0.0011027424    
0.0126291010    0.0340794230    0.0010644623    
0.0128517620    0.0347844590    0.0010781021    
0.0130744230    0.0337766010    0.0010544895    
0.0132970840    0.0331862850    0.0010401231    
0.0135197450    0.0327493670    0.0010184569    
0.0137424060    0.0317206750    0.0009883797    
0.0139650670    0.0303821760    0.0009457558    
0.0141877280    0.0294520850    0.0009332250    
0.0144103890    0.0293876440    0.0009161300    
0.0146330500    0.0296078120    0.0009137169    
0.0148557110    0.0287169310    0.0008960924    
0.0150783720    0.0295918140    0.0009021224    
0.0153010330    0.0279345700    0.0008641395    
0.0155236940    0.0285014370    0.0008676729    
0.0157463550    0.0268591980    0.0008277112    
0.0159690160    0.0268329250    0.0008241667    
0.0161916770    0.0270570620    0.0008229393    
0.0164143380    0.0267062730    0.0008237813    
0.0166369990    0.0266362210    0.0007973344    
0.0168596600    0.0253716660    0.0007713213    
0.0170823210    0.0252107660    0.0007622148    
0.0173049820    0.0253905050    0.0007662495    
0.0175276430    0.0235437530    0.0007456382    
0.0177503040    0.0237490810    0.0007297915    
0.0179729650    0.0247092730    0.0007370158    
0.0181956260    0.0244688560    0.0007193612    
0.0184182870    0.0224789790    0.0006862411    
0.0186409480    0.0224674140    0.0006904069    
0.0188636090    0.0230865340    0.0006954532    
0.0190862700    0.0242883330    0.0007122096    
0.0193089310    0.0227969730    0.0006889221    
0.0195315920    0.0238177260    0.0006802289    
0.0197542530    0.0219972420    0.0006546682    
0.0199769140    0.0226597000    0.0006644531    
0.0201995750    0.0225219460    0.0006520572    
0.0204222360    0.0231407100    0.0006666274    
0.0206448970    0.0219420790    0.0006445195    
0.0208675580    0.0224460460    0.0006384555    
0.0210902190    0.0232145190    0.0006555577    
0.0213128800    0.0216881300    0.0006250415    
0.0215355410    0.0233200580    0.0006404096    
0.0217582020    0.0225286620    0.0006294494    
0.0219808630    0.0211715340    0.0006093947    
0.0222035240    0.0218230320    0.0006130936    
0.0224261850    0.0211148430    0.0005976963    
0.0226488460    0.0213655560    0.0005967194    
0.0228715070    0.0223706000    0.0006090762    
0.0230941680    0.0206127990    0.0005846574    
0.0233168290    0.0215655720    0.0005995064    
0.0235394900    0.0206357900    0.0005799683    
0.0237621510    0.0213917720    0.0005745994    
0.0239848120    0.0207915630    0.0005671364    
0.0242074730    0.0214343320    0.0005712269    
0.0244301340    0.0209492470    0.0005653705    
0.0246527950    0.0204375810    0.0005635943    
0.0248754560    0.0208807060    0.0005568683    
0.0250981170    0.0208396760    0.0005575615    
0.0253207780    0.0212424560    0.0005461165    
0.0255434390    0.0210386160    0.0005492905    
0.0257661000    0.0207996560    0.0005479288    
0.0259887610    0.0209392160    0.0005439216    
0.0262114220    0.0216341750    0.0005558198    
0.0264340830    0.0204103510    0.0005325245    
0.0266567440    0.0217095830    0.0005458185    
0.0268794050    0.0216280110    0.0005425686    
0.0271020660    0.0208727020    0.0005308526    
0.0273247270    0.0194755500    0.0005096984    
0.0275473880    0.0209924880    0.0005281233    
0.0277700490    0.0208369500    0.0005230530    
0.0279927100    0.0199201580    0.0005069547    
0.0282153710    0.0192805670    0.0005011745    
0.0284380320    0.0213239980    0.0005240087    
0.0286606930    0.0207580150    0.0005125826    
0.0288833540    0.0203541450    0.0005085359    
0.0291060150    0.0198590040    0.0005018357    
0.0293286760    0.0197286450    0.0004932161    
0.0295513370    0.0204955890    0.0004972373    
0.0297739980    0.0211589940    0.0005107829    
0.0299966590    0.0210618560    0.0005009052    
0.0302193200    0.0204539420    0.0005008169    
0.0304419810    0.0208246750    0.0005062652    
0.0306646420    0.0199563170    0.0004816097    
0.0308873030    0.0207752330    0.0004892694    
0.0311099640    0.0201998940    0.0004836997    
0.0313326250    0.0201965880    0.0004783021    
0.0315552860    0.0201655720    0.0004841287    
0.0317779470    0.0200842840    0.0004835727    
0.0320006080    0.0200938460    0.0004726982    
0.0322232690    0.0203184970    0.0004773231    
0.0324459300    0.0205133420    0.0004760258    
0.0326685910    0.0212715230    0.0004839439    
0.0328912520    0.0199829140    0.0004706098    
0.0331139130    0.0200170340    0.0004648843    
0.0333365740    0.0194191560    0.0004593758    
0.0335592350    0.0203478980    0.0004657111    
0.0337818960    0.0204006450    0.0004659430    
0.0340045570    0.0196994020    0.0004571378    
0.0342272170    0.0198916140    0.0004575506    
0.0344498780    0.0208345030    0.0004701240    
0.0346725390    0.0195590010    0.0004470702    
0.0348952000    0.0200191430    0.0004502380    
0.0351178610    0.0199780010    0.0004518337    
0.0353405220    0.0205659740    0.0004563461    
0.0355631830    0.0195571140    0.0004433364    
0.0357858440    0.0200596210    0.0004489960    
0.0360085050    0.0201304700    0.0004511472    
0.0362311660    0.0198916480    0.0004431321    
0.0364538270    0.0205061660    0.0004463138    
0.0366764880    0.0193900320    0.0004336827    
0.0368991490    0.0205777640    0.0004445157    
0.0371218100    0.0201642190    0.0004387675    
0.0373444710    0.0205277330    0.0004475258    
0.0375671320    0.0198356570    0.0004392765    
0.0377897930    0.0197635290    0.0004271262    
0.0380124540    0.0202272990    0.0004348198    
0.0382351150    0.0195169270    0.0004271163    
0.0384577760    0.0195913460    0.0004238010    
0.0386804370    0.0199845870    0.0004312997    
0.0389030980    0.0202147760    0.0004304915    
0.0391257590    0.0197242000    0.0004223491    
0.0393484200    0.0192682750    0.0004160343    
0.0395710810    0.0206893040    0.0004316834    
0.0397937420    0.0198156290    0.0004224706    
0.0400164030    0.0197047670    0.0004230011    
0.0402390640    0.0195989860    0.0004162467    
0.0404617250    0.0202944730    0.0004210689    
0.0406843860    0.0197756850    0.0004116363    
0.0409070470    0.0197962000    0.0004161401    
0.0411297080    0.0202472250    0.0004167825    
0.0413523690    0.0197825830    0.0004130345    
0.0415750300    0.0193658110    0.0004121318    
0.0417976910    0.0203495700    0.0004115436    
0.0420203520    0.0206034090    0.0004156583    
0.0422430130    0.0199485840    0.0004105481    
0.0424656740    0.0194162250    0.0003997614    
0.0426883350    0.0201996310    0.0004097701    
0.0429109960    0.0196401530    0.0004053179    
0.0431336570    0.0202289080    0.0004055527    
0.0433563180    0.0198019060    0.0004047109    
0.0435789790    0.0198016440    0.0003983501    
0.0438016400    0.0193776950    0.0003962064    
0.0440243010    0.0191769730    0.0003901500    
0.0442469620    0.0197046980    0.0003978515    
0.0444696230    0.0193801960    0.0003931471    
0.0446922840    0.0196378840    0.0003945769    
0.0449149450    0.0194867800    0.0003878014    
0.0451376060    0.0201213610    0.0003989319    
0.0453602670    0.0199650050    0.0003932131    
0.0455829280    0.0194243640    0.0003874041    
0.0458055890    0.0198860710    0.0003942670    
0.0460282500    0.0200655000    0.0003912660    
0.0462509110    0.0201030020    0.0003891957    
0.0464735720    0.0196052160    0.0003845639    
0.0466962330    0.0201416370    0.0003915614    
0.0469188940    0.0195810290    0.0003849792    
0.0471415550    0.0196603300    0.0003877392    
0.0473642160    0.0206450860    0.0003917678    
0.0475868770    0.0197338510    0.0003811215    
0.0478095380    0.0198679660    0.0003807410    
0.0480321990    0.0197645860    0.0003805811    
0.0482548600    0.0198978520    0.0003801983    
0.0484775210    0.0195984400    0.0003810734    
0.0487001820    0.0193525990    0.0003731326    
0.0489228430    0.0198923570    0.0003780970    
0.0491455040    0.0201993160    0.0003783679    
0.0493681650    0.0190411220    0.0003705172    
0.0495908260    0.0195905440    0.0003695014    
0.0498134870    0.0198871730    0.0003758322    
0.0500361480    0.0192592660    0.0003688730    
0.0502588090    0.0197009680    0.0003674889    
0.0504814700    0.0192767030    0.0003682625    
0.0507041310    0.0199269610    0.0003699706    
0.0509267920    0.0194619160    0.0003671406    
0.0511494530    0.0197021110    0.0003669361    
0.0513721140    0.0201410700    0.0003742685    
0.0515947750    0.0199761880    0.0003677914    
0.0518174360    0.0196693500    0.0003627575    
0.0520400970    0.0191798030    0.0003557309    
0.0522627580    0.0199232340    0.0003656409    
0.0524854190    0.0197915910    0.0003673940    
0.0527080800    0.0190118690    0.0003628721    
0.0529307410    0.0190510440    0.0003649518    
0.0531534020    0.0193567670    0.0003665292    
0.0533760630    0.0197784530    0.0003716599    
0.0535987240    0.0193866350    0.0003662422    
0.0538213850    0.0195269360    0.0003718236    
0.0540440460    0.0187884980    0.0003629992    
0.0542667070    0.0192829950    0.0003702795    
0.0544893680    0.0200082140    0.0003773792    
0.0547120290    0.0195384340    0.0003703677    
0.0549346900    0.0189124200    0.0003645778    
0.0551573510    0.0190869220    0.0003705675    
0.0553800120    0.0202065980    0.0003780403    
0.0556026730    0.0195130830    0.0003791988    
0.0558253340    0.0191893540    0.0003791889    
0.0560479950    0.0200360740    0.0003874645    
0.0562706560    0.0192948670    0.0003839062    
0.0564933170    0.0191262620    0.0003855443    
0.0567159780    0.0196186890    0.0003857942    
0.0569386390    0.0193780730    0.0003894353    
0.0571613000    0.0196165680    0.0003833877    
0.0573839610    0.0196827280    0.0003808451    
0.0576066220    0.0197844450    0.0003828849    
0.0578292830    0.0195212340    0.0003790710    
0.0580519440    0.0201921870    0.0003870253    
0.0582746050    0.0199997930    0.0003834785    
0.0584972660    0.0200804700    0.0003827804    
0.0587199270    0.0199437330    0.0003781864    
0.0589425880    0.0199237450    0.0003757860    
0.0591652490    0.0197071170    0.0003759367    
0.0593879100    0.0193095090    0.0003693613    
0.0596105710    0.0196354150    0.0003720724    
0.0598332320    0.0194992070    0.0003739490    
0.0600558930    0.0201930380    0.0003781176    
0.0602785540    0.0191117620    0.0003674659    
0.0605012150    0.0194534480    0.0003699551    
0.0607238760    0.0198642930    0.0003711170    
0.0609465370    0.0204881860    0.0003798671    
0.0611691980    0.0193732630    0.0003699722    
0.0613918590    0.0201068570    0.0003727969    
0.0616145200    0.0196237600    0.0003709867    
0.0618371810    0.0201616280    0.0003723433    
0.0620598420    0.0204788440    0.0003756480    
0.0622825030    0.0193626630    0.0003708533    
0.0625051640    0.0189814200    0.0003620273    
0.0627278250    0.0199210410    0.0003701159    
0.0629504860    0.0195646300    0.0003638082    
0.0631731470    0.0196287940    0.0003689128    
0.0633958080    0.0192802700    0.0003677272    
0.0636184690    0.0199003680    0.0003787970    
0.0638411300    0.0195079320    0.0003736356    
0.0640637910    0.0195002770    0.0003761897    
0.0642864520    0.0189173870    0.0003697229    
0.0645091130    0.0196548080    0.0003801625    
0.0647317740    0.0189612400    0.0003738065    
0.0649544350    0.0189563090    0.0003733467    
0.0651770960    0.0199428480    0.0003808496    
0.0653997570    0.0192771170    0.0003736268    
0.0656224180    0.0192664940    0.0003743361    
0.0658450790    0.0204759470    0.0003803600    
0.0660677400    0.0192396950    0.0003702681    
0.0662904010    0.0190304860    0.0003726457    
0.0665130620    0.0199942150    0.0003803079    
0.0667357230    0.0199472030    0.0003866143    
0.0669583840    0.0192705910    0.0003787294    
0.0671810450    0.0199564600    0.0003832823    
0.0674037060    0.0197628930    0.0003878807    
0.0676263670    0.0198271510    0.0003856664    
0.0678490280    0.0194075340    0.0003792299    
0.0680716890    0.0196577580    0.0003825162    
0.0682943500    0.0197027820    0.0003787596    
0.0685170110    0.0195458220    0.0003734037    
0.0687396720    0.0189312120    0.0003665097    
0.0689623330    0.0196716100    0.0003724241    
0.0691849940    0.0197449770    0.0003757031    
0.0694076550    0.0192811540    0.0003710660    
0.0696303160    0.0201016240    0.0003758791    
0.0698529770    0.0191915580    0.0003665021    
0.0700756380    0.0200456540    0.0003697604    
0.0702982990    0.0196064240    0.0003696694    
0.0705209600    0.0200181760    0.0003708342    
0.0707436210    0.0197734750    0.0003668681    
0.0709662820    0.0194043690    0.0003677603    
0.0711889430    0.0195086160    0.0003642178    
0.0714116040    0.0194791080    0.0003646852    
0.0716342650    0.0201271460    0.0003691967    
0.0718569260    0.0198444240    0.0003651180    
0.0720795870    0.0193483860    0.0003619842    
0.0723022480    0.0185650760    0.0003551215    
0.0725249090    0.0188259810    0.0003533254    
0.0727475700    0.0196480820    0.0003640407    
0.0729702310    0.0188845520    0.0003540508    
0.0731928920    0.0193837350    0.0003601332    
0.0734155530    0.0197263070    0.0003625767    
0.0736382140    0.0197897220    0.0003608285    
0.0738608750    0.0199062950    0.0003642276    
0.0740835360    0.0194295970    0.0003589467    
0.0743061970    0.0192472340    0.0003522276    
0.0745288580    0.0191516580    0.0003549648    
0.0747515190    0.0191217000    0.0003553876    
0.0749741800    0.0197483240    0.0003578206    
0.0751968410    0.0195854940    0.0003591402    
0.0754195020    0.0186927920    0.0003488044    
0.0756421630    0.0201555650    0.0003592341    
0.0758648240    0.0196478410    0.0003555333    
0.0760874850    0.0193590280    0.0003527411    
0.0763101460    0.0191615230    0.0003506004    
0.0765328070    0.0198437300    0.0003604378    
0.0767554680    0.0199176330    0.0003586580    
0.0769781290    0.0192169340    0.0003502683    
0.0772007900    0.0199590780    0.0003541048    
0.0774234510    0.0193289810    0.0003504527    
0.0776461120    0.0193557500    0.0003503626    
0.0778687730    0.0191839750    0.0003476522    
0.0780914340    0.0196252600    0.0003541404    
0.0783140950    0.0196882810    0.0003490808    
0.0785367560    0.0192610540    0.0003508395    
0.0787594170    0.0192814950    0.0003478805    
0.0789820780    0.0192645650    0.0003459460    
0.0792047390    0.0198472130    0.0003522866    
0.0794274000    0.0196626100    0.0003521301    
0.0796500610    0.0191075200    0.0003437361    
0.0798727220    0.0194117350    0.0003461418    
0.0800953830    0.0193717050    0.0003449895    
0.0803180440    0.0194930250    0.0003484789    
0.0805407050    0.0201718810    0.0003541653    
0.0807633660    0.0198054960    0.0003506084    
0.0809860270    0.0194808270    0.0003464387    
0.0812086880    0.0195088800    0.0003436921    
0.0814313490    0.0197605580    0.0003474795    
0.0816540100    0.0195429520    0.0003447742    
0.0818766710    0.0194184410    0.0003444589    
0.0820993320    0.0200295850    0.0003491998    
0.0823219930    0.0195997290    0.0003468571    
0.0825446540    0.0196305330    0.0003446075    
0.0827673150    0.0193676530    0.0003399927    
0.0829899760    0.0190073430    0.0003362157    
0.0832126370    0.0197360520    0.0003441346    
0.0834352980    0.0194567320    0.0003409267    
0.0836579590    0.0190550060    0.0003366378    
0.0838806200    0.0201618960    0.0003473608    
0.0841032810    0.0192385600    0.0003372074    
0.0843259420    0.0195255640    0.0003386672    
0.0845486030    0.0196137040    0.0003394309    
0.0847712640    0.0197177350    0.0003382559    
0.0849939250    0.0196350710    0.0003381339    
0.0852165860    0.0193712810    0.0003362948    
0.0854392470    0.0199455500    0.0003380116    
0.0856619080    0.0193336190    0.0003352371    
0.0858845690    0.0195292510    0.0003338943    
0.0861072300    0.0195856710    0.0003366846    
0.0863298910    0.0198498100    0.0003407222    
0.0865525520    0.0193245510    0.0003332810    
0.0867752130    0.0197152360    0.0003339168    
0.0869978740    0.0190711980    0.0003292545    
0.0872205350    0.0197257740    0.0003344312    
0.0874431960    0.0204912500    0.0003408587    
0.0876658570    0.0195347570    0.0003340861    
0.0878885180    0.0191546120    0.0003313867    
0.0881111790    0.0194600320    0.0003335897    
0.0883338400    0.0195550830    0.0003295073    
0.0885565010    0.0198437760    0.0003364319    
0.0887791620    0.0201548750    0.0003346619    
0.0890018230    0.0195053560    0.0003324186    
0.0892244840    0.0191056030    0.0003295539    
0.0894471450    0.0197392970    0.0003335597    
0.0896698060    0.0193668990    0.0003291520    
0.0898924670    0.0192871370    0.0003299961    
0.0901151280    0.0196296320    0.0003293173    
0.0903377890    0.0197798080    0.0003333412    
0.0905604500    0.0192980990    0.0003277462    
0.0907831110    0.0195788220    0.0003293001    
0.0910057720    0.0199936860    0.0003342977    
0.0912284330    0.0190668340    0.0003217831    
0.0914510940    0.0193722920    0.0003279673    
0.0916737550    0.0189060960    0.0003231929    
0.0918964160    0.0193923620    0.0003286841    
0.0921190770    0.0196997430    0.0003282835    
0.0923417380    0.0193655010    0.0003256201    
0.0925643990    0.0191346280    0.0003228812    
0.0927870600    0.0196764060    0.0003287630    
0.0930097210    0.0193210710    0.0003230063    
0.0932323820    0.0193869830    0.0003259352    
