# Diamond Light Source Ltd.
# Data extracted from: /dls/b21/data/2018/cm19678-3/processed/b21-386631_00249.dat
q(1/A)          Column          Error           
0.0035000000    2.0938867000    0.0246664160    
0.0037226610    1.8997097000    0.0230001880    
0.0039453220    1.6164213000    0.0193006390    
0.0041679830    1.2778970000    0.0140931190    
0.0043906440    0.9867017500    0.0118450650    
0.0046133050    0.7808904600    0.0101158740    
0.0048359660    0.5989119500    0.0083798749    
0.0050586270    0.4562726400    0.0071891856    
0.0052812880    0.4377521800    0.0066578759    
0.0055039490    0.3861631000    0.0059458984    
0.0057266100    0.3148834600    0.0051942300    
0.0059492710    0.2738415300    0.0048439085    
0.0061719320    0.2306514200    0.0042838279    
0.0063945930    0.2001712700    0.0040391276    
0.0066172539    0.1813817900    0.0036103476    
0.0068399149    0.1708404400    0.0034486839    
0.0070625759    0.1443717400    0.0031377747    
0.0072852369    0.1275772100    0.0029054914    
0.0075078979    0.1161050400    0.0027581584    
0.0077305589    0.0999965210    0.0025109224    
0.0079532199    0.0960180510    0.0024263699    
0.0081758809    0.0883812930    0.0023495362    
0.0083985419    0.0818834050    0.0021093045    
0.0086212029    0.0755805140    0.0020264985    
0.0088438639    0.0707355480    0.0019447232    
0.0090665249    0.0676804150    0.0018372704    
0.0092891859    0.0620510340    0.0018361830    
0.0095118469    0.0593955540    0.0017276080    
0.0097345079    0.0581111580    0.0016596415    
0.0099571689    0.0538297820    0.0015643963    
0.0101798300    0.0517384320    0.0015337060    
0.0104024910    0.0491309990    0.0014895022    
0.0106251520    0.0451006530    0.0014319472    
0.0108478130    0.0475589640    0.0014320053    
0.0110704740    0.0445941810    0.0013201867    
0.0112931350    0.0430087820    0.0013003147    
0.0115157960    0.0439075120    0.0013061697    
0.0117384570    0.0413980760    0.0012573770    
0.0119611180    0.0382943700    0.0012127949    
0.0121837790    0.0353470800    0.0011456055    
0.0124064400    0.0360419360    0.0011085891    
0.0126291010    0.0346466270    0.0010733148    
0.0128517620    0.0339176260    0.0010646146    
0.0130744230    0.0338114590    0.0010550637    
0.0132970840    0.0315581180    0.0010143163    
0.0135197450    0.0313258990    0.0009961056    
0.0137424060    0.0318764850    0.0009908325    
0.0139650670    0.0302367070    0.0009435160    
0.0141877280    0.0302817900    0.0009463059    
0.0144103890    0.0289323510    0.0009090316    
0.0146330500    0.0283405300    0.0008939741    
0.0148557110    0.0278517060    0.0008825151    
0.0150783720    0.0280808300    0.0008788142    
0.0153010330    0.0276421060    0.0008596286    
0.0155236940    0.0264690230    0.0008361882    
0.0157463550    0.0260444550    0.0008150841    
0.0159690160    0.0275939280    0.0008357960    
0.0161916770    0.0274090470    0.0008282985    
0.0164143380    0.0254372130    0.0008039934    
0.0166369990    0.0244418040    0.0007638064    
0.0168596600    0.0239426570    0.0007493064    
0.0170823210    0.0242212370    0.0007471279    
0.0173049820    0.0254150860    0.0007666422    
0.0175276430    0.0251273710    0.0007703290    
0.0177503040    0.0236158780    0.0007277629    
0.0179729650    0.0235455050    0.0007194710    
0.0181956260    0.0237511660    0.0007087532    
0.0184182870    0.0241982360    0.0007120209    
0.0186409480    0.0241236190    0.0007154219    
0.0188636090    0.0227316910    0.0006901077    
0.0190862700    0.0236631620    0.0007030040    
0.0193089310    0.0233187880    0.0006967821    
0.0195315920    0.0232168130    0.0006716123    
0.0197542530    0.0242003010    0.0006866888    
0.0199769140    0.0234793670    0.0006763833    
0.0201995750    0.0230896210    0.0006602427    
0.0204222360    0.0235453410    0.0006724496    
0.0206448970    0.0227006550    0.0006555847    
0.0208675580    0.0217572040    0.0006286004    
0.0210902190    0.0218458550    0.0006359574    
0.0213128800    0.0219956170    0.0006294748    
0.0215355410    0.0218088450    0.0006193296    
0.0217582020    0.0222309600    0.0006252946    
0.0219808630    0.0226813270    0.0006307673    
0.0222035240    0.0216692550    0.0006109472    
0.0224261850    0.0213529310    0.0006010738    
0.0226488460    0.0223001180    0.0006096479    
0.0228715070    0.0219738640    0.0006036685    
0.0230941680    0.0218412000    0.0006018436    
0.0233168290    0.0204501330    0.0005838131    
0.0235394900    0.0222344630    0.0006020318    
0.0237621510    0.0218406150    0.0005806128    
0.0239848120    0.0210712290    0.0005709543    
0.0242074730    0.0210397320    0.0005659606    
0.0244301340    0.0216828740    0.0005752012    
0.0246527950    0.0213557750    0.0005761320    
0.0248754560    0.0208967540    0.0005570982    
0.0250981170    0.0207961150    0.0005569944    
0.0253207780    0.0215525700    0.0005501041    
0.0255434390    0.0204231120    0.0005412114    
0.0257661000    0.0212483330    0.0005538230    
0.0259887610    0.0198806780    0.0005300101    
0.0262114220    0.0212926750    0.0005514313    
0.0264340830    0.0206894170    0.0005361680    
0.0266567440    0.0202149480    0.0005267096    
0.0268794050    0.0206628070    0.0005303388    
0.0271020660    0.0203608260    0.0005243179    
0.0273247270    0.0210508070    0.0005299260    
0.0275473880    0.0202894710    0.0005192198    
0.0277700490    0.0208906660    0.0005237418    
0.0279927100    0.0202051510    0.0005105829    
0.0282153710    0.0198939950    0.0005090993    
0.0284380320    0.0197026490    0.0005037081    
0.0286606930    0.0202402240    0.0005061638    
0.0288833540    0.0207364970    0.0005133048    
0.0291060150    0.0202152400    0.0005063313    
0.0293286760    0.0205559590    0.0005034658    
0.0295513370    0.0203158030    0.0004950658    
0.0297739980    0.0212465240    0.0005118530    
0.0299966590    0.0202529450    0.0004912061    
0.0302193200    0.0201975850    0.0004976828    
0.0304419810    0.0198535020    0.0004943334    
0.0306646420    0.0203759040    0.0004866603    
0.0308873030    0.0210299350    0.0004922735    
0.0311099640    0.0195871430    0.0004763205    
0.0313326250    0.0207528140    0.0004848577    
0.0315552860    0.0205270550    0.0004884626    
0.0317779470    0.0197943410    0.0004800833    
0.0320006080    0.0204063750    0.0004763738    
0.0322232690    0.0203196610    0.0004773505    
0.0324459300    0.0199842550    0.0004698602    
0.0326685910    0.0200615600    0.0004699921    
0.0328912520    0.0196737120    0.0004669680    
0.0331139130    0.0216377750    0.0004833522    
0.0333365740    0.0199962470    0.0004661649    
0.0335592350    0.0208287430    0.0004711951    
0.0337818960    0.0207849460    0.0004703247    
0.0340045570    0.0211857610    0.0004740837    
0.0342272170    0.0205768960    0.0004653787    
0.0344498780    0.0198596860    0.0004590072    
0.0346725390    0.0198871450    0.0004508178    
0.0348952000    0.0199899100    0.0004499220    
0.0351178610    0.0201426580    0.0004537049    
0.0353405220    0.0201013280    0.0004511744    
0.0355631830    0.0195783350    0.0004435895    
0.0357858440    0.0199401650    0.0004476699    
0.0360085050    0.0198586180    0.0004481034    
0.0362311660    0.0199224050    0.0004434873    
0.0364538270    0.0204587680    0.0004458105    
0.0366764880    0.0200410710    0.0004409159    
0.0368991490    0.0206077510    0.0004448522    
0.0371218100    0.0198789340    0.0004356651    
0.0373444710    0.0204898800    0.0004471258    
0.0375671320    0.0204399720    0.0004459306    
0.0377897930    0.0204385610    0.0004343717    
0.0380124540    0.0191908610    0.0004235454    
0.0382351150    0.0198078240    0.0004302999    
0.0384577760    0.0196566450    0.0004245189    
0.0386804370    0.0206094130    0.0004380027    
0.0389030980    0.0197391860    0.0004254095    
0.0391257590    0.0193906960    0.0004187753    
0.0393484200    0.0201317850    0.0004252667    
0.0395710810    0.0204202600    0.0004288797    
0.0397937420    0.0206094350    0.0004308619    
0.0400164030    0.0199964900    0.0004261330    
0.0402390640    0.0196443120    0.0004167396    
0.0404617250    0.0197976370    0.0004158947    
0.0406843860    0.0196140100    0.0004099619    
0.0409070470    0.0198673210    0.0004168989    
0.0411297080    0.0194247220    0.0004082410    
0.0413523690    0.0197147230    0.0004123373    
0.0415750300    0.0199633650    0.0004184539    
0.0417976910    0.0194684540    0.0004025468    
0.0420203520    0.0195898730    0.0004053174    
0.0422430130    0.0196624370    0.0004076047    
0.0424656740    0.0194091070    0.0003996995    
0.0426883350    0.0192530970    0.0004000657    
0.0429109960    0.0198002150    0.0004069779    
0.0431336570    0.0194576170    0.0003977574    
0.0433563180    0.0198278560    0.0004049876    
0.0435789790    0.0204679460    0.0004050082    
0.0438016400    0.0198892000    0.0004014131    
0.0440243010    0.0202496940    0.0004009251    
0.0442469620    0.0196977940    0.0003977932    
0.0444696230    0.0192696440    0.0003920354    
0.0446922840    0.0197737940    0.0003959513    
0.0449149450    0.0198737960    0.0003916447    
0.0451376060    0.0194580910    0.0003923130    
0.0453602670    0.0192613690    0.0003862329    
0.0455829280    0.0200668110    0.0003937698    
0.0458055890    0.0191914710    0.0003873312    
0.0460282500    0.0200819090    0.0003914372    
0.0462509110    0.0199760540    0.0003879760    
0.0464735720    0.0194479190    0.0003830290    
0.0466962330    0.0198306760    0.0003885381    
0.0469188940    0.0194761790    0.0003839581    
0.0471415550    0.0193937970    0.0003851130    
0.0473642160    0.0195087540    0.0003808444    
0.0475868770    0.0206330300    0.0003897189    
0.0478095380    0.0194094080    0.0003763323    
0.0480321990    0.0188642790    0.0003718227    
0.0482548600    0.0194994140    0.0003763833    
0.0484775210    0.0197477640    0.0003825334    
0.0487001820    0.0194760180    0.0003743312    
0.0489228430    0.0200947310    0.0003800263    
0.0491455040    0.0198248150    0.0003748547    
0.0493681650    0.0206861450    0.0003862018    
0.0495908260    0.0200725710    0.0003740303    
0.0498134870    0.0194408250    0.0003716014    
0.0500361480    0.0202919230    0.0003786439    
0.0502588090    0.0191399630    0.0003622291    
0.0504814700    0.0193200220    0.0003686866    
0.0507041310    0.0202509640    0.0003729769    
0.0509267920    0.0199617270    0.0003718357    
0.0511494530    0.0200381200    0.0003700624    
0.0513721140    0.0197249120    0.0003703923    
0.0515947750    0.0198825250    0.0003669387    
0.0518174360    0.0197708360    0.0003637025    
0.0520400970    0.0197417470    0.0003609149    
0.0522627580    0.0198102920    0.0003646135    
0.0524854190    0.0191925320    0.0003618014    
0.0527080800    0.0199272420    0.0003715158    
0.0529307410    0.0198561710    0.0003725944    
0.0531534020    0.0199409020    0.0003720292    
0.0533760630    0.0198913350    0.0003727296    
0.0535987240    0.0196437570    0.0003686735    
0.0538213850    0.0191032240    0.0003677780    
0.0540440460    0.0196873220    0.0003715912    
0.0542667070    0.0203293660    0.0003802041    
0.0544893680    0.0192050000    0.0003697374    
0.0547120290    0.0193710490    0.0003687884    
0.0549346900    0.0196374320    0.0003715108    
0.0551573510    0.0195628770    0.0003751700    
0.0553800120    0.0196843490    0.0003731337    
0.0556026730    0.0193741830    0.0003778575    
0.0558253340    0.0195276540    0.0003825277    
0.0560479950    0.0192204460    0.0003795070    
0.0562706560    0.0196779200    0.0003877093    
0.0564933170    0.0195315110    0.0003896185    
0.0567159780    0.0191190750    0.0003808611    
0.0569386390    0.0196766010    0.0003924347    
0.0571613000    0.0201871900    0.0003889350    
0.0573839610    0.0188363670    0.0003725776    
0.0576066220    0.0199708360    0.0003846953    
0.0578292830    0.0191174770    0.0003751411    
0.0580519440    0.0192215110    0.0003776190    
0.0582746050    0.0196994540    0.0003805992    
0.0584972660    0.0196875770    0.0003790280    
0.0587199270    0.0194428470    0.0003734179    
0.0589425880    0.0197335060    0.0003739983    
0.0591652490    0.0197297620    0.0003761634    
0.0593879100    0.0194519300    0.0003707316    
0.0596105710    0.0196647420    0.0003723608    
0.0598332320    0.0195433560    0.0003743828    
0.0600558930    0.0192595400    0.0003692848    
0.0602785540    0.0192188430    0.0003685045    
0.0605012150    0.0193068060    0.0003685686    
0.0607238760    0.0195742100    0.0003684078    
0.0609465370    0.0194046700    0.0003696966    
0.0611691980    0.0190140180    0.0003665364    
0.0613918590    0.0199766740    0.0003715988    
0.0616145200    0.0193583560    0.0003684800    
0.0618371810    0.0199977390    0.0003708376    
0.0620598420    0.0191293840    0.0003630707    
0.0622825030    0.0192785310    0.0003700573    
0.0625051640    0.0196454110    0.0003683155    
0.0627278250    0.0188562730    0.0003600992    
0.0629504860    0.0191868840    0.0003602893    
0.0631731470    0.0195328440    0.0003680205    
0.0633958080    0.0194497090    0.0003693501    
0.0636184690    0.0194544450    0.0003745397    
0.0638411300    0.0198310990    0.0003767285    
0.0640637910    0.0193489830    0.0003747383    
0.0642864520    0.0197278170    0.0003775702    
0.0645091130    0.0200089030    0.0003835827    
0.0647317740    0.0190212840    0.0003744086    
0.0649544350    0.0194353740    0.0003780457    
0.0651770960    0.0200385460    0.0003817732    
0.0653997570    0.0199227600    0.0003798431    
0.0656224180    0.0200676870    0.0003820511    
0.0658450790    0.0194525570    0.0003707435    
0.0660677400    0.0200175550    0.0003776897    
0.0662904010    0.0193599590    0.0003758684    
0.0665130620    0.0189608680    0.0003703605    
0.0667357230    0.0197085460    0.0003843056    
0.0669583840    0.0200681690    0.0003864985    
0.0671810450    0.0195085380    0.0003789673    
0.0674037060    0.0198097050    0.0003883509    
0.0676263670    0.0197307590    0.0003847387    
0.0678490280    0.0192974850    0.0003781640    
0.0680716890    0.0200087390    0.0003859269    
0.0682943500    0.0193835220    0.0003756892    
0.0685170110    0.0195897450    0.0003738338    
0.0687396720    0.0195851340    0.0003727967    
0.0689623330    0.0191297970    0.0003672700    
0.0691849940    0.0201464640    0.0003795145    
0.0694076550    0.0199107170    0.0003770861    
0.0696303160    0.0193647360    0.0003689358    
0.0698529770    0.0193816450    0.0003683233    
0.0700756380    0.0195693350    0.0003653514    
0.0702982990    0.0197330130    0.0003708715    
0.0705209600    0.0193735390    0.0003648248    
0.0707436210    0.0195908160    0.0003651801    
0.0709662820    0.0191336360    0.0003651963    
0.0711889430    0.0197205400    0.0003662012    
0.0714116040    0.0191251690    0.0003613672    
0.0716342650    0.0194239440    0.0003627002    
0.0718569260    0.0194155960    0.0003611618    
0.0720795870    0.0187535000    0.0003563862    
0.0723022480    0.0189805320    0.0003590833    
0.0725249090    0.0198483230    0.0003628027    
0.0727475700    0.0193726480    0.0003614904    
0.0729702310    0.0197087680    0.0003617049    
0.0731928920    0.0190101290    0.0003566559    
0.0734155530    0.0196407960    0.0003618004    
0.0736382140    0.0197974350    0.0003609091    
0.0738608750    0.0197274890    0.0003625984    
0.0740835360    0.0194240790    0.0003589060    
0.0743061970    0.0198994030    0.0003581556    
0.0745288580    0.0192317080    0.0003557160    
0.0747515190    0.0192020610    0.0003561437    
0.0749741800    0.0199245170    0.0003594235    
0.0751968410    0.0196458890    0.0003597038    
0.0754195020    0.0201323520    0.0003619967    
0.0756421630    0.0192410870    0.0003510002    
0.0758648240    0.0194044800    0.0003533348    
0.0760874850    0.0193279990    0.0003524684    
0.0763101460    0.0194256500    0.0003530186    
0.0765328070    0.0200609270    0.0003624154    
0.0767554680    0.0196668820    0.0003564034    
0.0769781290    0.0195947340    0.0003537048    
0.0772007900    0.0194324720    0.0003494122    
0.0774234510    0.0192856070    0.0003500693    
0.0776461120    0.0195217600    0.0003518720    
0.0778687730    0.0196891150    0.0003522096    
0.0780914340    0.0201184810    0.0003585732    
0.0783140950    0.0194542010    0.0003470094    
0.0785367560    0.0193132850    0.0003513249    
0.0787594170    0.0200923180    0.0003551299    
0.0789820780    0.0197564740    0.0003503450    
0.0792047390    0.0193230630    0.0003476136    
0.0794274000    0.0198403190    0.0003537279    
0.0796500610    0.0193745280    0.0003461393    
0.0798727220    0.0190424910    0.0003428437    
0.0800953830    0.0189119960    0.0003408812    
0.0803180440    0.0198679510    0.0003518243    
0.0805407050    0.0192775630    0.0003462352    
0.0807633660    0.0193907600    0.0003469280    
0.0809860270    0.0190814600    0.0003428791    
0.0812086880    0.0192859540    0.0003417326    
0.0814313490    0.0197433580    0.0003473382    
0.0816540100    0.0193372570    0.0003429648    
0.0818766710    0.0192179020    0.0003426854    
0.0820993320    0.0190017980    0.0003401323    
0.0823219930    0.0197481810    0.0003481782    
0.0825446540    0.0192989180    0.0003416942    
0.0827673150    0.0191419470    0.0003380155    
0.0829899760    0.0193593380    0.0003393243    
0.0832126370    0.0193591210    0.0003408423    
0.0834352980    0.0194100540    0.0003405273    
0.0836579590    0.0196686990    0.0003420255    
0.0838806200    0.0195525930    0.0003420817    
0.0841032810    0.0195883990    0.0003402692    
0.0843259420    0.0194679370    0.0003381767    
0.0845486030    0.0193034820    0.0003367456    
0.0847712640    0.0196840460    0.0003379765    
0.0849939250    0.0194498490    0.0003365449    
0.0852165860    0.0192205870    0.0003349938    
0.0854392470    0.0190244010    0.0003301236    
0.0856619080    0.0197009590    0.0003384165    
0.0858845690    0.0192905940    0.0003318574    
0.0861072300    0.0187301600    0.0003292587    
0.0863298910    0.0194356800    0.0003371589    
0.0865525520    0.0193486500    0.0003334983    
0.0867752130    0.0191394670    0.0003290142    
0.0869978740    0.0192257780    0.0003305956    
0.0872205350    0.0197269040    0.0003344504    
0.0874431960    0.0198516810    0.0003355067    
0.0876658570    0.0195815870    0.0003344959    
0.0878885180    0.0192761140    0.0003324456    
0.0881111790    0.0189407340    0.0003291180    
0.0883338400    0.0197283340    0.0003309732    
0.0885565010    0.0192801970    0.0003316295    
0.0887791620    0.0198948400    0.0003325056    
0.0890018230    0.0200107070    0.0003367069    
0.0892244840    0.0200844870    0.0003379006    
0.0894471450    0.0196446010    0.0003327682    
0.0896698060    0.0188868850    0.0003250567    
0.0898924670    0.0196439680    0.0003330443    
0.0901151280    0.0190395680    0.0003243392    
0.0903377890    0.0196180200    0.0003319847    
0.0905604500    0.0194996000    0.0003294622    
0.0907831110    0.0189651270    0.0003241074    
0.0910057720    0.0196594420    0.0003315011    
0.0912284330    0.0192960250    0.0003237205    
0.0914510940    0.0196788010    0.0003305611    
0.0916737550    0.0201006190    0.0003332561    
0.0918964160    0.0192263360    0.0003272834    
0.0921190770    0.0190279450    0.0003226466    
0.0923417380    0.0193118560    0.0003251781    
0.0925643990    0.0199094340    0.0003293629    
0.0927870600    0.0197489490    0.0003293780    
0.0930097210    0.0192681750    0.0003225731    
0.0932323820    0.0193387740    0.0003255391    
