# Diamond Light Source Ltd.
# Data extracted from: /dls/b21/data/2018/cm19678-3/processed/b21-386631_00246.dat
q(1/A)          Column          Error           
0.0035000000    2.1064937000    0.0247378070    
0.0037226610    1.9221162000    0.0231328560    
0.0039453220    1.6602993000    0.0195586680    
0.0041679830    1.3057381000    0.0142442270    
0.0043906440    0.9924530800    0.0118782150    
0.0046133050    0.8075746800    0.0102861150    
0.0048359660    0.6013575800    0.0083960324    
0.0050586270    0.4599083500    0.0072169683    
0.0052812880    0.4266197400    0.0065719414    
0.0055039490    0.3811344900    0.0059064005    
0.0057266100    0.3178972600    0.0052184474    
0.0059492710    0.2713820100    0.0048215699    
0.0061719320    0.2203388200    0.0041865003    
0.0063945930    0.2009415700    0.0040464414    
0.0066172539    0.1788986300    0.0035851501    
0.0068399149    0.1758833300    0.0034988237    
0.0070625759    0.1468623100    0.0031643718    
0.0072852369    0.1284750100    0.0029153724    
0.0075078979    0.1124107800    0.0027136218    
0.0077305589    0.0999742660    0.0025103636    
0.0079532199    0.0997973170    0.0024733847    
0.0081758809    0.0878620530    0.0023423635    
0.0083985419    0.0863740140    0.0021661301    
0.0086212029    0.0788774140    0.0020699953    
0.0088438639    0.0687420030    0.0019169099    
0.0090665249    0.0657206590    0.0018102735    
0.0092891859    0.0609507580    0.0018196283    
0.0095118469    0.0621957110    0.0017676656    
0.0097345079    0.0564870180    0.0016361026    
0.0099571689    0.0544996150    0.0015739243    
0.0101798300    0.0526814560    0.0015474479    
0.0104024910    0.0500230070    0.0015027956    
0.0106251520    0.0462269720    0.0014495559    
0.0108478130    0.0467724310    0.0014199566    
0.0110704740    0.0405204850    0.0012583031    
0.0112931350    0.0407588490    0.0012657051    
0.0115157960    0.0374490460    0.0012061526    
0.0117384570    0.0384870600    0.0012122285    
0.0119611180    0.0359433830    0.0011748462    
0.0121837790    0.0388657110    0.0012011390    
0.0124064400    0.0351816460    0.0010951568    
0.0126291010    0.0345059450    0.0010710143    
0.0128517620    0.0358812050    0.0010948759    
0.0130744230    0.0321910880    0.0010293575    
0.0132970840    0.0344845640    0.0010601856    
0.0135197450    0.0312555920    0.0009948765    
0.0137424060    0.0322388910    0.0009963381    
0.0139650670    0.0315545630    0.0009637509    
0.0141877280    0.0283237290    0.0009150981    
0.0144103890    0.0290972400    0.0009115169    
0.0146330500    0.0301385910    0.0009217945    
0.0148557110    0.0281530380    0.0008871775    
0.0150783720    0.0284870380    0.0008850492    
0.0153010330    0.0279566800    0.0008644100    
0.0155236940    0.0271233900    0.0008463671    
0.0157463550    0.0271352920    0.0008318858    
0.0159690160    0.0269803490    0.0008263594    
0.0161916770    0.0279785340    0.0008367660    
0.0164143380    0.0260667060    0.0008137902    
0.0166369990    0.0253193190    0.0007773101    
0.0168596600    0.0255550320    0.0007740396    
0.0170823210    0.0249992320    0.0007589476    
0.0173049820    0.0242765250    0.0007491898    
0.0175276430    0.0241537400    0.0007551732    
0.0177503040    0.0238124220    0.0007307037    
0.0179729650    0.0242875750    0.0007306393    
0.0181956260    0.0242956520    0.0007167514    
0.0184182870    0.0254286760    0.0007298177    
0.0186409480    0.0236303700    0.0007079913    
0.0188636090    0.0237739430    0.0007056726    
0.0190862700    0.0231358770    0.0006950501    
0.0193089310    0.0229389160    0.0006910064    
0.0195315920    0.0237555170    0.0006792838    
0.0197542530    0.0232403650    0.0006728569    
0.0199769140    0.0232598540    0.0006731391    
0.0201995750    0.0225182230    0.0006519494    
0.0204222360    0.0234056960    0.0006703779    
0.0206448970    0.0219195230    0.0006441349    
0.0208675580    0.0215707890    0.0006258321    
0.0210902190    0.0217484460    0.0006344674    
0.0213128800    0.0221888370    0.0006321632    
0.0215355410    0.0228062710    0.0006332633    
0.0217582020    0.0208544700    0.0006055595    
0.0219808630    0.0214661760    0.0006135698    
0.0222035240    0.0222327370    0.0006187708    
0.0224261850    0.0217034180    0.0006059193    
0.0226488460    0.0210787530    0.0005926519    
0.0228715070    0.0221513570    0.0006060342    
0.0230941680    0.0213389290    0.0005948169    
0.0233168290    0.0216619860    0.0006007954    
0.0235394900    0.0213657580    0.0005900882    
0.0237621510    0.0212030570    0.0005720120    
0.0239848120    0.0212676150    0.0005735449    
0.0242074730    0.0222527080    0.0005819815    
0.0244301340    0.0208237410    0.0005636278    
0.0246527950    0.0219104380    0.0005835009    
0.0248754560    0.0214266560    0.0005640547    
0.0250981170    0.0210152110    0.0005598585    
0.0253207780    0.0208739670    0.0005413143    
0.0255434390    0.0216086930    0.0005566368    
0.0257661000    0.0207817860    0.0005476482    
0.0259887610    0.0204130680    0.0005370001    
0.0262114220    0.0214449900    0.0005533385    
0.0264340830    0.0211988070    0.0005426679    
0.0266567440    0.0212943770    0.0005405291    
0.0268794050    0.0208487320    0.0005326602    
0.0271020660    0.0207072660    0.0005287009    
0.0273247270    0.0211528190    0.0005311494    
0.0275473880    0.0200192720    0.0005156935    
0.0277700490    0.0204134230    0.0005176672    
0.0279927100    0.0198910660    0.0005065425    
0.0282153710    0.0211269670    0.0005245800    
0.0284380320    0.0214749700    0.0005258169    
0.0286606930    0.0206027210    0.0005106195    
0.0288833540    0.0205032220    0.0005103526    
0.0291060150    0.0208700630    0.0005144093    
0.0293286760    0.0200212650    0.0004968193    
0.0295513370    0.0199373800    0.0004903788    
0.0297739980    0.0203541520    0.0005009328    
0.0299966590    0.0205938520    0.0004952678    
0.0302193200    0.0215907910    0.0005145041    
0.0304419810    0.0195291350    0.0004902240    
0.0306646420    0.0209524120    0.0004934421    
0.0308873030    0.0204031380    0.0004848280    
0.0311099640    0.0202312970    0.0004840356    
0.0313326250    0.0203065040    0.0004795623    
0.0315552860    0.0207781460    0.0004913863    
0.0317779470    0.0205116870    0.0004886506    
0.0320006080    0.0202906520    0.0004749682    
0.0322232690    0.0210663050    0.0004859874    
0.0324459300    0.0210953190    0.0004826912    
0.0326685910    0.0205744850    0.0004759094    
0.0328912520    0.0201458310    0.0004724852    
0.0331139130    0.0204994960    0.0004704145    
0.0333365740    0.0203829400    0.0004705984    
0.0335592350    0.0206003070    0.0004685520    
0.0337818960    0.0200780670    0.0004622064    
0.0340045570    0.0192506760    0.0004518639    
0.0342272170    0.0207196370    0.0004669381    
0.0344498780    0.0198658730    0.0004590276    
0.0346725390    0.0198418500    0.0004502540    
0.0348952000    0.0195501140    0.0004448957    
0.0351178610    0.0196375300    0.0004479300    
0.0353405220    0.0210586680    0.0004617419    
0.0355631830    0.0194232540    0.0004417800    
0.0357858440    0.0195237490    0.0004429216    
0.0360085050    0.0196520170    0.0004457168    
0.0362311660    0.0199377110    0.0004436083    
0.0364538270    0.0198131990    0.0004386716    
0.0366764880    0.0195516980    0.0004354509    
0.0368991490    0.0197871030    0.0004358562    
0.0371218100    0.0205236290    0.0004426240    
0.0373444710    0.0201048780    0.0004428559    
0.0375671320    0.0192585130    0.0004328029    
0.0377897930    0.0202217350    0.0004320134    
0.0380124540    0.0198034020    0.0004302039    
0.0382351150    0.0193174420    0.0004248928    
0.0384577760    0.0197072680    0.0004250179    
0.0386804370    0.0197393120    0.0004286094    
0.0389030980    0.0198906180    0.0004269907    
0.0391257590    0.0197118980    0.0004221825    
0.0393484200    0.0202171180    0.0004261196    
0.0395710810    0.0200014580    0.0004244117    
0.0397937420    0.0194431230    0.0004184463    
0.0400164030    0.0199920400    0.0004260381    
0.0402390640    0.0201525940    0.0004220496    
0.0404617250    0.0192778730    0.0004103533    
0.0406843860    0.0201322260    0.0004152961    
0.0409070470    0.0199153770    0.0004173563    
0.0411297080    0.0199951190    0.0004141454    
0.0413523690    0.0199690010    0.0004149417    
0.0415750300    0.0200641540    0.0004194622    
0.0417976910    0.0196721600    0.0004046023    
0.0420203520    0.0199795720    0.0004092834    
0.0422430130    0.0194806570    0.0004056710    
0.0424656740    0.0192566590    0.0003980824    
0.0426883350    0.0204123850    0.0004118884    
0.0429109960    0.0197707190    0.0004066293    
0.0431336570    0.0198678780    0.0004018841    
0.0433563180    0.0192279960    0.0003987701    
0.0435789790    0.0203832680    0.0004041246    
0.0438016400    0.0201601640    0.0004040933    
0.0440243010    0.0202531240    0.0004009144    
0.0442469620    0.0203519990    0.0004043000    
0.0444696230    0.0197597480    0.0003969454    
0.0446922840    0.0204273160    0.0004023964    
0.0449149450    0.0197073310    0.0003899576    
0.0451376060    0.0200705870    0.0003983954    
0.0453602670    0.0204959780    0.0003983746    
0.0455829280    0.0196142840    0.0003892612    
0.0458055890    0.0198593380    0.0003939693    
0.0460282500    0.0192078250    0.0003827809    
0.0462509110    0.0197305320    0.0003855414    
0.0464735720    0.0198056130    0.0003864924    
0.0466962330    0.0202372480    0.0003924572    
0.0469188940    0.0201302390    0.0003903086    
0.0471415550    0.0199093880    0.0003901552    
0.0473642160    0.0196233410    0.0003819188    
0.0475868770    0.0197600270    0.0003813427    
0.0478095380    0.0198646820    0.0003806780    
0.0480321990    0.0204867070    0.0003874392    
0.0482548600    0.0197275040    0.0003785361    
0.0484775210    0.0201286050    0.0003861614    
0.0487001820    0.0196802820    0.0003762472    
0.0489228430    0.0197956600    0.0003771457    
0.0491455040    0.0196078140    0.0003727560    
0.0493681650    0.0196362910    0.0003762321    
0.0495908260    0.0197615080    0.0003710795    
0.0498134870    0.0197844660    0.0003748295    
0.0500361480    0.0195739570    0.0003718436    
0.0502588090    0.0198005180    0.0003683857    
0.0504814700    0.0192664830    0.0003681344    
0.0507041310    0.0200060820    0.0003706737    
0.0509267920    0.0196872170    0.0003692291    
0.0511494530    0.0197056870    0.0003669391    
0.0513721140    0.0195327740    0.0003685429    
0.0515947750    0.0197562310    0.0003657307    
0.0518174360    0.0199671110    0.0003654627    
0.0520400970    0.0197769340    0.0003611962    
0.0522627580    0.0194771270    0.0003614942    
0.0524854190    0.0196860370    0.0003663827    
0.0527080800    0.0191195240    0.0003638680    
0.0529307410    0.0190758560    0.0003651592    
0.0531534020    0.0199225860    0.0003718169    
0.0533760630    0.0191607010    0.0003657795    
0.0535987240    0.0200129420    0.0003720803    
0.0538213850    0.0198351820    0.0003747159    
0.0540440460    0.0191289850    0.0003662433    
0.0542667070    0.0193153540    0.0003705594    
0.0544893680    0.0196846580    0.0003742845    
0.0547120290    0.0188964320    0.0003642020    
0.0549346900    0.0197595450    0.0003726227    
0.0551573510    0.0197167750    0.0003766009    
0.0553800120    0.0194112510    0.0003704950    
0.0556026730    0.0198929820    0.0003828406    
0.0558253340    0.0195982250    0.0003831756    
0.0560479950    0.0193585100    0.0003808252    
0.0562706560    0.0189098160    0.0003800248    
0.0564933170    0.0205217830    0.0003993290    
0.0567159780    0.0195851050    0.0003854320    
0.0569386390    0.0194609460    0.0003902349    
0.0571613000    0.0191713140    0.0003789804    
0.0573839610    0.0191047840    0.0003751810    
0.0576066220    0.0197737660    0.0003827499    
0.0578292830    0.0192824950    0.0003767147    
0.0580519440    0.0195732450    0.0003810159    
0.0582746050    0.0199597290    0.0003830626    
0.0584972660    0.0187858520    0.0003702050    
0.0587199270    0.0196321160    0.0003751892    
0.0589425880    0.0194173030    0.0003709485    
0.0591652490    0.0200050110    0.0003787361    
0.0593879100    0.0189743030    0.0003661110    
0.0596105710    0.0191880660    0.0003677792    
0.0598332320    0.0190801090    0.0003698779    
0.0600558930    0.0202321750    0.0003784526    
0.0602785540    0.0193134640    0.0003693694    
0.0605012150    0.0196612660    0.0003718952    
0.0607238760    0.0207206140    0.0003790004    
0.0609465370    0.0187243320    0.0003631175    
0.0611691980    0.0198292340    0.0003742698    
0.0613918590    0.0198616550    0.0003704862    
0.0616145200    0.0198168620    0.0003727767    
0.0618371810    0.0195876480    0.0003669746    
0.0620598420    0.0199587500    0.0003708165    
0.0622825030    0.0199915210    0.0003767963    
0.0625051640    0.0195236750    0.0003671317    
0.0627278250    0.0199039980    0.0003699270    
0.0629504860    0.0194667010    0.0003628666    
0.0631731470    0.0190778920    0.0003636689    
0.0633958080    0.0202097320    0.0003764554    
0.0636184690    0.0195654610    0.0003755650    
0.0638411300    0.0197122040    0.0003755557    
0.0640637910    0.0192866280    0.0003740923    
0.0642864520    0.0193983150    0.0003743621    
0.0645091130    0.0189384280    0.0003731393    
0.0647317740    0.0199012220    0.0003829283    
0.0649544350    0.0192840100    0.0003765288    
0.0651770960    0.0190451080    0.0003721480    
0.0653997570    0.0198024800    0.0003786526    
0.0656224180    0.0190960550    0.0003726459    
0.0658450790    0.0191939100    0.0003682296    
0.0660677400    0.0194858770    0.0003725987    
0.0662904010    0.0196110010    0.0003782554    
0.0665130620    0.0191229980    0.0003718992    
0.0667357230    0.0195393330    0.0003826097    
0.0669583840    0.0196543910    0.0003824506    
0.0671810450    0.0196808390    0.0003805948    
0.0674037060    0.0199651390    0.0003898281    
0.0676263670    0.0194263470    0.0003817168    
0.0678490280    0.0195006440    0.0003801071    
0.0680716890    0.0201903380    0.0003876312    
0.0682943500    0.0204056800    0.0003854247    
0.0685170110    0.0196210470    0.0003740907    
0.0687396720    0.0198290830    0.0003750695    
0.0689623330    0.0191960360    0.0003678644    
0.0691849940    0.0196630900    0.0003748923    
0.0694076550    0.0195849860    0.0003739473    
0.0696303160    0.0189809480    0.0003652209    
0.0698529770    0.0195522800    0.0003698999    
0.0700756380    0.0198582150    0.0003679972    
0.0702982990    0.0191014310    0.0003648475    
0.0705209600    0.0195546760    0.0003664856    
0.0707436210    0.0200356240    0.0003692615    
0.0709662820    0.0197426330    0.0003709213    
0.0711889430    0.0203348300    0.0003718197    
0.0714116040    0.0197284670    0.0003669817    
0.0716342650    0.0198868290    0.0003669556    
0.0718569260    0.0197672610    0.0003643773    
0.0720795870    0.0191826800    0.0003604010    
0.0723022480    0.0196826560    0.0003656238    
0.0725249090    0.0187101580    0.0003522078    
0.0727475700    0.0197797110    0.0003652279    
0.0729702310    0.0196048320    0.0003607098    
0.0731928920    0.0190794870    0.0003572662    
0.0734155530    0.0198696370    0.0003638615    
0.0736382140    0.0195628010    0.0003587241    
0.0738608750    0.0195631820    0.0003610451    
0.0740835360    0.0198706070    0.0003629675    
0.0743061970    0.0193987280    0.0003535819    
0.0745288580    0.0193195200    0.0003564875    
0.0747515190    0.0199902650    0.0003633393    
0.0749741800    0.0192135120    0.0003529130    
0.0751968410    0.0197534530    0.0003606471    
0.0754195020    0.0198220170    0.0003591558    
0.0756421630    0.0196977200    0.0003551013    
0.0758648240    0.0196574580    0.0003555909    
0.0760874850    0.0193429770    0.0003525657    
0.0763101460    0.0204411390    0.0003620879    
0.0765328070    0.0184527310    0.0003475467    
0.0767554680    0.0192104940    0.0003522046    
0.0769781290    0.0196861230    0.0003544892    
0.0772007900    0.0189444850    0.0003449587    
0.0774234510    0.0196815530    0.0003536052    
0.0776461120    0.0197900760    0.0003542424    
0.0778687730    0.0193193850    0.0003488481    
0.0780914340    0.0196284060    0.0003541395    
0.0783140950    0.0200377610    0.0003521363    
0.0785367560    0.0196476290    0.0003543134    
0.0787594170    0.0191527980    0.0003466889    
0.0789820780    0.0194104530    0.0003472247    
0.0792047390    0.0187435760    0.0003423234    
0.0794274000    0.0193314940    0.0003491237    
0.0796500610    0.0192712930    0.0003451775    
0.0798727220    0.0190320810    0.0003427118    
0.0800953830    0.0190675020    0.0003422417    
0.0803180440    0.0190101880    0.0003441075    
0.0805407050    0.0192794900    0.0003462140    
0.0807633660    0.0190761620    0.0003440639    
0.0809860270    0.0197671220    0.0003489463    
0.0812086880    0.0188276200    0.0003376099    
0.0814313490    0.0195373600    0.0003454830    
0.0816540100    0.0195579670    0.0003448782    
0.0818766710    0.0196473830    0.0003464549    
0.0820993320    0.0197706210    0.0003469064    
0.0823219930    0.0203329690    0.0003532564    
0.0825446540    0.0191313140    0.0003401694    
0.0827673150    0.0190422080    0.0003370962    
0.0829899760    0.0192361050    0.0003382050    
0.0832126370    0.0197507890    0.0003442346    
0.0834352980    0.0194893530    0.0003411842    
0.0836579590    0.0190459100    0.0003365296    
0.0838806200    0.0197756160    0.0003439888    
0.0841032810    0.0195072170    0.0003395256    
0.0843259420    0.0194694780    0.0003381524    
0.0845486030    0.0188645720    0.0003328582    
0.0847712640    0.0189312340    0.0003314137    
0.0849939250    0.0193756560    0.0003358650    
0.0852165860    0.0195607090    0.0003379072    
0.0854392470    0.0197131630    0.0003360090    
0.0856619080    0.0190863240    0.0003330586    
0.0858845690    0.0196915470    0.0003352512    
0.0861072300    0.0195187790    0.0003360814    
0.0863298910    0.0197003410    0.0003394089    
0.0865525520    0.0198673200    0.0003379011    
0.0867752130    0.0189599140    0.0003274308    
0.0869978740    0.0196079750    0.0003338283    
0.0872205350    0.0197735350    0.0003348082    
0.0874431960    0.0186114150    0.0003248209    
0.0876658570    0.0189945400    0.0003294071    
0.0878885180    0.0190425340    0.0003303885    
0.0881111790    0.0187364050    0.0003273015    
0.0883338400    0.0192576300    0.0003269646    
0.0885565010    0.0194812110    0.0003333167    
0.0887791620    0.0196570610    0.0003304758    
0.0890018230    0.0196777250    0.0003338566    
0.0892244840    0.0197901560    0.0003353782    
0.0894471450    0.0197360350    0.0003335046    
0.0896698060    0.0194811550    0.0003300943    
0.0898924670    0.0193968530    0.0003309061    
0.0901151280    0.0188309470    0.0003225215    
0.0903377890    0.0191923980    0.0003283271    
0.0905604500    0.0194396080    0.0003289184    
0.0907831110    0.0195146720    0.0003287330    
0.0910057720    0.0196047690    0.0003310030    
0.0912284330    0.0197098170    0.0003271367    
0.0914510940    0.0191359280    0.0003259334    
0.0916737550    0.0198586160    0.0003312070    
0.0918964160    0.0197122160    0.0003313563    
0.0921190770    0.0193026660    0.0003249313    
0.0923417380    0.0195101040    0.0003268065    
0.0925643990    0.0194256280    0.0003253003    
0.0927870600    0.0195028950    0.0003272832    
0.0930097210    0.0188967500    0.0003194134    
0.0932323820    0.0190167030    0.0003227810    
