# Diamond Light Source Ltd.
# Data extracted from: /dls/b21/data/2018/cm19678-3/processed/b21-386631_00257.dat
q(1/A)          Column          Error           
0.0035000000    2.0721040000    0.0245447250    
0.0037226610    1.8698581000    0.0228252230    
0.0039453220    1.6415483000    0.0194555800    
0.0041679830    1.3098786000    0.0142724210    
0.0043906440    0.9639270900    0.0117108800    
0.0046133050    0.7873641100    0.0101605940    
0.0048359660    0.5822402700    0.0082647572    
0.0050586270    0.4740986300    0.0073303510    
0.0052812880    0.4270576700    0.0065779072    
0.0055039490    0.3744733800    0.0058568690    
0.0057266100    0.3226918400    0.0052597267    
0.0059492710    0.2761398900    0.0048655706    
0.0061719320    0.2262444100    0.0042439066    
0.0063945930    0.2022418100    0.0040611133    
0.0066172539    0.1795431100    0.0035930188    
0.0068399149    0.1656432800    0.0033967838    
0.0070625759    0.1501170000    0.0032005052    
0.0072852369    0.1322178300    0.0029587004    
0.0075078979    0.1179408800    0.0027806658    
0.0077305589    0.1030812400    0.0025500788    
0.0079532199    0.0995693160    0.0024715321    
0.0081758809    0.0925560570    0.0024050677    
0.0083985419    0.0827996340    0.0021216731    
0.0086212029    0.0760038790    0.0020327416    
0.0088438639    0.0735574130    0.0019836959    
0.0090665249    0.0648243520    0.0017985959    
0.0092891859    0.0636627930    0.0018604039    
0.0095118469    0.0624961780    0.0017726292    
0.0097345079    0.0580017890    0.0016585485    
0.0099571689    0.0522226230    0.0015413020    
0.0101798300    0.0529504740    0.0015520059    
0.0104024910    0.0489780910    0.0014876036    
0.0106251520    0.0437160000    0.0014101935    
0.0108478130    0.0443933700    0.0013839182    
0.0110704740    0.0450104900    0.0013267102    
0.0112931350    0.0412630370    0.0012740118    
0.0115157960    0.0391503570    0.0012337325    
0.0117384570    0.0390141800    0.0012209830    
0.0119611180    0.0366635080    0.0011870249    
0.0121837790    0.0362587050    0.0011606129    
0.0124064400    0.0359941120    0.0011081670    
0.0126291010    0.0364627710    0.0011013983    
0.0128517620    0.0359429520    0.0010962497    
0.0130744230    0.0327435470    0.0010385622    
0.0132970840    0.0322610060    0.0010258403    
0.0135197450    0.0318507140    0.0010046994    
0.0137424060    0.0326341200    0.0010028222    
0.0139650670    0.0320507960    0.0009716825    
0.0141877280    0.0297071620    0.0009375497    
0.0144103890    0.0290630440    0.0009113404    
0.0146330500    0.0294005520    0.0009107971    
0.0148557110    0.0296022010    0.0009100833    
0.0150783720    0.0267758280    0.0008583936    
0.0153010330    0.0289951750    0.0008806657    
0.0155236940    0.0269597730    0.0008441432    
0.0157463550    0.0274119350    0.0008364453    
0.0159690160    0.0274069150    0.0008331948    
0.0161916770    0.0257214910    0.0008026217    
0.0164143380    0.0244345710    0.0007882120    
0.0166369990    0.0250288240    0.0007731430    
0.0168596600    0.0266075890    0.0007901308    
0.0170823210    0.0247191910    0.0007549825    
0.0173049820    0.0244113730    0.0007515640    
0.0175276430    0.0241727980    0.0007557691    
0.0177503040    0.0242575700    0.0007377928    
0.0179729650    0.0241307620    0.0007285640    
0.0181956260    0.0237857790    0.0007094703    
0.0184182870    0.0240023130    0.0007093333    
0.0186409480    0.0243283410    0.0007186546    
0.0188636090    0.0238765520    0.0007074728    
0.0190862700    0.0219211950    0.0006768251    
0.0193089310    0.0240819510    0.0007082927    
0.0195315920    0.0221219210    0.0006557702    
0.0197542530    0.0238435820    0.0006818020    
0.0199769140    0.0219719760    0.0006544962    
0.0201995750    0.0237638530    0.0006700027    
0.0204222360    0.0220406200    0.0006507918    
0.0206448970    0.0227324540    0.0006562294    
0.0208675580    0.0226054160    0.0006409178    
0.0210902190    0.0219693700    0.0006379333    
0.0213128800    0.0217016550    0.0006254313    
0.0215355410    0.0219267810    0.0006211777    
0.0217582020    0.0230354480    0.0006366883    
0.0219808630    0.0205704320    0.0006008687    
0.0222035240    0.0209576600    0.0006010021    
0.0224261850    0.0221437810    0.0006122769    
0.0226488460    0.0217624320    0.0006024239    
0.0228715070    0.0229321340    0.0006168655    
0.0230941680    0.0207086210    0.0005861974    
0.0233168290    0.0221126590    0.0006072524    
0.0235394900    0.0211705840    0.0005876185    
0.0237621510    0.0208800230    0.0005678618    
0.0239848120    0.0216404260    0.0005787783    
0.0242074730    0.0207774580    0.0005625812    
0.0244301340    0.0214050700    0.0005716664    
0.0246527950    0.0215233850    0.0005785522    
0.0248754560    0.0209828900    0.0005584033    
0.0250981170    0.0205839900    0.0005543033    
0.0253207780    0.0205813650    0.0005377190    
0.0255434390    0.0218266460    0.0005596576    
0.0257661000    0.0215781160    0.0005582622    
0.0259887610    0.0202877960    0.0005355610    
0.0262114220    0.0208760660    0.0005461646    
0.0264340830    0.0203952740    0.0005324937    
0.0266567440    0.0211464010    0.0005388602    
0.0268794050    0.0205110740    0.0005285376    
0.0271020660    0.0207641330    0.0005296352    
0.0273247270    0.0211695100    0.0005315685    
0.0275473880    0.0199685950    0.0005152435    
0.0277700490    0.0202193230    0.0005154034    
0.0279927100    0.0204489680    0.0005137997    
0.0282153710    0.0206613220    0.0005189714    
0.0284380320    0.0208090180    0.0005178039    
0.0286606930    0.0205683160    0.0005103942    
0.0288833540    0.0211169280    0.0005181386    
0.0291060150    0.0207723270    0.0005134058    
0.0293286760    0.0199506950    0.0004961386    
0.0295513370    0.0199048280    0.0004901716    
0.0297739980    0.0202715070    0.0005001120    
0.0299966590    0.0198829670    0.0004868365    
0.0302193200    0.0209820460    0.0005073992    
0.0304419810    0.0202957840    0.0004999508    
0.0306646420    0.0204921130    0.0004881843    
0.0308873030    0.0196698010    0.0004762231    
0.0311099640    0.0194128000    0.0004743302    
0.0313326250    0.0200164980    0.0004763133    
0.0315552860    0.0200036970    0.0004823320    
0.0317779470    0.0202482630    0.0004856942    
0.0320006080    0.0206182160    0.0004789756    
0.0322232690    0.0195008660    0.0004677664    
0.0324459300    0.0200618930    0.0004709053    
0.0326685910    0.0201610570    0.0004712895    
0.0328912520    0.0203724370    0.0004753225    
0.0331139130    0.0206237050    0.0004720236    
0.0333365740    0.0202794130    0.0004695869    
0.0335592350    0.0199872920    0.0004617099    
0.0337818960    0.0197212080    0.0004582611    
0.0340045570    0.0204547230    0.0004659644    
0.0342272170    0.0205569550    0.0004652848    
0.0344498780    0.0196904810    0.0004571770    
0.0346725390    0.0200517870    0.0004528082    
0.0348952000    0.0201228180    0.0004515431    
0.0351178610    0.0198882070    0.0004509577    
0.0353405220    0.0198695350    0.0004486926    
0.0355631830    0.0200017250    0.0004484872    
0.0357858440    0.0202933670    0.0004517452    
0.0360085050    0.0196472890    0.0004458390    
0.0362311660    0.0199633210    0.0004440681    
0.0364538270    0.0199357530    0.0004401998    
0.0366764880    0.0196835960    0.0004370896    
0.0368991490    0.0204752970    0.0004435458    
0.0371218100    0.0189635110    0.0004256361    
0.0373444710    0.0200133530    0.0004420210    
0.0375671320    0.0198674950    0.0004397660    
0.0377897930    0.0206071600    0.0004362831    
0.0380124540    0.0193326720    0.0004252278    
0.0382351150    0.0202866920    0.0004355936    
0.0384577760    0.0207318920    0.0004360986    
0.0386804370    0.0203509800    0.0004353711    
0.0389030980    0.0199338330    0.0004276229    
0.0391257590    0.0192659370    0.0004175441    
0.0393484200    0.0199364500    0.0004233183    
0.0395710810    0.0199631630    0.0004241725    
0.0397937420    0.0198640370    0.0004231182    
0.0400164030    0.0203076590    0.0004295573    
0.0402390640    0.0193812160    0.0004140567    
0.0404617250    0.0200011670    0.0004181454    
0.0406843860    0.0203453060    0.0004176528    
0.0409070470    0.0197910390    0.0004162156    
0.0411297080    0.0195644920    0.0004098231    
0.0413523690    0.0200883050    0.0004163435    
0.0415750300    0.0197991460    0.0004168472    
0.0417976910    0.0201540570    0.0004096895    
0.0420203520    0.0187954480    0.0003971263    
0.0422430130    0.0194706640    0.0004057269    
0.0424656740    0.0193542110    0.0003992469    
0.0426883350    0.0199044700    0.0004068921    
0.0429109960    0.0197026200    0.0004060886    
0.0431336570    0.0203879650    0.0004072709    
0.0433563180    0.0196983820    0.0004037775    
0.0435789790    0.0193809870    0.0003942190    
0.0438016400    0.0198923570    0.0004015586    
0.0440243010    0.0197051910    0.0003956100    
0.0442469620    0.0199500860    0.0004004459    
0.0444696230    0.0198950450    0.0003984591    
0.0446922840    0.0200547150    0.0003988669    
0.0449149450    0.0195838780    0.0003888876    
0.0451376060    0.0195007670    0.0003928541    
0.0453602670    0.0198844650    0.0003925415    
0.0455829280    0.0200085940    0.0003933095    
0.0458055890    0.0195386730    0.0003909299    
0.0460282500    0.0192535170    0.0003833871    
0.0462509110    0.0193917410    0.0003823678    
0.0464735720    0.0200250380    0.0003887807    
0.0466962330    0.0196438680    0.0003868132    
0.0469188940    0.0200855330    0.0003900287    
0.0471415550    0.0203765490    0.0003948617    
0.0473642160    0.0201744290    0.0003873971    
0.0475868770    0.0195620270    0.0003795769    
0.0478095380    0.0198730550    0.0003809084    
0.0480321990    0.0193956000    0.0003771294    
0.0482548600    0.0198157620    0.0003795315    
0.0484775210    0.0187209530    0.0003725609    
0.0487001820    0.0203077050    0.0003823484    
0.0489228430    0.0194804920    0.0003742790    
0.0491455040    0.0192474140    0.0003694600    
0.0493681650    0.0195291410    0.0003753522    
0.0495908260    0.0195190780    0.0003689418    
0.0498134870    0.0198356120    0.0003754617    
0.0500361480    0.0198297620    0.0003744131    
0.0502588090    0.0198092820    0.0003686126    
0.0504814700    0.0191831290    0.0003674821    
0.0507041310    0.0198156690    0.0003690510    
0.0509267920    0.0200007530    0.0003723044    
0.0511494530    0.0196528540    0.0003665914    
0.0513721140    0.0199170200    0.0003722970    
0.0515947750    0.0195482180    0.0003639438    
0.0518174360    0.0193067280    0.0003595101    
0.0520400970    0.0196406950    0.0003600919    
0.0522627580    0.0205534020    0.0003714942    
0.0524854190    0.0206569630    0.0003754571    
0.0527080800    0.0197652690    0.0003701076    
0.0529307410    0.0195106420    0.0003694429    
0.0531534020    0.0192299440    0.0003654404    
0.0533760630    0.0198676580    0.0003726132    
0.0535987240    0.0199248850    0.0003714073    
0.0538213850    0.0197303950    0.0003738722    
0.0540440460    0.0200984750    0.0003755576    
0.0542667070    0.0199353420    0.0003766081    
0.0544893680    0.0202201150    0.0003794905    
0.0547120290    0.0199721200    0.0003745724    
0.0549346900    0.0195922930    0.0003711887    
0.0551573510    0.0192068090    0.0003718453    
0.0553800120    0.0196247250    0.0003726736    
0.0556026730    0.0196284820    0.0003804369    
0.0558253340    0.0193962580    0.0003813465    
0.0560479950    0.0200635640    0.0003878511    
0.0562706560    0.0197578530    0.0003886060    
0.0564933170    0.0196203380    0.0003906140    
0.0567159780    0.0199877110    0.0003895271    
0.0569386390    0.0200479810    0.0003962330    
0.0571613000    0.0196213040    0.0003835535    
0.0573839610    0.0202848940    0.0003867474    
0.0576066220    0.0201378510    0.0003864099    
0.0578292830    0.0191577650    0.0003756425    
0.0580519440    0.0192843560    0.0003783429    
0.0582746050    0.0196591070    0.0003803168    
0.0584972660    0.0188444820    0.0003709285    
0.0587199270    0.0196906620    0.0003758965    
0.0589425880    0.0198936170    0.0003756188    
0.0591652490    0.0192457970    0.0003716264    
0.0593879100    0.0197315950    0.0003734928    
0.0596105710    0.0199016330    0.0003747030    
0.0598332320    0.0194467840    0.0003735624    
0.0600558930    0.0193200400    0.0003699691    
0.0602785540    0.0194559580    0.0003708757    
0.0605012150    0.0194796590    0.0003703197    
0.0607238760    0.0195089800    0.0003678975    
0.0609465370    0.0197609830    0.0003731810    
0.0611691980    0.0192227400    0.0003686470    
0.0613918590    0.0193240260    0.0003655817    
0.0616145200    0.0192008900    0.0003670822    
0.0618371810    0.0194173240    0.0003655198    
0.0620598420    0.0199262340    0.0003706605    
0.0622825030    0.0194671330    0.0003719683    
0.0625051640    0.0191314400    0.0003635684    
0.0627278250    0.0196857580    0.0003680385    
0.0629504860    0.0196039080    0.0003642867    
0.0631731470    0.0197936670    0.0003705744    
0.0633958080    0.0189554330    0.0003647299    
0.0636184690    0.0199055640    0.0003789646    
0.0638411300    0.0193768830    0.0003724946    
0.0640637910    0.0202240940    0.0003832273    
0.0642864520    0.0195654590    0.0003761198    
0.0645091130    0.0196302770    0.0003800437    
0.0647317740    0.0200791510    0.0003847880    
0.0649544350    0.0191373570    0.0003752423    
0.0651770960    0.0197660660    0.0003792760    
0.0653997570    0.0194920300    0.0003758209    
0.0656224180    0.0199334980    0.0003808794    
0.0658450790    0.0199160500    0.0003752406    
0.0660677400    0.0192730840    0.0003707048    
0.0662904010    0.0194439370    0.0003767893    
0.0665130620    0.0192756140    0.0003735275    
0.0667357230    0.0187149760    0.0003745993    
0.0669583840    0.0188580780    0.0003747707    
0.0671810450    0.0189892430    0.0003739953    
0.0674037060    0.0196533360    0.0003869247    
0.0676263670    0.0196893870    0.0003844440    
0.0678490280    0.0196124240    0.0003813453    
0.0680716890    0.0200498620    0.0003864327    
0.0682943500    0.0200866390    0.0003825506    
0.0685170110    0.0200148410    0.0003779750    
0.0687396720    0.0200577310    0.0003773745    
0.0689623330    0.0197544290    0.0003733236    
0.0691849940    0.0204940750    0.0003828829    
0.0694076550    0.0191574110    0.0003699886    
0.0696303160    0.0203884440    0.0003786692    
0.0698529770    0.0189233880    0.0003640460    
0.0700756380    0.0201468770    0.0003708084    
0.0702982990    0.0193466530    0.0003673268    
0.0705209600    0.0199206770    0.0003700453    
0.0707436210    0.0195201790    0.0003646244    
0.0709662820    0.0196326730    0.0003700328    
0.0711889430    0.0192077960    0.0003615115    
0.0714116040    0.0192384770    0.0003625387    
0.0716342650    0.0197805440    0.0003661181    
0.0718569260    0.0197963020    0.0003647887    
0.0720795870    0.0194146640    0.0003627167    
0.0723022480    0.0198137380    0.0003669840    
0.0725249090    0.0191628530    0.0003565838    
0.0727475700    0.0193363740    0.0003612541    
0.0729702310    0.0200188170    0.0003646421    
0.0731928920    0.0189606380    0.0003562922    
0.0734155530    0.0201387160    0.0003664615    
0.0736382140    0.0185644350    0.0003495885    
0.0738608750    0.0190584770    0.0003564980    
0.0740835360    0.0201384310    0.0003655496    
0.0743061970    0.0192140890    0.0003520339    
0.0745288580    0.0192623490    0.0003561001    
0.0747515190    0.0198275900    0.0003620006    
0.0749741800    0.0199033630    0.0003593344    
0.0751968410    0.0191825580    0.0003555375    
0.0754195020    0.0195185350    0.0003565364    
0.0756421630    0.0197901420    0.0003560737    
0.0758648240    0.0195828440    0.0003550554    
0.0760874850    0.0201621520    0.0003600959    
0.0763101460    0.0194109750    0.0003529852    
0.0765328070    0.0197185340    0.0003594110    
0.0767554680    0.0194065990    0.0003541374    
0.0769781290    0.0195036170    0.0003529813    
0.0772007900    0.0190034360    0.0003456313    
0.0774234510    0.0200722050    0.0003572381    
0.0776461120    0.0199453020    0.0003557693    
0.0778687730    0.0193787570    0.0003495216    
0.0780914340    0.0195607650    0.0003536683    
0.0783140950    0.0193227740    0.0003459331    
0.0785367560    0.0199828570    0.0003574642    
0.0787594170    0.0191427880    0.0003467350    
0.0789820780    0.0196060390    0.0003491074    
0.0792047390    0.0192213800    0.0003467959    
0.0794274000    0.0199462060    0.0003547710    
0.0796500610    0.0190761230    0.0003435606    
0.0798727220    0.0194176640    0.0003463026    
0.0800953830    0.0192608310    0.0003441080    
0.0803180440    0.0196984260    0.0003504193    
0.0805407050    0.0195933620    0.0003491585    
0.0807633660    0.0199669000    0.0003521439    
0.0809860270    0.0195422930    0.0003470930    
0.0812086880    0.0196361610    0.0003449190    
0.0814313490    0.0196139150    0.0003462957    
0.0816540100    0.0192995170    0.0003427270    
0.0818766710    0.0197362540    0.0003473745    
0.0820993320    0.0196400170    0.0003458950    
0.0823219930    0.0191021520    0.0003425327    
0.0825446540    0.0192856330    0.0003416733    
0.0827673150    0.0195588960    0.0003417737    
0.0829899760    0.0189418340    0.0003357405    
0.0832126370    0.0197003250    0.0003439302    
0.0834352980    0.0189966400    0.0003369767    
0.0836579590    0.0196203280    0.0003417014    
0.0838806200    0.0192762290    0.0003397517    
0.0841032810    0.0197532600    0.0003417949    
0.0843259420    0.0191145400    0.0003351881    
0.0845486030    0.0195612800    0.0003390827    
0.0847712640    0.0187313360    0.0003297893    
0.0849939250    0.0198221130    0.0003398465    
0.0852165860    0.0195761430    0.0003381738    
0.0854392470    0.0192013960    0.0003317496    
0.0856619080    0.0193049610    0.0003350930    
0.0858845690    0.0185360840    0.0003253948    
0.0861072300    0.0198411210    0.0003389788    
0.0863298910    0.0195169120    0.0003379583    
0.0865525520    0.0197162020    0.0003367463    
0.0867752130    0.0191333280    0.0003290546    
0.0869978740    0.0191854740    0.0003303424    
0.0872205350    0.0190232150    0.0003285240    
0.0874431960    0.0196813710    0.0003341590    
0.0876658570    0.0187808410    0.0003276780    
0.0878885180    0.0197172880    0.0003363236    
0.0881111790    0.0193520050    0.0003327662    
0.0883338400    0.0195506110    0.0003295723    
0.0885565010    0.0188116910    0.0003276681    
0.0887791620    0.0195113210    0.0003293783    
0.0890018230    0.0195401950    0.0003328191    
0.0892244840    0.0195782490    0.0003337094    
0.0894471450    0.0195993250    0.0003324786    
0.0896698060    0.0195525030    0.0003308286    
0.0898924670    0.0192313700    0.0003296214    
0.0901151280    0.0191885570    0.0003256979    
0.0903377890    0.0192356470    0.0003288265    
0.0905604500    0.0193324130    0.0003281397    
0.0907831110    0.0196021150    0.0003295986    
0.0910057720    0.0197992130    0.0003327716    
0.0912284330    0.0198231810    0.0003282056    
0.0914510940    0.0186287770    0.0003217122    
0.0916737550    0.0194099060    0.0003275729    
0.0918964160    0.0193542860    0.0003284636    
0.0921190770    0.0195806510    0.0003273917    
0.0923417380    0.0193282710    0.0003254084    
0.0925643990    0.0196808320    0.0003275592    
0.0927870600    0.0191005450    0.0003240174    
0.0930097210    0.0197329670    0.0003265329    
0.0932323820    0.0191797500    0.0003242896    
