# Diamond Light Source Ltd.
# Data extracted from: /dls/b21/data/2018/cm19678-3/processed/b21-386631_00263.dat
q(1/A)          Column          Error           
0.0035000000    2.1159255000    0.0248109600    
0.0037226610    1.8707938000    0.0228383460    
0.0039453220    1.6356924000    0.0194271530    
0.0041679830    1.2956349000    0.0141992190    
0.0043906440    0.9779359200    0.0117995010    
0.0046133050    0.8276301100    0.0104205450    
0.0048359660    0.5830880200    0.0082734574    
0.0050586270    0.4644262300    0.0072575458    
0.0052812880    0.4400081000    0.0066790672    
0.0055039490    0.3836078900    0.0059297966    
0.0057266100    0.3126070300    0.0051785664    
0.0059492710    0.2739172200    0.0048475230    
0.0061719320    0.2255947700    0.0042391853    
0.0063945930    0.1984562700    0.0040242323    
0.0066172539    0.1862072000    0.0036602803    
0.0068399149    0.1613596600    0.0033536634    
0.0070625759    0.1491903200    0.0031916474    
0.0072852369    0.1285273900    0.0029180640    
0.0075078979    0.1149998100    0.0027466680    
0.0077305589    0.1015700400    0.0025321393    
0.0079532199    0.0925128910    0.0023831184    
0.0081758809    0.0883011740    0.0023498986    
0.0083985419    0.0837782400    0.0021348672    
0.0086212029    0.0778484940    0.0020579290    
0.0088438639    0.0740869710    0.0019914701    
0.0090665249    0.0701097050    0.0018710896    
0.0092891859    0.0639217500    0.0018647891    
0.0095118469    0.0624361490    0.0017723530    
0.0097345079    0.0562835680    0.0016343282    
0.0099571689    0.0577188990    0.0016209082    
0.0101798300    0.0507999240    0.0015206559    
0.0104024910    0.0457546330    0.0014382846    
0.0106251520    0.0460203780    0.0014473535    
0.0108478130    0.0444222050    0.0013848171    
0.0110704740    0.0429657850    0.0012966465    
0.0112931350    0.0406994210    0.0012656918    
0.0115157960    0.0408875390    0.0012612164    
0.0117384570    0.0371659300    0.0011920978    
0.0119611180    0.0369180600    0.0011915252    
0.0121837790    0.0372487910    0.0011767341    
0.0124064400    0.0358126520    0.0011057291    
0.0126291010    0.0355210280    0.0010874350    
0.0128517620    0.0349291300    0.0010810294    
0.0130744230    0.0343799810    0.0010645437    
0.0132970840    0.0322166780    0.0010254682    
0.0135197450    0.0329813520    0.0010227083    
0.0137424060    0.0305584690    0.0009707218    
0.0139650670    0.0319831810    0.0009709722    
0.0141877280    0.0303482270    0.0009479193    
0.0144103890    0.0316269470    0.0009509982    
0.0146330500    0.0294761170    0.0009122629    
0.0148557110    0.0298734060    0.0009145396    
0.0150783720    0.0285555690    0.0008867505    
0.0153010330    0.0299240420    0.0008949512    
0.0155236940    0.0293311850    0.0008807727    
0.0157463550    0.0286045710    0.0008547250    
0.0159690160    0.0264108640    0.0008181798    
0.0161916770    0.0272920130    0.0008270307    
0.0164143380    0.0275798950    0.0008376796    
0.0166369990    0.0270286140    0.0008036972    
0.0168596600    0.0268127010    0.0007934280    
0.0170823210    0.0260504600    0.0007752976    
0.0173049820    0.0253070730    0.0007654765    
0.0175276430    0.0247796160    0.0007654449    
0.0177503040    0.0268106860    0.0007759000    
0.0179729650    0.0235741410    0.0007203460    
0.0181956260    0.0251988090    0.0007304770    
0.0184182870    0.0256960100    0.0007341717    
0.0186409480    0.0230483380    0.0006997207    
0.0188636090    0.0231369120    0.0006966548    
0.0190862700    0.0224372930    0.0006849685    
0.0193089310    0.0249522650    0.0007212119    
0.0195315920    0.0240036740    0.0006833137    
0.0197542530    0.0235079140    0.0006772056    
0.0199769140    0.0240346560    0.0006847508    
0.0201995750    0.0241951420    0.0006762748    
0.0204222360    0.0226702440    0.0006602361    
0.0206448970    0.0232211200    0.0006634606    
0.0208675580    0.0218927650    0.0006309390    
0.0210902190    0.0232440840    0.0006563926    
0.0213128800    0.0229963310    0.0006440261    
0.0215355410    0.0223988620    0.0006280329    
0.0217582020    0.0219410320    0.0006215814    
0.0219808630    0.0227967260    0.0006327544    
0.0222035240    0.0230752990    0.0006308401    
0.0224261850    0.0212941980    0.0006006115    
0.0226488460    0.0222104300    0.0006087906    
0.0228715070    0.0215522750    0.0005982129    
0.0230941680    0.0218843680    0.0006028042    
0.0233168290    0.0227945040    0.0006167438    
0.0235394900    0.0218534860    0.0005972146    
0.0237621510    0.0220526230    0.0005837787    
0.0239848120    0.0224909210    0.0005902336    
0.0242074730    0.0220256070    0.0005794206    
0.0244301340    0.0209606500    0.0005658844    
0.0246527950    0.0213973100    0.0005770425    
0.0248754560    0.0204760670    0.0005517973    
0.0250981170    0.0215234200    0.0005669951    
0.0253207780    0.0219302280    0.0005552401    
0.0255434390    0.0214961950    0.0005555852    
0.0257661000    0.0214909630    0.0005573146    
0.0259887610    0.0213054120    0.0005490065    
0.0262114220    0.0208610300    0.0005461452    
0.0264340830    0.0210206380    0.0005407713    
0.0266567440    0.0218334140    0.0005477214    
0.0268794050    0.0209741340    0.0005346440    
0.0271020660    0.0209668760    0.0005323875    
0.0273247270    0.0204753700    0.0005229506    
0.0275473880    0.0211123460    0.0005299660    
0.0277700490    0.0210606850    0.0005261884    
0.0279927100    0.0216377960    0.0005286955    
0.0282153710    0.0212617220    0.0005266288    
0.0284380320    0.0210675050    0.0005211792    
0.0286606930    0.0210759400    0.0005168218    
0.0288833540    0.0208634900    0.0005151872    
0.0291060150    0.0202398260    0.0005069471    
0.0293286760    0.0209389960    0.0005084438    
0.0295513370    0.0209444450    0.0005029726    
0.0297739980    0.0207291340    0.0005058897    
0.0299966590    0.0202775770    0.0004918035    
0.0302193200    0.0206518860    0.0005035548    
0.0304419810    0.0210976640    0.0005098970    
0.0306646420    0.0210407530    0.0004948369    
0.0308873030    0.0209747510    0.0004919261    
0.0311099640    0.0210954140    0.0004946200    
0.0313326250    0.0209481800    0.0004874307    
0.0315552860    0.0210873500    0.0004953851    
0.0317779470    0.0205412040    0.0004893538    
0.0320006080    0.0196183990    0.0004673698    
0.0322232690    0.0208720700    0.0004840897    
0.0324459300    0.0211588580    0.0004837653    
0.0326685910    0.0214198780    0.0004859377    
0.0328912520    0.0209960190    0.0004826990    
0.0331139130    0.0200100960    0.0004650996    
0.0333365740    0.0201184930    0.0004678719    
0.0335592350    0.0206192800    0.0004691049    
0.0337818960    0.0208528470    0.0004713787    
0.0340045570    0.0202343310    0.0004635978    
0.0342272170    0.0206440740    0.0004664211    
0.0344498780    0.0204149250    0.0004656623    
0.0346725390    0.0196453020    0.0004483406    
0.0348952000    0.0193856090    0.0004433386    
0.0351178610    0.0197783420    0.0004498564    
0.0353405220    0.0201764700    0.0004522917    
0.0355631830    0.0201757200    0.0004505799    
0.0357858440    0.0203971120    0.0004530455    
0.0360085050    0.0205914220    0.0004565737    
0.0362311660    0.0198972130    0.0004434762    
0.0364538270    0.0204739240    0.0004462467    
0.0366764880    0.0206967390    0.0004483428    
0.0368991490    0.0194598400    0.0004325477    
0.0371218100    0.0195207260    0.0004319844    
0.0373444710    0.0197332840    0.0004390598    
0.0375671320    0.0197440320    0.0004385398    
0.0377897930    0.0197886990    0.0004276701    
0.0380124540    0.0198693370    0.0004312294    
0.0382351150    0.0206367960    0.0004394789    
0.0384577760    0.0202129550    0.0004307459    
0.0386804370    0.0204573980    0.0004366497    
0.0389030980    0.0202680590    0.0004313329    
0.0391257590    0.0197221540    0.0004225960    
0.0393484200    0.0197065530    0.0004210071    
0.0395710810    0.0201745380    0.0004265507    
0.0397937420    0.0194891410    0.0004192425    
0.0400164030    0.0199298890    0.0004256813    
0.0402390640    0.0193938050    0.0004143257    
0.0404617250    0.0191044240    0.0004087969    
0.0406843860    0.0204014160    0.0004183641    
0.0409070470    0.0206447490    0.0004252358    
0.0411297080    0.0203331420    0.0004179318    
0.0413523690    0.0199372960    0.0004149104    
0.0415750300    0.0198734800    0.0004177646    
0.0417976910    0.0200004770    0.0004082580    
0.0420203520    0.0203021930    0.0004128714    
0.0422430130    0.0195679110    0.0004068709    
0.0424656740    0.0194904000    0.0004007792    
0.0426883350    0.0198757830    0.0004067308    
0.0429109960    0.0201006800    0.0004103034    
0.0431336570    0.0195301270    0.0003987401    
0.0433563180    0.0201004310    0.0004080097    
0.0435789790    0.0200194340    0.0004007897    
0.0438016400    0.0199377230    0.0004021468    
0.0440243010    0.0197338850    0.0003960265    
0.0442469620    0.0196171900    0.0003972198    
0.0444696230    0.0195885450    0.0003955063    
0.0446922840    0.0202503200    0.0004009375    
0.0449149450    0.0212734370    0.0004054474    
0.0451376060    0.0196322250    0.0003943041    
0.0453602670    0.0196337360    0.0003901855    
0.0455829280    0.0192943760    0.0003863514    
0.0458055890    0.0194730960    0.0003904000    
0.0460282500    0.0202667560    0.0003934736    
0.0462509110    0.0197891040    0.0003863910    
0.0464735720    0.0198492200    0.0003871959    
0.0466962330    0.0198852810    0.0003893092    
0.0469188940    0.0191588260    0.0003810486    
0.0471415550    0.0204433810    0.0003956372    
0.0473642160    0.0206564910    0.0003921255    
0.0475868770    0.0205475740    0.0003891474    
0.0478095380    0.0203754420    0.0003858183    
0.0480321990    0.0198411210    0.0003815600    
0.0482548600    0.0204614610    0.0003857907    
0.0484775210    0.0201278950    0.0003864323    
0.0487001820    0.0198886900    0.0003785062    
0.0489228430    0.0198745170    0.0003781680    
0.0491455040    0.0194728110    0.0003717377    
0.0493681650    0.0198305860    0.0003783609    
0.0495908260    0.0191688940    0.0003657360    
0.0498134870    0.0196920400    0.0003742219    
0.0500361480    0.0194182000    0.0003706276    
0.0502588090    0.0201790570    0.0003721579    
0.0504814700    0.0193153410    0.0003688660    
0.0507041310    0.0192920760    0.0003642609    
0.0509267920    0.0195005710    0.0003677390    
0.0511494530    0.0205893700    0.0003753461    
0.0513721140    0.0195330290    0.0003688104    
0.0515947750    0.0193642890    0.0003623452    
0.0518174360    0.0195604240    0.0003619819    
0.0520400970    0.0197261200    0.0003609913    
0.0522627580    0.0197671950    0.0003644380    
0.0524854190    0.0201718870    0.0003711430    
0.0527080800    0.0202635450    0.0003748654    
0.0529307410    0.0194743140    0.0003692186    
0.0531534020    0.0192076880    0.0003653474    
0.0533760630    0.0195938570    0.0003701569    
0.0535987240    0.0196052990    0.0003685363    
0.0538213850    0.0201614690    0.0003780571    
0.0540440460    0.0198517090    0.0003733662    
0.0542667070    0.0195994450    0.0003735431    
0.0544893680    0.0196630980    0.0003743485    
0.0547120290    0.0195703470    0.0003709061    
0.0549346900    0.0196261300    0.0003716297    
0.0551573510    0.0197019270    0.0003767299    
0.0553800120    0.0197507790    0.0003739900    
0.0556026730    0.0206373120    0.0003902176    
0.0558253340    0.0202866440    0.0003901278    
0.0560479950    0.0193788660    0.0003812994    
0.0562706560    0.0202448770    0.0003934940    
0.0564933170    0.0196330820    0.0003908678    
0.0567159780    0.0199930980    0.0003897060    
0.0569386390    0.0196613500    0.0003925211    
0.0571613000    0.0198291140    0.0003857045    
0.0573839610    0.0200914740    0.0003850241    
0.0576066220    0.0193273840    0.0003786772    
0.0578292830    0.0202241650    0.0003860811    
0.0580519440    0.0199207990    0.0003846603    
0.0582746050    0.0199001060    0.0003827651    
0.0584972660    0.0195507900    0.0003779386    
0.0587199270    0.0199547710    0.0003785319    
0.0589425880    0.0199420230    0.0003761976    
0.0591652490    0.0196173260    0.0003753181    
0.0593879100    0.0193128780    0.0003696287    
0.0596105710    0.0202039950    0.0003776613    
0.0598332320    0.0203210870    0.0003819915    
0.0600558930    0.0197437700    0.0003741257    
0.0602785540    0.0191856220    0.0003684097    
0.0605012150    0.0192880190    0.0003686132    
0.0607238760    0.0198826490    0.0003715247    
0.0609465370    0.0197808700    0.0003734900    
0.0611691980    0.0201053740    0.0003771378    
0.0613918590    0.0202847210    0.0003746805    
0.0616145200    0.0203509950    0.0003780389    
0.0618371810    0.0204007450    0.0003747833    
0.0620598420    0.0191181520    0.0003631848    
0.0622825030    0.0193944340    0.0003713937    
0.0625051640    0.0195863400    0.0003679849    
0.0627278250    0.0194093670    0.0003655643    
0.0629504860    0.0195218090    0.0003636412    
0.0631731470    0.0191955970    0.0003650514    
0.0633958080    0.0192486450    0.0003676594    
0.0636184690    0.0194203500    0.0003744389    
0.0638411300    0.0201203360    0.0003796966    
0.0640637910    0.0198884370    0.0003801572    
0.0642864520    0.0198748060    0.0003792046    
0.0645091130    0.0198050010    0.0003818552    
0.0647317740    0.0196716070    0.0003809866    
0.0649544350    0.0194590110    0.0003785055    
0.0651770960    0.0191671860    0.0003736074    
0.0653997570    0.0200702540    0.0003814783    
0.0656224180    0.0202377400    0.0003838997    
0.0658450790    0.0192922770    0.0003694375    
0.0660677400    0.0193997610    0.0003720418    
0.0662904010    0.0196319170    0.0003787293    
0.0665130620    0.0197589300    0.0003783043    
0.0667357230    0.0195299380    0.0003827928    
0.0669583840    0.0195336200    0.0003815480    
0.0671810450    0.0195838600    0.0003799291    
0.0674037060    0.0194374260    0.0003849184    
0.0676263670    0.0192364750    0.0003801200    
0.0678490280    0.0197216200    0.0003825296    
0.0680716890    0.0196082650    0.0003822775    
0.0682943500    0.0191008980    0.0003731669    
0.0685170110    0.0191707290    0.0003700389    
0.0687396720    0.0192679290    0.0003699902    
0.0689623330    0.0196543040    0.0003724972    
0.0691849940    0.0201423340    0.0003797062    
0.0694076550    0.0196632220    0.0003749629    
0.0696303160    0.0191279010    0.0003668957    
0.0698529770    0.0197906580    0.0003724156    
0.0700756380    0.0195111840    0.0003650300    
0.0702982990    0.0202385500    0.0003758204    
0.0705209600    0.0198304400    0.0003693261    
0.0707436210    0.0200576420    0.0003697300    
0.0709662820    0.0190661810    0.0003647736    
0.0711889430    0.0200304790    0.0003692921    
0.0714116040    0.0197090040    0.0003670645    
0.0716342650    0.0199696950    0.0003679839    
0.0718569260    0.0195871900    0.0003629748    
0.0720795870    0.0191696000    0.0003605372    
0.0723022480    0.0196429650    0.0003655177    
0.0725249090    0.0198591830    0.0003631225    
0.0727475700    0.0195920620    0.0003637527    
0.0729702310    0.0195931670    0.0003608618    
0.0731928920    0.0199309810    0.0003654140    
0.0734155530    0.0193510630    0.0003593402    
0.0736382140    0.0195448420    0.0003588173    
0.0738608750    0.0191576020    0.0003575399    
0.0740835360    0.0195207390    0.0003600167    
0.0743061970    0.0197945240    0.0003574277    
0.0745288580    0.0190047750    0.0003538261    
0.0747515190    0.0192849360    0.0003571284    
0.0749741800    0.0196371510    0.0003570391    
0.0751968410    0.0199599170    0.0003627877    
0.0754195020    0.0194660440    0.0003561723    
0.0756421630    0.0196234940    0.0003546865    
0.0758648240    0.0200464810    0.0003593506    
0.0760874850    0.0191777480    0.0003513092    
0.0763101460    0.0198282410    0.0003568748    
0.0765328070    0.0201049910    0.0003630338    
0.0767554680    0.0193739370    0.0003539541    
0.0769781290    0.0193309030    0.0003515291    
0.0772007900    0.0198586890    0.0003534380    
0.0774234510    0.0197162390    0.0003541712    
0.0776461120    0.0201106580    0.0003573570    
0.0778687730    0.0194418090    0.0003502034    
0.0780914340    0.0188760170    0.0003475356    
0.0783140950    0.0193353250    0.0003461578    
0.0785367560    0.0195991190    0.0003541303    
0.0787594170    0.0196956910    0.0003518210    
0.0789820780    0.0193264210    0.0003467215    
0.0792047390    0.0202982390    0.0003564937    
0.0794274000    0.0190941180    0.0003472232    
0.0796500610    0.0189708740    0.0003427228    
0.0798727220    0.0199370460    0.0003510174    
0.0800953830    0.0196055350    0.0003472863    
0.0803180440    0.0197236950    0.0003507578    
0.0805407050    0.0199173950    0.0003521482    
0.0807633660    0.0201041610    0.0003534669    
0.0809860270    0.0195426490    0.0003472089    
0.0812086880    0.0198489820    0.0003468957    
0.0814313490    0.0200120910    0.0003499067    
0.0816540100    0.0193973160    0.0003437058    
0.0818766710    0.0187518310    0.0003387103    
0.0820993320    0.0196283900    0.0003459049    
0.0823219930    0.0195509370    0.0003466456    
0.0825446540    0.0191770160    0.0003408204    
0.0827673150    0.0194102470    0.0003405831    
0.0829899760    0.0200438660    0.0003454812    
0.0832126370    0.0196950960    0.0003439962    
0.0834352980    0.0199660070    0.0003455796    
0.0836579590    0.0195913880    0.0003415602    
0.0838806200    0.0202894400    0.0003486796    
0.0841032810    0.0195826330    0.0003404260    
0.0843259420    0.0195916010    0.0003394553    
0.0845486030    0.0192681420    0.0003366417    
0.0847712640    0.0195278710    0.0003368377    
0.0849939250    0.0190828680    0.0003335574    
0.0852165860    0.0192556550    0.0003355031    
0.0854392470    0.0194719640    0.0003341872    
0.0856619080    0.0198005830    0.0003394774    
0.0858845690    0.0191597260    0.0003309309    
0.0861072300    0.0194425570    0.0003356658    
0.0863298910    0.0194944530    0.0003378735    
0.0865525520    0.0192398120    0.0003327612    
0.0867752130    0.0192420230    0.0003300951    
0.0869978740    0.0195963510    0.0003339694    
0.0872205350    0.0195124540    0.0003328298    
0.0874431960    0.0189845070    0.0003282964    
0.0876658570    0.0198971670    0.0003373855    
0.0878885180    0.0196841710    0.0003361502    
0.0881111790    0.0193244940    0.0003326375    
0.0883338400    0.0191519190    0.0003263005    
0.0885565010    0.0187782210    0.0003274828    
0.0887791620    0.0194572260    0.0003290282    
0.0890018230    0.0194167490    0.0003318739    
0.0892244840    0.0195112810    0.0003332463    
0.0894471450    0.0191718420    0.0003289395    
0.0896698060    0.0195035890    0.0003305218    
0.0898924670    0.0194586870    0.0003316715    
0.0901151280    0.0196490990    0.0003296903    
0.0903377890    0.0196925020    0.0003328165    
0.0905604500    0.0192613700    0.0003276426    
0.0907831110    0.0194041140    0.0003280363    
0.0910057720    0.0198008810    0.0003328937    
0.0912284330    0.0192977430    0.0003239317    
0.0914510940    0.0194080830    0.0003284791    
0.0916737550    0.0191846420    0.0003257723    
0.0918964160    0.0196569140    0.0003311291    
0.0921190770    0.0191003850    0.0003234567    
0.0923417380    0.0190886490    0.0003234900    
0.0925643990    0.0198081770    0.0003287240    
0.0927870600    0.0199324710    0.0003311060    
0.0930097210    0.0193781180    0.0003236888    
0.0932323820    0.0195982180    0.0003279147    
