# Diamond Light Source Ltd.
# Data extracted from: /dls/b21/data/2018/cm19678-3/processed/b21-386631_00269.dat
q(1/A)          Column          Error           
0.0035000000    2.1184764000    0.0248255160    
0.0037226610    1.8827225000    0.0229106780    
0.0039453220    1.6047226000    0.0192420530    
0.0041679830    1.2842343000    0.0141363840    
0.0043906440    0.9780471400    0.0117999840    
0.0046133050    0.7908680100    0.0101863220    
0.0048359660    0.5888214900    0.0083139018    
0.0050586270    0.4599884700    0.0072226734    
0.0052812880    0.4386761400    0.0066688441    
0.0055039490    0.3942281900    0.0060112246    
0.0057266100    0.3231485100    0.0052650724    
0.0059492710    0.2775114300    0.0048791450    
0.0061719320    0.2262248400    0.0042450335    
0.0063945930    0.2051411100    0.0040913823    
0.0066172539    0.1869207500    0.0036672283    
0.0068399149    0.1726458500    0.0034689109    
0.0070625759    0.1500048900    0.0032002978    
0.0072852369    0.1281258000    0.0029134553    
0.0075078979    0.1173577400    0.0027746394    
0.0077305589    0.1052280100    0.0025772915    
0.0079532199    0.0918960760    0.0023751228    
0.0081758809    0.0970531570    0.0024635638    
0.0083985419    0.0817083830    0.0021082963    
0.0086212029    0.0787708100    0.0020700509    
0.0088438639    0.0708193210    0.0019470264    
0.0090665249    0.0665122170    0.0018224235    
0.0092891859    0.0646269100    0.0018750168    
0.0095118469    0.0618304460    0.0017637070    
0.0097345079    0.0586545310    0.0016683699    
0.0099571689    0.0545307880    0.0015754817    
0.0101798300    0.0522548880    0.0015422543    
0.0104024910    0.0486918680    0.0014837085    
0.0106251520    0.0493872600    0.0014993398    
0.0108478130    0.0456726880    0.0014041508    
0.0110704740    0.0435513630    0.0013054317    
0.0112931350    0.0430990780    0.0013024496    
0.0115157960    0.0406917260    0.0012581727    
0.0117384570    0.0406059270    0.0012460262    
0.0119611180    0.0401471110    0.0012425219    
0.0121837790    0.0397382140    0.0012154007    
0.0124064400    0.0375184470    0.0011317383    
0.0126291010    0.0359859500    0.0010945110    
0.0128517620    0.0346269140    0.0010763255    
0.0130744230    0.0350051560    0.0010741619    
0.0132970840    0.0322809320    0.0010264739    
0.0135197450    0.0325680480    0.0010162639    
0.0137424060    0.0337643370    0.0010203547    
0.0139650670    0.0331907050    0.0009891161    
0.0141877280    0.0301696170    0.0009451108    
0.0144103890    0.0292525650    0.0009145893    
0.0146330500    0.0306044950    0.0009295453    
0.0148557110    0.0311323050    0.0009335958    
0.0150783720    0.0296560930    0.0009036621    
0.0153010330    0.0302977960    0.0009005085    
0.0155236940    0.0277962970    0.0008574042    
0.0157463550    0.0287824320    0.0008573646    
0.0159690160    0.0281842090    0.0008451883    
0.0161916770    0.0262636530    0.0008112870    
0.0164143380    0.0267648760    0.0008251965    
0.0166369990    0.0259045840    0.0007867957    
0.0168596600    0.0263657660    0.0007867749    
0.0170823210    0.0274109490    0.0007952723    
0.0173049820    0.0265333780    0.0007837909    
0.0175276430    0.0251807740    0.0007716036    
0.0177503040    0.0248563510    0.0007470739    
0.0179729650    0.0256423900    0.0007512691    
0.0181956260    0.0251556570    0.0007298396    
0.0184182870    0.0252756780    0.0007281306    
0.0186409480    0.0252142910    0.0007318489    
0.0188636090    0.0239122750    0.0007082205    
0.0190862700    0.0244857720    0.0007155424    
0.0193089310    0.0245762600    0.0007157459    
0.0195315920    0.0228552830    0.0006667571    
0.0197542530    0.0243655180    0.0006894368    
0.0199769140    0.0232925850    0.0006740863    
0.0201995750    0.0243833900    0.0006788897    
0.0204222360    0.0236693650    0.0006746175    
0.0206448970    0.0233530690    0.0006653323    
0.0208675580    0.0239285390    0.0006596115    
0.0210902190    0.0228911720    0.0006513802    
0.0213128800    0.0223282750    0.0006345924    
0.0215355410    0.0224333660    0.0006285064    
0.0217582020    0.0217642470    0.0006190624    
0.0219808630    0.0230418740    0.0006361373    
0.0222035240    0.0231263000    0.0006315268    
0.0224261850    0.0223776770    0.0006156921    
0.0226488460    0.0233444050    0.0006241284    
0.0228715070    0.0216512100    0.0005995748    
0.0230941680    0.0215183900    0.0005977330    
0.0233168290    0.0223766150    0.0006110546    
0.0235394900    0.0226361610    0.0006078054    
0.0237621510    0.0227164150    0.0005924901    
0.0239848120    0.0226296070    0.0005920412    
0.0242074730    0.0224059590    0.0005843928    
0.0244301340    0.0218918770    0.0005783089    
0.0246527950    0.0211320880    0.0005734460    
0.0248754560    0.0217839380    0.0005691380    
0.0250981170    0.0222097890    0.0005759555    
0.0253207780    0.0205800200    0.0005378674    
0.0255434390    0.0213375610    0.0005535226    
0.0257661000    0.0217793210    0.0005610321    
0.0259887610    0.0220969410    0.0005591028    
0.0262114220    0.0226761750    0.0005694010    
0.0264340830    0.0210756140    0.0005414694    
0.0266567440    0.0221762160    0.0005519957    
0.0268794050    0.0213277940    0.0005391241    
0.0271020660    0.0215880300    0.0005402074    
0.0273247270    0.0213829250    0.0005344061    
0.0275473880    0.0214841540    0.0005346037    
0.0277700490    0.0221511380    0.0005396300    
0.0279927100    0.0210170590    0.0005210485    
0.0282153710    0.0216132220    0.0005309557    
0.0284380320    0.0203448370    0.0005121542    
0.0286606930    0.0215188260    0.0005222155    
0.0288833540    0.0211426930    0.0005186147    
0.0291060150    0.0211660700    0.0005184089    
0.0293286760    0.0213704290    0.0005136469    
0.0295513370    0.0208109170    0.0005013587    
0.0297739980    0.0207408200    0.0005060242    
0.0299966590    0.0210402980    0.0005009595    
0.0302193200    0.0204793390    0.0005014388    
0.0304419810    0.0209737620    0.0005083895    
0.0306646420    0.0211913660    0.0004965969    
0.0308873030    0.0201895740    0.0004826231    
0.0311099640    0.0214426490    0.0004986663    
0.0313326250    0.0206526370    0.0004839723    
0.0315552860    0.0210750410    0.0004952326    
0.0317779470    0.0210651390    0.0004955474    
0.0320006080    0.0206754860    0.0004797884    
0.0322232690    0.0209836770    0.0004853745    
0.0324459300    0.0206936560    0.0004784101    
0.0326685910    0.0203388660    0.0004735093    
0.0328912520    0.0203739240    0.0004754867    
0.0331139130    0.0202580900    0.0004679654    
0.0333365740    0.0210209250    0.0004782426    
0.0335592350    0.0206719840    0.0004696965    
0.0337818960    0.0199358370    0.0004608903    
0.0340045570    0.0204248720    0.0004657680    
0.0342272170    0.0208225580    0.0004684256    
0.0344498780    0.0216463540    0.0004794934    
0.0346725390    0.0206371410    0.0004595117    
0.0348952000    0.0208956420    0.0004602743    
0.0351178610    0.0209952740    0.0004634820    
0.0353405220    0.0201961040    0.0004525045    
0.0355631830    0.0205574480    0.0004548152    
0.0357858440    0.0208593330    0.0004581427    
0.0360085050    0.0197505340    0.0004471469    
0.0362311660    0.0200250720    0.0004448917    
0.0364538270    0.0210373810    0.0004523384    
0.0366764880    0.0208514710    0.0004500085    
0.0368991490    0.0208148270    0.0004473463    
0.0371218100    0.0200171890    0.0004374362    
0.0373444710    0.0202113190    0.0004443390    
0.0375671320    0.0208343070    0.0004504781    
0.0377897930    0.0204627670    0.0004348861    
0.0380124540    0.0211508580    0.0004449116    
0.0382351150    0.0197751300    0.0004301992    
0.0384577760    0.0204417880    0.0004331704    
0.0386804370    0.0206711000    0.0004389174    
0.0389030980    0.0201389060    0.0004299496    
0.0391257590    0.0199478980    0.0004250009    
0.0393484200    0.0198048600    0.0004220492    
0.0395710810    0.0201738960    0.0004265371    
0.0397937420    0.0204354400    0.0004292932    
0.0400164030    0.0203383860    0.0004300149    
0.0402390640    0.0200216290    0.0004209719    
0.0404617250    0.0198035890    0.0004162035    
0.0406843860    0.0204436620    0.0004187904    
0.0409070470    0.0200572640    0.0004191350    
0.0411297080    0.0203324950    0.0004179185    
0.0413523690    0.0206792130    0.0004225531    
0.0415750300    0.0201450780    0.0004206029    
0.0417976910    0.0195665100    0.0004037982    
0.0420203520    0.0203267350    0.0004131143    
0.0422430130    0.0203202010    0.0004146117    
0.0424656740    0.0199924760    0.0004059020    
0.0426883350    0.0206242130    0.0004143113    
0.0429109960    0.0205187910    0.0004145422    
0.0431336570    0.0202784480    0.0004063010    
0.0433563180    0.0202985530    0.0004100090    
0.0435789790    0.0199064660    0.0003996509    
0.0438016400    0.0200181990    0.0004029512    
0.0440243010    0.0200193610    0.0003988744    
0.0442469620    0.0197935080    0.0003989945    
0.0444696230    0.0197715830    0.0003973435    
0.0446922840    0.0206783230    0.0004051459    
0.0449149450    0.0199746040    0.0003928691    
0.0451376060    0.0209065840    0.0004068938    
0.0453602670    0.0202069060    0.0003958336    
0.0455829280    0.0197811340    0.0003911883    
0.0458055890    0.0197072730    0.0003927341    
0.0460282500    0.0204418060    0.0003951629    
0.0462509110    0.0192226570    0.0003808147    
0.0464735720    0.0199618790    0.0003882870    
0.0466962330    0.0201285380    0.0003916770    
0.0469188940    0.0202949770    0.0003921780    
0.0471415550    0.0198302140    0.0003896525    
0.0473642160    0.0204101960    0.0003897745    
0.0475868770    0.0198983790    0.0003829445    
0.0478095380    0.0196223360    0.0003786149    
0.0480321990    0.0198625020    0.0003817595    
0.0482548600    0.0196316120    0.0003778805    
0.0484775210    0.0194966550    0.0003803185    
0.0487001820    0.0193550190    0.0003733875    
0.0489228430    0.0196868020    0.0003763718    
0.0491455040    0.0202456850    0.0003790370    
0.0493681650    0.0199093610    0.0003791056    
0.0495908260    0.0197125590    0.0003708803    
0.0498134870    0.0201749870    0.0003787770    
0.0500361480    0.0201391100    0.0003774388    
0.0502588090    0.0197460200    0.0003681371    
0.0504814700    0.0192372420    0.0003681137    
0.0507041310    0.0202405600    0.0003731018    
0.0509267920    0.0195900990    0.0003685763    
0.0511494530    0.0196718350    0.0003668816    
0.0513721140    0.0201173340    0.0003742800    
0.0515947750    0.0201976120    0.0003700537    
0.0518174360    0.0199416190    0.0003654862    
0.0520400970    0.0198444000    0.0003620662    
0.0522627580    0.0201226590    0.0003676944    
0.0524854190    0.0198434800    0.0003681036    
0.0527080800    0.0196318510    0.0003689702    
0.0529307410    0.0198796870    0.0003730357    
0.0531534020    0.0200687540    0.0003734408    
0.0533760630    0.0198869220    0.0003729089    
0.0535987240    0.0199579750    0.0003718303    
0.0538213850    0.0197567600    0.0003742374    
0.0540440460    0.0196614840    0.0003715671    
0.0542667070    0.0192713430    0.0003703973    
0.0544893680    0.0204962920    0.0003821913    
0.0547120290    0.0199001040    0.0003740119    
0.0549346900    0.0201180780    0.0003762525    
0.0551573510    0.0197301130    0.0003769932    
0.0553800120    0.0205928420    0.0003818731    
0.0556026730    0.0197291440    0.0003815290    
0.0558253340    0.0196633140    0.0003840813    
0.0560479950    0.0200609510    0.0003879456    
0.0562706560    0.0197624080    0.0003887708    
0.0564933170    0.0191577910    0.0003861014    
0.0567159780    0.0196050690    0.0003858996    
0.0569386390    0.0200838730    0.0003967100    
0.0571613000    0.0194533690    0.0003820266    
0.0573839610    0.0199654050    0.0003838082    
0.0576066220    0.0198832010    0.0003840775    
0.0578292830    0.0191032670    0.0003752236    
0.0580519440    0.0201355580    0.0003867220    
0.0582746050    0.0197964040    0.0003817604    
0.0584972660    0.0197547280    0.0003798986    
0.0587199270    0.0196956440    0.0003760601    
0.0589425880    0.0196220410    0.0003731613    
0.0591652490    0.0199757190    0.0003787249    
0.0593879100    0.0198711160    0.0003749267    
0.0596105710    0.0197798010    0.0003736697    
0.0598332320    0.0194300740    0.0003735172    
0.0600558930    0.0195659140    0.0003724308    
0.0602785540    0.0199560900    0.0003757283    
0.0605012150    0.0195057800    0.0003706823    
0.0607238760    0.0197223490    0.0003700182    
0.0609465370    0.0195757390    0.0003715424    
0.0611691980    0.0198217670    0.0003744625    
0.0613918590    0.0200210940    0.0003722319    
0.0616145200    0.0194585270    0.0003696508    
0.0618371810    0.0193398130    0.0003649021    
0.0620598420    0.0197936600    0.0003695395    
0.0622825030    0.0196569520    0.0003738928    
0.0625051640    0.0199313870    0.0003712062    
0.0627278250    0.0201729810    0.0003726802    
0.0629504860    0.0194466800    0.0003629350    
0.0631731470    0.0199169680    0.0003718416    
0.0633958080    0.0195921230    0.0003709193    
0.0636184690    0.0198384470    0.0003784420    
0.0638411300    0.0191452370    0.0003703757    
0.0640637910    0.0197424780    0.0003787537    
0.0642864520    0.0199248170    0.0003796753    
0.0645091130    0.0193258260    0.0003772015    
0.0647317740    0.0196340880    0.0003806171    
0.0649544350    0.0193111470    0.0003770587    
0.0651770960    0.0191884220    0.0003738083    
0.0653997570    0.0200188610    0.0003809835    
0.0656224180    0.0192540060    0.0003744470    
0.0658450790    0.0191289530    0.0003678645    
0.0660677400    0.0200269930    0.0003780024    
0.0662904010    0.0202742220    0.0003848688    
0.0665130620    0.0200262840    0.0003808490    
0.0667357230    0.0197919070    0.0003853455    
0.0669583840    0.0191827310    0.0003780995    
0.0671810450    0.0198780530    0.0003827660    
0.0674037060    0.0198179210    0.0003886614    
0.0676263670    0.0194386610    0.0003821063    
0.0678490280    0.0194390510    0.0003797733    
0.0680716890    0.0199579100    0.0003856646    
0.0682943500    0.0199751130    0.0003816049    
0.0685170110    0.0191129800    0.0003694752    
0.0687396720    0.0187842110    0.0003653106    
0.0689623330    0.0201196060    0.0003768748    
0.0691849940    0.0197265480    0.0003757608    
0.0694076550    0.0194552450    0.0003729687    
0.0696303160    0.0196621240    0.0003719780    
0.0698529770    0.0192574350    0.0003673585    
0.0700756380    0.0197222630    0.0003669933    
0.0702982990    0.0198261690    0.0003719659    
0.0705209600    0.0195959500    0.0003671302    
0.0707436210    0.0198048420    0.0003673868    
0.0709662820    0.0194563770    0.0003684814    
0.0711889430    0.0188520150    0.0003582583    
0.0714116040    0.0199271300    0.0003690842    
0.0716342650    0.0192774310    0.0003615436    
0.0718569260    0.0194049600    0.0003612766    
0.0720795870    0.0195148040    0.0003637632    
0.0723022480    0.0186425390    0.0003560824    
0.0725249090    0.0196460890    0.0003611633    
0.0727475700    0.0196657250    0.0003644301    
0.0729702310    0.0194131000    0.0003591940    
0.0731928920    0.0202452120    0.0003682774    
0.0734155530    0.0193504460    0.0003593288    
0.0736382140    0.0192280340    0.0003558917    
0.0738608750    0.0186632210    0.0003528908    
0.0740835360    0.0190487130    0.0003556316    
0.0743061970    0.0197616240    0.0003571248    
0.0745288580    0.0199461440    0.0003624775    
0.0747515190    0.0196215990    0.0003602265    
0.0749741800    0.0196624910    0.0003572637    
0.0751968410    0.0193592500    0.0003572815    
0.0754195020    0.0196478920    0.0003578263    
0.0756421630    0.0195651730    0.0003541534    
0.0758648240    0.0193694880    0.0003532250    
0.0760874850    0.0194795960    0.0003540574    
0.0763101460    0.0193458890    0.0003525017    
0.0765328070    0.0189178860    0.0003521474    
0.0767554680    0.0195220480    0.0003552989    
0.0769781290    0.0191449110    0.0003498283    
0.0772007900    0.0199901510    0.0003546003    
0.0774234510    0.0193148090    0.0003505416    
0.0776461120    0.0193289840    0.0003503376    
0.0778687730    0.0194538060    0.0003503059    
0.0780914340    0.0194128850    0.0003524376    
0.0783140950    0.0193533000    0.0003463132    
0.0785367560    0.0196496830    0.0003545811    
0.0787594170    0.0195002500    0.0003500655    
0.0789820780    0.0201281960    0.0003538348    
0.0792047390    0.0197716840    0.0003518338    
0.0794274000    0.0195986290    0.0003517749    
0.0796500610    0.0197379970    0.0003495779    
0.0798727220    0.0195532560    0.0003476169    
0.0800953830    0.0194572740    0.0003459652    
0.0803180440    0.0193612910    0.0003475149    
0.0805407050    0.0194062340    0.0003475945    
0.0807633660    0.0195877270    0.0003488919    
0.0809860270    0.0192644410    0.0003447231    
0.0812086880    0.0194785420    0.0003436379    
0.0814313490    0.0192161350    0.0003428720    
0.0816540100    0.0196890190    0.0003462751    
0.0818766710    0.0197300910    0.0003474275    
0.0820993320    0.0192803170    0.0003428188    
0.0823219930    0.0192184320    0.0003436798    
0.0825446540    0.0194307990    0.0003430627    
0.0827673150    0.0191646180    0.0003384158    
0.0829899760    0.0200610920    0.0003456241    
0.0832126370    0.0195983390    0.0003431447    
0.0834352980    0.0194689290    0.0003412452    
0.0836579590    0.0195669460    0.0003413416    
0.0838806200    0.0199112990    0.0003454096    
0.0841032810    0.0197950500    0.0003422619    
0.0843259420    0.0193968910    0.0003377589    
0.0845486030    0.0198615520    0.0003417808    
0.0847712640    0.0196841180    0.0003381771    
0.0849939250    0.0194787140    0.0003369939    
0.0852165860    0.0194420970    0.0003371180    
0.0854392470    0.0199129620    0.0003379450    
0.0856619080    0.0198348730    0.0003397658    
0.0858845690    0.0199135910    0.0003373732    
0.0861072300    0.0191579870    0.0003331950    
0.0863298910    0.0191951880    0.0003352648    
0.0865525520    0.0195960130    0.0003358220    
0.0867752130    0.0199209180    0.0003358624    
0.0869978740    0.0192485470    0.0003309872    
0.0872205350    0.0193642310    0.0003315579    
0.0874431960    0.0195970190    0.0003335451    
0.0876658570    0.0193187440    0.0003324401    
0.0878885180    0.0197179860    0.0003364335    
0.0881111790    0.0196044330    0.0003350329    
0.0883338400    0.0195126540    0.0003293539    
0.0885565010    0.0195428910    0.0003340787    
0.0887791620    0.0192396180    0.0003271779    
0.0890018230    0.0191608780    0.0003296747    
0.0892244840    0.0194822020    0.0003329926    
0.0894471450    0.0196960840    0.0003334012    
0.0896698060    0.0190548810    0.0003266924    
0.0898924670    0.0196276610    0.0003331031    
0.0901151280    0.0194327390    0.0003278649    
0.0903377890    0.0197424970    0.0003332334    
0.0905604500    0.0194335240    0.0003290983    
0.0907831110    0.0190374970    0.0003249174    
0.0910057720    0.0193021660    0.0003286695    
0.0912284330    0.0193569390    0.0003244230    
0.0914510940    0.0190461110    0.0003253963    
0.0916737550    0.0197427350    0.0003304715    
0.0918964160    0.0192323720    0.0003275286    
0.0921190770    0.0195817900    0.0003275023    
0.0923417380    0.0199541850    0.0003307374    
0.0925643990    0.0193765910    0.0003251179    
0.0927870600    0.0198383370    0.0003303180    
0.0930097210    0.0195180750    0.0003248504    
0.0932323820    0.0192025700    0.0003245827    
