# Diamond Light Source Ltd.
# Data extracted from: /dls/b21/data/2018/cm19678-3/processed/b21-386631_00273.dat
q(1/A)          Column          Error           
0.0035000000    2.0433623000    0.0243828260    
0.0037226610    1.8770828000    0.0228776480    
0.0039453220    1.6388276000    0.0194465670    
0.0041679830    1.2795570000    0.0141114260    
0.0043906440    0.9807220700    0.0118167860    
0.0046133050    0.7927956300    0.0101993120    
0.0048359660    0.5995725500    0.0083899392    
0.0050586270    0.4544834800    0.0071797353    
0.0052812880    0.4289927000    0.0065952064    
0.0055039490    0.3913399200    0.0059895069    
0.0057266100    0.3267030900    0.0052942539    
0.0059492710    0.2722240000    0.0048327172    
0.0061719320    0.2283220700    0.0042649093    
0.0063945930    0.2006761300    0.0040468439    
0.0066172539    0.1864384800    0.0036627042    
0.0068399149    0.1658343000    0.0033999860    
0.0070625759    0.1542557500    0.0032455121    
0.0072852369    0.1304594700    0.0029400366    
0.0075078979    0.1158622200    0.0027570617    
0.0077305589    0.1023991500    0.0025425583    
0.0079532199    0.1003175600    0.0024817096    
0.0081758809    0.0948127870    0.0024351029    
0.0083985419    0.0865054690    0.0021694268    
0.0086212029    0.0775829050    0.0020545006    
0.0088438639    0.0717375390    0.0019597202    
0.0090665249    0.0674187550    0.0018349061    
0.0092891859    0.0665385250    0.0019026545    
0.0095118469    0.0629947830    0.0017803378    
0.0097345079    0.0606545960    0.0016966735    
0.0099571689    0.0596356570    0.0016476705    
0.0101798300    0.0526705870    0.0015484653    
0.0104024910    0.0478383470    0.0014707313    
0.0106251520    0.0485734970    0.0014870212    
0.0108478130    0.0457642690    0.0014056384    
0.0110704740    0.0450825860    0.0013282584    
0.0112931350    0.0425529150    0.0012942449    
0.0115157960    0.0423304690    0.0012833308    
0.0117384570    0.0419872100    0.0012671144    
0.0119611180    0.0381133580    0.0012107107    
0.0121837790    0.0413042230    0.0012391886    
0.0124064400    0.0393664480    0.0011593420    
0.0126291010    0.0401184440    0.0011557145    
0.0128517620    0.0358354340    0.0010950096    
0.0130744230    0.0339542770    0.0010579761    
0.0132970840    0.0338188850    0.0010507016    
0.0135197450    0.0326034950    0.0010168751    
0.0137424060    0.0344158150    0.0010302105    
0.0139650670    0.0310719470    0.0009570798    
0.0141877280    0.0328972380    0.0009869665    
0.0144103890    0.0320871340    0.0009579316    
0.0146330500    0.0312009610    0.0009386136    
0.0148557110    0.0297358780    0.0009124698    
0.0150783720    0.0294667180    0.0009008239    
0.0153010330    0.0304083400    0.0009022015    
0.0155236940    0.0291484580    0.0008780612    
0.0157463550    0.0291688590    0.0008631502    
0.0159690160    0.0308490220    0.0008842929    
0.0161916770    0.0288231510    0.0008499484    
0.0164143380    0.0268951670    0.0008272499    
0.0166369990    0.0260270520    0.0007886985    
0.0168596600    0.0275897820    0.0008048766    
0.0170823210    0.0263295260    0.0007794715    
0.0173049820    0.0256333460    0.0007704270    
0.0175276430    0.0267206900    0.0007948926    
0.0177503040    0.0269027290    0.0007772629    
0.0179729650    0.0278026180    0.0007823193    
0.0181956260    0.0249891220    0.0007274615    
0.0184182870    0.0257191140    0.0007345321    
0.0186409480    0.0255995810    0.0007374615    
0.0188636090    0.0260338020    0.0007390124    
0.0190862700    0.0261615800    0.0007396654    
0.0193089310    0.0248917870    0.0007203672    
0.0195315920    0.0249783370    0.0006970774    
0.0197542530    0.0244658610    0.0006908945    
0.0199769140    0.0239000720    0.0006828592    
0.0201995750    0.0234220790    0.0006654107    
0.0204222360    0.0239605260    0.0006787930    
0.0206448970    0.0234884480    0.0006672962    
0.0208675580    0.0242040540    0.0006634361    
0.0210902190    0.0244694810    0.0006735003    
0.0213128800    0.0233048760    0.0006483590    
0.0215355410    0.0232636360    0.0006400681    
0.0217582020    0.0237391320    0.0006465764    
0.0219808630    0.0230972080    0.0006369372    
0.0222035240    0.0226460190    0.0006249705    
0.0224261850    0.0227529630    0.0006208690    
0.0226488460    0.0220620720    0.0006067791    
0.0228715070    0.0226002100    0.0006126091    
0.0230941680    0.0221020510    0.0006058199    
0.0233168290    0.0220954760    0.0006072386    
0.0235394900    0.0228346200    0.0006104990    
0.0237621510    0.0217917110    0.0005803390    
0.0239848120    0.0239799080    0.0006094836    
0.0242074730    0.0216615760    0.0005746362    
0.0244301340    0.0219402210    0.0005789803    
0.0246527950    0.0229398140    0.0005975045    
0.0248754560    0.0218459190    0.0005699798    
0.0250981170    0.0220778950    0.0005742757    
0.0253207780    0.0217914520    0.0005535035    
0.0255434390    0.0222160090    0.0005648341    
0.0257661000    0.0222876980    0.0005675747    
0.0259887610    0.0211656930    0.0005472260    
0.0262114220    0.0221639970    0.0005629661    
0.0264340830    0.0223441020    0.0005575581    
0.0266567440    0.0207084180    0.0005334458    
0.0268794050    0.0212757200    0.0005384964    
0.0271020660    0.0228072510    0.0005552843    
0.0273247270    0.0220933230    0.0005432419    
0.0275473880    0.0219123570    0.0005399360    
0.0277700490    0.0210492800    0.0005260676    
0.0279927100    0.0209936290    0.0005207878    
0.0282153710    0.0210808500    0.0005244057    
0.0284380320    0.0221136840    0.0005339850    
0.0286606930    0.0210396610    0.0005163982    
0.0288833540    0.0212723420    0.0005202321    
0.0291060150    0.0212700840    0.0005197109    
0.0293286760    0.0215704320    0.0005160745    
0.0295513370    0.0215139230    0.0005097857    
0.0297739980    0.0206197250    0.0005045737    
0.0299966590    0.0215795120    0.0005073672    
0.0302193200    0.0222376090    0.0005225512    
0.0304419810    0.0212103300    0.0005112779    
0.0306646420    0.0218571920    0.0005043669    
0.0308873030    0.0210687920    0.0004930481    
0.0311099640    0.0214914990    0.0004992626    
0.0313326250    0.0212561650    0.0004910211    
0.0315552860    0.0203791410    0.0004870155    
0.0317779470    0.0202980680    0.0004864692    
0.0320006080    0.0211232590    0.0004849838    
0.0322232690    0.0210646810    0.0004863383    
0.0324459300    0.0213597160    0.0004860762    
0.0326685910    0.0213665250    0.0004853522    
0.0328912520    0.0204206510    0.0004760589    
0.0331139130    0.0209739580    0.0004761892    
0.0333365740    0.0207730560    0.0004754419    
0.0335592350    0.0208664730    0.0004719279    
0.0337818960    0.0208119460    0.0004709357    
0.0340045570    0.0203422310    0.0004648515    
0.0342272170    0.0210884170    0.0004714335    
0.0344498780    0.0213195340    0.0004758872    
0.0346725390    0.0214274300    0.0004682543    
0.0348952000    0.0205938430    0.0004569645    
0.0351178610    0.0206906960    0.0004601342    
0.0353405220    0.0211515570    0.0004631111    
0.0355631830    0.0202578970    0.0004515153    
0.0357858440    0.0205799440    0.0004550902    
0.0360085050    0.0215144510    0.0004667140    
0.0362311660    0.0201064470    0.0004458203    
0.0364538270    0.0209911560    0.0004518670    
0.0366764880    0.0209898420    0.0004515250    
0.0368991490    0.0212018260    0.0004515117    
0.0371218100    0.0207556330    0.0004454573    
0.0373444710    0.0214348550    0.0004576171    
0.0375671320    0.0210510030    0.0004528407    
0.0377897930    0.0203449460    0.0004336572    
0.0380124540    0.0200207390    0.0004328872    
0.0382351150    0.0200581920    0.0004332920    
0.0384577760    0.0201411860    0.0004299983    
0.0386804370    0.0206455060    0.0004386707    
0.0389030980    0.0210225070    0.0004393056    
0.0391257590    0.0205931540    0.0004318447    
0.0393484200    0.0207336210    0.0004318567    
0.0395710810    0.0210330430    0.0004355498    
0.0397937420    0.0194727140    0.0004190831    
0.0400164030    0.0206407800    0.0004332247    
0.0402390640    0.0197406500    0.0004180315    
0.0404617250    0.0195521620    0.0004135766    
0.0406843860    0.0205060640    0.0004194530    
0.0409070470    0.0208917270    0.0004277895    
0.0411297080    0.0213227860    0.0004279993    
0.0413523690    0.0210701720    0.0004265532    
0.0415750300    0.0203493870    0.0004227546    
0.0417976910    0.0206605350    0.0004149572    
0.0420203520    0.0200183760    0.0004099923    
0.0422430130    0.0204663610    0.0004161239    
0.0424656740    0.0202749900    0.0004087832    
0.0426883350    0.0194445850    0.0004023113    
0.0429109960    0.0208226770    0.0004176245    
0.0431336570    0.0203866120    0.0004074065    
0.0433563180    0.0205990560    0.0004130565    
0.0435789790    0.0200531880    0.0004011440    
0.0438016400    0.0193066340    0.0003957474    
0.0440243010    0.0200375520    0.0003990784    
0.0442469620    0.0203910170    0.0004049952    
0.0444696230    0.0205644830    0.0004052558    
0.0446922840    0.0205219160    0.0004036339    
0.0449149450    0.0200387160    0.0003935217    
0.0451376060    0.0203862550    0.0004018215    
0.0453602670    0.0199222910    0.0003930585    
0.0455829280    0.0206654140    0.0003998593    
0.0458055890    0.0203748640    0.0003993536    
0.0460282500    0.0210935330    0.0004014358    
0.0462509110    0.0197002000    0.0003855380    
0.0464735720    0.0207421880    0.0003958260    
0.0466962330    0.0198107020    0.0003885946    
0.0469188940    0.0206004740    0.0003951414    
0.0471415550    0.0202383240    0.0003936642    
0.0473642160    0.0204199790    0.0003898903    
0.0475868770    0.0205197910    0.0003889003    
0.0478095380    0.0203917400    0.0003859885    
0.0480321990    0.0201803250    0.0003848237    
0.0482548600    0.0203031150    0.0003843110    
0.0484775210    0.0196843810    0.0003821670    
0.0487001820    0.0201352720    0.0003808611    
0.0489228430    0.0199409280    0.0003788149    
0.0491455040    0.0195382960    0.0003723776    
0.0493681650    0.0204675510    0.0003844053    
0.0495908260    0.0197078390    0.0003708572    
0.0498134870    0.0196083230    0.0003734411    
0.0500361480    0.0202333870    0.0003783429    
0.0502588090    0.0207092690    0.0003770311    
0.0504814700    0.0200918720    0.0003762232    
0.0507041310    0.0205524030    0.0003759866    
0.0509267920    0.0199321760    0.0003718017    
0.0511494530    0.0200230910    0.0003701638    
0.0513721140    0.0195973230    0.0003694322    
0.0515947750    0.0199015720    0.0003673528    
0.0518174360    0.0200644920    0.0003666315    
0.0520400970    0.0204544940    0.0003676108    
0.0522627580    0.0205348560    0.0003714625    
0.0524854190    0.0197774610    0.0003675118    
0.0527080800    0.0204316710    0.0003764328    
0.0529307410    0.0197629530    0.0003719601    
0.0531534020    0.0200015550    0.0003728365    
0.0533760630    0.0195115580    0.0003693940    
0.0535987240    0.0198701940    0.0003710330    
0.0538213850    0.0201702270    0.0003781548    
0.0540440460    0.0195935090    0.0003709455    
0.0542667070    0.0202632160    0.0003798315    
0.0544893680    0.0195150470    0.0003729519    
0.0547120290    0.0200008060    0.0003749785    
0.0549346900    0.0199585190    0.0003747789    
0.0551573510    0.0194009800    0.0003738570    
0.0553800120    0.0191645860    0.0003684135    
0.0556026730    0.0195912040    0.0003802147    
0.0558253340    0.0193279290    0.0003808135    
0.0560479950    0.0199507040    0.0003869003    
0.0562706560    0.0192827940    0.0003840463    
0.0564933170    0.0201639010    0.0003961329    
0.0567159780    0.0192578630    0.0003824892    
0.0569386390    0.0197726950    0.0003936473    
0.0571613000    0.0195306290    0.0003828064    
0.0573839610    0.0199676920    0.0003838522    
0.0576066220    0.0203826160    0.0003888934    
0.0578292830    0.0194740030    0.0003788688    
0.0580519440    0.0197664550    0.0003831831    
0.0582746050    0.0198207610    0.0003820171    
0.0584972660    0.0196181660    0.0003786049    
0.0587199270    0.0195614590    0.0003747984    
0.0589425880    0.0197662380    0.0003745514    
0.0591652490    0.0201503560    0.0003803986    
0.0593879100    0.0198167940    0.0003744354    
0.0596105710    0.0197538270    0.0003734456    
0.0598332320    0.0195112940    0.0003743185    
0.0600558930    0.0186960960    0.0003640792    
0.0602785540    0.0198876270    0.0003751047    
0.0605012150    0.0206634190    0.0003815453    
0.0607238760    0.0201620080    0.0003741411    
0.0609465370    0.0190843010    0.0003668701    
0.0611691980    0.0195481150    0.0003718899    
0.0613918590    0.0199749390    0.0003718239    
0.0616145200    0.0192219740    0.0003674181    
0.0618371810    0.0202027460    0.0003729755    
0.0620598420    0.0193681310    0.0003655666    
0.0622825030    0.0200361720    0.0003775038    
0.0625051640    0.0196225310    0.0003683400    
0.0627278250    0.0203818650    0.0003746261    
0.0629504860    0.0192592290    0.0003612023    
0.0631731470    0.0203566540    0.0003759451    
0.0633958080    0.0197278060    0.0003722227    
0.0636184690    0.0200501020    0.0003804772    
0.0638411300    0.0196418820    0.0003751704    
0.0640637910    0.0198101440    0.0003794239    
0.0642864520    0.0193554810    0.0003742330    
0.0645091130    0.0194458500    0.0003783927    
0.0647317740    0.0194370970    0.0003787246    
0.0649544350    0.0194974360    0.0003788947    
0.0651770960    0.0197732580    0.0003794839    
0.0653997570    0.0196730870    0.0003777005    
0.0656224180    0.0190887030    0.0003728575    
0.0658450790    0.0195839530    0.0003722351    
0.0660677400    0.0195083980    0.0003730975    
0.0662904010    0.0190928330    0.0003735087    
0.0665130620    0.0197822960    0.0003785435    
0.0667357230    0.0196591130    0.0003840725    
0.0669583840    0.0196246760    0.0003824521    
0.0671810450    0.0199540430    0.0003835189    
0.0674037060    0.0193780490    0.0003843459    
0.0676263670    0.0195385440    0.0003831087    
0.0678490280    0.0202575150    0.0003877081    
0.0680716890    0.0197291420    0.0003834699    
0.0682943500    0.0194743210    0.0003768126    
0.0685170110    0.0199580660    0.0003775768    
0.0687396720    0.0201363670    0.0003782520    
0.0689623330    0.0195500250    0.0003715231    
0.0691849940    0.0199149290    0.0003775724    
0.0694076550    0.0199937880    0.0003781173    
0.0696303160    0.0205230220    0.0003800560    
0.0698529770    0.0201497340    0.0003757945    
0.0700756380    0.0202026100    0.0003714569    
0.0702982990    0.0197446880    0.0003712221    
0.0705209600    0.0203823980    0.0003744462    
0.0707436210    0.0198684550    0.0003679974    
0.0709662820    0.0197377830    0.0003711579    
0.0711889430    0.0196780670    0.0003660442    
0.0714116040    0.0201003350    0.0003707060    
0.0716342650    0.0198899700    0.0003672638    
0.0718569260    0.0189497520    0.0003570344    
0.0720795870    0.0200866830    0.0003690759    
0.0723022480    0.0201139380    0.0003698890    
0.0725249090    0.0191636060    0.0003567213    
0.0727475700    0.0197625360    0.0003653470    
0.0729702310    0.0196213750    0.0003611364    
0.0731928920    0.0198924300    0.0003650755    
0.0734155530    0.0202468910    0.0003675789    
0.0736382140    0.0198363290    0.0003614980    
0.0738608750    0.0194528150    0.0003602991    
0.0740835360    0.0204719110    0.0003686987    
0.0743061970    0.0201317990    0.0003604748    
0.0745288580    0.0194411540    0.0003578800    
0.0747515190    0.0199016370    0.0003628087    
0.0749741800    0.0197296660    0.0003578940    
0.0751968410    0.0196516260    0.0003599899    
0.0754195020    0.0200020860    0.0003610579    
0.0756421630    0.0200226210    0.0003582902    
0.0758648240    0.0193717080    0.0003532655    
0.0760874850    0.0199259130    0.0003581111    
0.0763101460    0.0195022740    0.0003539438    
0.0765328070    0.0193986280    0.0003566141    
0.0767554680    0.0197247660    0.0003571593    
0.0769781290    0.0200293410    0.0003578380    
0.0772007900    0.0202944040    0.0003573091    
0.0774234510    0.0190625160    0.0003482646    
0.0776461120    0.0192041870    0.0003492248    
0.0778687730    0.0196326790    0.0003519328    
0.0780914340    0.0201190190    0.0003588108    
0.0783140950    0.0193493200    0.0003462974    
0.0785367560    0.0199718940    0.0003574970    
0.0787594170    0.0195653350    0.0003506693    
0.0789820780    0.0191725000    0.0003453524    
0.0792047390    0.0192918100    0.0003475579    
0.0794274000    0.0195377270    0.0003512480    
0.0796500610    0.0192572790    0.0003453144    
0.0798727220    0.0195987620    0.0003480411    
0.0800953830    0.0196133090    0.0003473695    
0.0803180440    0.0199810950    0.0003530538    
0.0805407050    0.0193648710    0.0003472437    
0.0807633660    0.0197204890    0.0003500924    
0.0809860270    0.0194023730    0.0003459748    
0.0812086880    0.0196626670    0.0003452780    
0.0814313490    0.0200688140    0.0003504167    
0.0816540100    0.0190152060    0.0003403177    
0.0818766710    0.0191816810    0.0003425847    
0.0820993320    0.0201542940    0.0003505227    
0.0823219930    0.0197123680    0.0003480882    
0.0825446540    0.0190029300    0.0003392840    
0.0827673150    0.0192624380    0.0003392978    
0.0829899760    0.0199859720    0.0003449962    
0.0832126370    0.0189456300    0.0003374015    
0.0834352980    0.0195907980    0.0003423312    
0.0836579590    0.0196346960    0.0003419517    
0.0838806200    0.0202611550    0.0003484509    
0.0841032810    0.0195605790    0.0003402483    
0.0843259420    0.0198637980    0.0003418194    
0.0845486030    0.0193109110    0.0003370290    
0.0847712640    0.0197967760    0.0003391629    
0.0849939250    0.0195567480    0.0003376876    
0.0852165860    0.0194560170    0.0003372580    
0.0854392470    0.0197833170    0.0003368624    
0.0856619080    0.0195926740    0.0003377043    
0.0858845690    0.0191327280    0.0003307113    
0.0861072300    0.0192876850    0.0003343401    
0.0863298910    0.0192793780    0.0003360184    
0.0865525520    0.0196903500    0.0003366487    
0.0867752130    0.0194588170    0.0003319631    
0.0869978740    0.0192678290    0.0003311719    
0.0872205350    0.0193210290    0.0003312068    
0.0874431960    0.0195424870    0.0003330998    
0.0876658570    0.0197500580    0.0003361499    
0.0878885180    0.0196628350    0.0003359819    
0.0881111790    0.0195207850    0.0003343365    
0.0883338400    0.0193870150    0.0003283106    
0.0885565010    0.0197336130    0.0003357242    
0.0887791620    0.0195033510    0.0003294316    
0.0890018230    0.0199345890    0.0003362842    
0.0892244840    0.0196153550    0.0003341478    
0.0894471450    0.0203417820    0.0003388415    
0.0896698060    0.0197236700    0.0003323952    
0.0898924670    0.0198221380    0.0003347685    
0.0901151280    0.0195622080    0.0003289741    
0.0903377890    0.0198572650    0.0003342197    
0.0905604500    0.0192796850    0.0003278119    
0.0907831110    0.0200767950    0.0003336876    
0.0910057720    0.0198081160    0.0003329683    
0.0912284330    0.0195331720    0.0003259152    
0.0914510940    0.0194374880    0.0003287414    
0.0916737550    0.0195679620    0.0003290244    
0.0918964160    0.0198537860    0.0003327970    
0.0921190770    0.0192991750    0.0003251490    
0.0923417380    0.0198632680    0.0003300020    
0.0925643990    0.0193679000    0.0003250636    
0.0927870600    0.0193785610    0.0003264865    
0.0930097210    0.0195635700    0.0003252474    
0.0932323820    0.0198083490    0.0003296816    
