# Diamond Light Source Ltd.
# Data extracted from: /dls/b21/data/2018/cm19678-3/processed/b21-386631_00267.dat
q(1/A)          Column          Error           
0.0035000000    2.1318315000    0.0249034860    
0.0037226610    1.8545403000    0.0227384130    
0.0039453220    1.6506167000    0.0195151440    
0.0041679830    1.2957328000    0.0141994380    
0.0043906440    0.9777499400    0.0117981160    
0.0046133050    0.7871844000    0.0101625070    
0.0048359660    0.6064220600    0.0084371892    
0.0050586270    0.4784681000    0.0073662801    
0.0052812880    0.4234635700    0.0065521497    
0.0055039490    0.3941315000    0.0060104491    
0.0057266100    0.3138798300    0.0051889825    
0.0059492710    0.2707310300    0.0048191400    
0.0061719320    0.2242305600    0.0042262541    
0.0063945930    0.1962442600    0.0040016530    
0.0066172539    0.1850477500    0.0036487854    
0.0068399149    0.1735497300    0.0034779576    
0.0070625759    0.1508905700    0.0032097112    
0.0072852369    0.1283891600    0.0029164294    
0.0075078979    0.1128955200    0.0027213617    
0.0077305589    0.1056054000    0.0025818926    
0.0079532199    0.0974810340    0.0024462164    
0.0081758809    0.0920492430    0.0023991992    
0.0083985419    0.0843728930    0.0021423826    
0.0086212029    0.0773554310    0.0020513559    
0.0088438639    0.0739766090    0.0019899419    
0.0090665249    0.0678595720    0.0018407779    
0.0092891859    0.0652244760    0.0018836535    
0.0095118469    0.0637413960    0.0017907430    
0.0097345079    0.0574199660    0.0016507080    
0.0099571689    0.0511162720    0.0015253493    
0.0101798300    0.0521176690    0.0015402182    
0.0104024910    0.0481487260    0.0014754007    
0.0106251520    0.0503880180    0.0015144449    
0.0108478130    0.0483917110    0.0014453339    
0.0110704740    0.0455855260    0.0013355619    
0.0112931350    0.0432559660    0.0013048097    
0.0115157960    0.0403799930    0.0012533361    
0.0117384570    0.0391142500    0.0012229176    
0.0119611180    0.0401850540    0.0012431010    
0.0121837790    0.0381392770    0.0011906902    
0.0124064400    0.0375521070    0.0011322386    
0.0126291010    0.0372837650    0.0011140656    
0.0128517620    0.0364330710    0.0011040325    
0.0130744230    0.0346421370    0.0010685708    
0.0132970840    0.0348590450    0.0010666695    
0.0135197450    0.0338995120    0.0010368229    
0.0137424060    0.0335788990    0.0010175424    
0.0139650670    0.0303016070    0.0009450812    
0.0141877280    0.0317976020    0.0009702692    
0.0144103890    0.0314539690    0.0009483729    
0.0146330500    0.0321568960    0.0009528231    
0.0148557110    0.0302080300    0.0009196269    
0.0150783720    0.0289397920    0.0008926764    
0.0153010330    0.0274336090    0.0008568820    
0.0155236940    0.0290125110    0.0008759554    
0.0157463550    0.0282202150    0.0008489443    
0.0159690160    0.0274995300    0.0008348537    
0.0161916770    0.0276416410    0.0008322927    
0.0164143380    0.0266118850    0.0008228294    
0.0166369990    0.0259042530    0.0007867857    
0.0168596600    0.0258958760    0.0007797275    
0.0170823210    0.0255647680    0.0007680190    
0.0173049820    0.0264867340    0.0007830967    
0.0175276430    0.0258661170    0.0007820285    
0.0177503040    0.0249683020    0.0007487496    
0.0179729650    0.0248056700    0.0007389057    
0.0181956260    0.0249224160    0.0007264436    
0.0184182870    0.0267646090    0.0007492652    
0.0186409480    0.0242793320    0.0007181474    
0.0188636090    0.0242475770    0.0007131640    
0.0190862700    0.0242554510    0.0007121646    
0.0193089310    0.0252221340    0.0007250854    
0.0195315920    0.0238080930    0.0006805090    
0.0197542530    0.0247553630    0.0006949259    
0.0199769140    0.0233313040    0.0006746421    
0.0201995750    0.0231166710    0.0006610161    
0.0204222360    0.0232076030    0.0006680003    
0.0206448970    0.0217226260    0.0006416822    
0.0208675580    0.0235827650    0.0006548242    
0.0210902190    0.0220197290    0.0006388571    
0.0213128800    0.0228329850    0.0006417204    
0.0215355410    0.0236128410    0.0006448131    
0.0217582020    0.0242291440    0.0006531739    
0.0219808630    0.0221985960    0.0006243843    
0.0222035240    0.0234191760    0.0006355090    
0.0224261850    0.0225129100    0.0006175458    
0.0226488460    0.0220258910    0.0006062427    
0.0228715070    0.0235105240    0.0006247851    
0.0230941680    0.0223648930    0.0006093727    
0.0233168290    0.0221260350    0.0006076197    
0.0235394900    0.0233376330    0.0006171472    
0.0237621510    0.0219898270    0.0005829340    
0.0239848120    0.0217929160    0.0005809895    
0.0242074730    0.0220551090    0.0005797956    
0.0244301340    0.0229609710    0.0005922578    
0.0246527950    0.0217542580    0.0005818227    
0.0248754560    0.0215606200    0.0005662096    
0.0250981170    0.0217763680    0.0005703044    
0.0253207780    0.0216199910    0.0005512865    
0.0255434390    0.0213516470    0.0005537018    
0.0257661000    0.0217501390    0.0005606525    
0.0259887610    0.0223795870    0.0005626636    
0.0262114220    0.0218609270    0.0005590682    
0.0264340830    0.0216596120    0.0005489166    
0.0266567440    0.0210217960    0.0005374327    
0.0268794050    0.0208641760    0.0005332289    
0.0271020660    0.0213309180    0.0005369775    
0.0273247270    0.0217566150    0.0005390521    
0.0275473880    0.0208852580    0.0005270964    
0.0277700490    0.0215067060    0.0005317191    
0.0279927100    0.0208746980    0.0005192775    
0.0282153710    0.0215477290    0.0005301472    
0.0284380320    0.0214275590    0.0005256022    
0.0286606930    0.0224309980    0.0005331654    
0.0288833540    0.0206590220    0.0005126450    
0.0291060150    0.0211404060    0.0005180912    
0.0293286760    0.0213454660    0.0005133436    
0.0295513370    0.0208589640    0.0005019339    
0.0297739980    0.0208393200    0.0005072211    
0.0299966590    0.0212308680    0.0005032198    
0.0302193200    0.0207000750    0.0005041307    
0.0304419810    0.0197042410    0.0004927600    
0.0306646420    0.0211329110    0.0004959083    
0.0308873030    0.0208353740    0.0004902780    
0.0311099640    0.0217091010    0.0005017518    
0.0313326250    0.0208224920    0.0004859554    
0.0315552860    0.0209118530    0.0004933084    
0.0317779470    0.0208550370    0.0004930668    
0.0320006080    0.0209312970    0.0004827444    
0.0322232690    0.0201301520    0.0004753975    
0.0324459300    0.0207818720    0.0004794257    
0.0326685910    0.0204929380    0.0004752964    
0.0328912520    0.0200629540    0.0004718410    
0.0331139130    0.0203226910    0.0004687079    
0.0333365740    0.0206833690    0.0004743842    
0.0335592350    0.0218136270    0.0004824890    
0.0337818960    0.0202765450    0.0004648090    
0.0340045570    0.0203608840    0.0004650349    
0.0342272170    0.0211805710    0.0004724324    
0.0344498780    0.0201272410    0.0004623593    
0.0346725390    0.0209028970    0.0004624580    
0.0348952000    0.0203985910    0.0004547641    
0.0351178610    0.0195012090    0.0004466837    
0.0353405220    0.0210677560    0.0004621633    
0.0355631830    0.0200842600    0.0004495475    
0.0357858440    0.0207483820    0.0004569197    
0.0360085050    0.0205095190    0.0004556546    
0.0362311660    0.0198073700    0.0004424640    
0.0364538270    0.0213094370    0.0004552509    
0.0366764880    0.0201908030    0.0004428191    
0.0368991490    0.0204107690    0.0004429803    
0.0371218100    0.0203419460    0.0004409676    
0.0373444710    0.0210316160    0.0004532634    
0.0375671320    0.0203275570    0.0004449631    
0.0377897930    0.0199541780    0.0004294450    
0.0380124540    0.0199713960    0.0004323259    
0.0382351150    0.0213284180    0.0004467725    
0.0384577760    0.0209096540    0.0004380967    
0.0386804370    0.0201116610    0.0004329345    
0.0389030980    0.0206067760    0.0004349125    
0.0391257590    0.0203007800    0.0004287409    
0.0393484200    0.0204611630    0.0004289825    
0.0395710810    0.0210123280    0.0004353076    
0.0397937420    0.0208139430    0.0004332479    
0.0400164030    0.0204199520    0.0004308735    
0.0402390640    0.0203931240    0.0004248567    
0.0404617250    0.0201007370    0.0004193117    
0.0406843860    0.0205034530    0.0004193996    
0.0409070470    0.0202934880    0.0004215933    
0.0411297080    0.0196192760    0.0004105206    
0.0413523690    0.0198586990    0.0004140825    
0.0415750300    0.0200833500    0.0004199553    
0.0417976910    0.0198412550    0.0004066207    
0.0420203520    0.0205783530    0.0004156607    
0.0422430130    0.0207090830    0.0004185575    
0.0424656740    0.0201652780    0.0004076498    
0.0426883350    0.0202244550    0.0004102737    
0.0429109960    0.0202672820    0.0004119911    
0.0431336570    0.0193257410    0.0003966394    
0.0433563180    0.0201823510    0.0004088312    
0.0435789790    0.0201308700    0.0004018946    
0.0438016400    0.0202126080    0.0004049005    
0.0440243010    0.0209012500    0.0004075627    
0.0442469620    0.0200425810    0.0004014945    
0.0444696230    0.0197553610    0.0003971779    
0.0446922840    0.0200906600    0.0003993449    
0.0449149450    0.0202525210    0.0003955903    
0.0451376060    0.0203440640    0.0004013799    
0.0453602670    0.0195940910    0.0003897826    
0.0455829280    0.0194559710    0.0003879573    
0.0458055890    0.0199261620    0.0003949067    
0.0460282500    0.0204568230    0.0003953056    
0.0462509110    0.0202031480    0.0003904035    
0.0464735720    0.0209434680    0.0003977166    
0.0466962330    0.0199072590    0.0003895156    
0.0469188940    0.0210449710    0.0003993562    
0.0471415550    0.0205190330    0.0003963597    
0.0473642160    0.0207969950    0.0003934480    
0.0475868770    0.0195885990    0.0003799495    
0.0478095380    0.0205498610    0.0003874575    
0.0480321990    0.0197595250    0.0003807661    
0.0482548600    0.0204241810    0.0003854305    
0.0484775210    0.0200379730    0.0003855596    
0.0487001820    0.0203560050    0.0003829186    
0.0489228430    0.0201110780    0.0003804035    
0.0491455040    0.0198480410    0.0003752938    
0.0493681650    0.0197286400    0.0003773786    
0.0495908260    0.0199425760    0.0003730355    
0.0498134870    0.0200822830    0.0003779033    
0.0500361480    0.0198912730    0.0003751068    
0.0502588090    0.0198075380    0.0003687078    
0.0504814700    0.0200329620    0.0003756474    
0.0507041310    0.0206460710    0.0003768184    
0.0509267920    0.0193748810    0.0003665438    
0.0511494530    0.0196852690    0.0003670045    
0.0513721140    0.0191909540    0.0003655586    
0.0515947750    0.0194312250    0.0003629628    
0.0518174360    0.0194255820    0.0003607240    
0.0520400970    0.0197648760    0.0003613377    
0.0522627580    0.0199275610    0.0003659052    
0.0524854190    0.0198637110    0.0003682888    
0.0527080800    0.0194582380    0.0003673328    
0.0529307410    0.0189904590    0.0003645949    
0.0531534020    0.0198600300    0.0003714914    
0.0533760630    0.0196349380    0.0003705365    
0.0535987240    0.0194173860    0.0003667577    
0.0538213850    0.0197210640    0.0003738968    
0.0540440460    0.0191556590    0.0003667540    
0.0542667070    0.0195985710    0.0003735264    
0.0544893680    0.0201753340    0.0003791847    
0.0547120290    0.0196116500    0.0003712890    
0.0549346900    0.0194071180    0.0003695421    
0.0551573510    0.0197370650    0.0003770573    
0.0553800120    0.0200260710    0.0003765790    
0.0556026730    0.0198395630    0.0003825927    
0.0558253340    0.0196255530    0.0003837099    
0.0560479950    0.0197155980    0.0003845894    
0.0562706560    0.0196933250    0.0003880882    
0.0564933170    0.0199434580    0.0003939364    
0.0567159780    0.0200605690    0.0003903544    
0.0569386390    0.0202168280    0.0003980184    
0.0571613000    0.0200682980    0.0003880151    
0.0573839610    0.0191830710    0.0003762110    
0.0576066220    0.0193636170    0.0003790236    
0.0578292830    0.0211445120    0.0003947593    
0.0580519440    0.0194742750    0.0003803163    
0.0582746050    0.0202525890    0.0003861315    
0.0584972660    0.0191115790    0.0003736609    
0.0587199270    0.0203128930    0.0003819050    
0.0589425880    0.0199553260    0.0003763147    
0.0591652490    0.0199467430    0.0003784477    
0.0593879100    0.0195525330    0.0003719067    
0.0596105710    0.0198501400    0.0003743311    
0.0598332320    0.0197529390    0.0003766053    
0.0600558930    0.0201540520    0.0003779845    
0.0602785540    0.0194040610    0.0003704928    
0.0605012150    0.0199000090    0.0003744071    
0.0607238760    0.0201524990    0.0003740291    
0.0609465370    0.0197024190    0.0003727403    
0.0611691980    0.0198710330    0.0003749252    
0.0613918590    0.0193149540    0.0003656064    
0.0616145200    0.0196338310    0.0003713099    
0.0618371810    0.0200142830    0.0003712082    
0.0620598420    0.0195864350    0.0003675976    
0.0622825030    0.0198700520    0.0003759117    
0.0625051640    0.0203390190    0.0003749805    
0.0627278250    0.0195324290    0.0003667132    
0.0629504860    0.0190061600    0.0003587985    
0.0631731470    0.0199305980    0.0003719664    
0.0633958080    0.0196340060    0.0003713132    
0.0636184690    0.0196504960    0.0003766426    
0.0638411300    0.0193814390    0.0003726511    
0.0640637910    0.0193425860    0.0003748958    
0.0642864520    0.0195049470    0.0003756512    
0.0645091130    0.0187513340    0.0003715504    
0.0647317740    0.0183795150    0.0003682538    
0.0649544350    0.0197305420    0.0003811287    
0.0651770960    0.0193338180    0.0003752195    
0.0653997570    0.0202361200    0.0003830428    
0.0656224180    0.0187003240    0.0003690215    
0.0658450790    0.0193550850    0.0003700301    
0.0660677400    0.0195415870    0.0003733910    
0.0662904010    0.0197041010    0.0003794164    
0.0665130620    0.0191713920    0.0003726290    
0.0667357230    0.0198666800    0.0003860702    
0.0669583840    0.0196668920    0.0003828389    
0.0671810450    0.0193176540    0.0003773296    
0.0674037060    0.0197871800    0.0003883574    
0.0676263670    0.0198515170    0.0003861403    
0.0678490280    0.0189862200    0.0003753214    
0.0680716890    0.0193167450    0.0003794167    
0.0682943500    0.0197197040    0.0003791550    
0.0685170110    0.0192770080    0.0003710549    
0.0687396720    0.0194588870    0.0003718108    
0.0689623330    0.0192298620    0.0003684450    
0.0691849940    0.0204277390    0.0003823784    
0.0694076550    0.0195550960    0.0003739222    
0.0696303160    0.0200418810    0.0003755506    
0.0698529770    0.0197547370    0.0003720692    
0.0700756380    0.0206848930    0.0003758406    
0.0702982990    0.0194769910    0.0003686735    
0.0705209600    0.0196232120    0.0003673831    
0.0707436210    0.0194365760    0.0003639527    
0.0709662820    0.0194421710    0.0003683445    
0.0711889430    0.0194372760    0.0003637746    
0.0714116040    0.0195508980    0.0003655811    
0.0716342650    0.0189584980    0.0003585381    
0.0718569260    0.0190011480    0.0003574955    
0.0720795870    0.0195484590    0.0003640744    
0.0723022480    0.0195740760    0.0003648681    
0.0725249090    0.0199711670    0.0003641368    
0.0727475700    0.0199963830    0.0003674788    
0.0729702310    0.0192533490    0.0003577108    
0.0731928920    0.0197425150    0.0003636741    
0.0734155530    0.0190499380    0.0003565254    
0.0736382140    0.0198667390    0.0003617520    
0.0738608750    0.0191901100    0.0003578352    
0.0740835360    0.0195065900    0.0003598781    
0.0743061970    0.0198259100    0.0003577029    
0.0745288580    0.0197351010    0.0003605524    
0.0747515190    0.0198660370    0.0003624610    
0.0749741800    0.0197206620    0.0003577895    
0.0751968410    0.0196689050    0.0003601252    
0.0754195020    0.0196280910    0.0003576437    
0.0756421630    0.0195905660    0.0003543809    
0.0758648240    0.0196204550    0.0003555037    
0.0760874850    0.0189709670    0.0003494023    
0.0763101460    0.0198466250    0.0003570322    
0.0765328070    0.0198222310    0.0003604638    
0.0767554680    0.0195347310    0.0003554120    
0.0769781290    0.0197966720    0.0003557309    
0.0772007900    0.0198200630    0.0003530863    
0.0774234510    0.0199189380    0.0003559792    
0.0776461120    0.0198430700    0.0003549636    
0.0778687730    0.0198824950    0.0003541423    
0.0780914340    0.0201740430    0.0003592783    
0.0783140950    0.0202020340    0.0003538232    
0.0785367560    0.0195726510    0.0003538832    
0.0787594170    0.0198016450    0.0003527582    
0.0789820780    0.0194064190    0.0003474306    
0.0792047390    0.0196649990    0.0003508811    
0.0794274000    0.0192700560    0.0003488114    
0.0796500610    0.0196263020    0.0003485851    
0.0798727220    0.0195282870    0.0003473926    
0.0800953830    0.0198015070    0.0003490099    
0.0803180440    0.0197477660    0.0003509639    
0.0805407050    0.0206387060    0.0003584600    
0.0807633660    0.0195066920    0.0003481673    
0.0809860270    0.0197144950    0.0003487243    
0.0812086880    0.0201027150    0.0003490981    
0.0814313490    0.0198949620    0.0003488734    
0.0816540100    0.0193720910    0.0003434746    
0.0818766710    0.0197481930    0.0003475847    
0.0820993320    0.0199505760    0.0003487245    
0.0823219930    0.0191505820    0.0003430704    
0.0825446540    0.0202785180    0.0003504641    
0.0827673150    0.0190568090    0.0003374605    
0.0829899760    0.0194892000    0.0003406599    
0.0832126370    0.0201207850    0.0003476861    
0.0834352980    0.0196122290    0.0003424966    
0.0836579590    0.0199180160    0.0003443880    
0.0838806200    0.0192938810    0.0003400100    
0.0841032810    0.0197770440    0.0003421040    
0.0843259420    0.0196377780    0.0003398476    
0.0845486030    0.0194907740    0.0003385734    
0.0847712640    0.0199395020    0.0003403617    
0.0849939250    0.0200323280    0.0003417471    
0.0852165860    0.0196522840    0.0003389333    
0.0854392470    0.0195055080    0.0003344675    
0.0856619080    0.0194097590    0.0003361029    
0.0858845690    0.0192446060    0.0003316557    
0.0861072300    0.0194996380    0.0003361507    
0.0863298910    0.0187499110    0.0003313512    
0.0865525520    0.0192101790    0.0003324974    
0.0867752130    0.0197847640    0.0003347106    
0.0869978740    0.0185994820    0.0003253568    
0.0872205350    0.0196648610    0.0003341196    
0.0874431960    0.0195967690    0.0003335409    
0.0876658570    0.0199706470    0.0003380004    
0.0878885180    0.0195857090    0.0003353010    
0.0881111790    0.0192091220    0.0003316357    
0.0883338400    0.0195513190    0.0003296779    
0.0885565010    0.0195483520    0.0003341233    
0.0887791620    0.0196955990    0.0003310302    
0.0890018230    0.0196768030    0.0003340815    
0.0892244840    0.0195900920    0.0003339112    
0.0894471450    0.0196224670    0.0003327754    
0.0896698060    0.0192786780    0.0003286032    
0.0898924670    0.0196104510    0.0003329549    
0.0901151280    0.0192776060    0.0003265515    
0.0903377890    0.0191122930    0.0003278696    
0.0905604500    0.0194221300    0.0003289997    
0.0907831110    0.0202572360    0.0003351624    
0.0910057720    0.0196936660    0.0003319838    
0.0912284330    0.0193349420    0.0003242366    
0.0914510940    0.0194961640    0.0003292163    
0.0916737550    0.0195986610    0.0003292614    
0.0918964160    0.0193213710    0.0003282835    
0.0921190770    0.0199375690    0.0003304620    
0.0923417380    0.0195482740    0.0003273541    
0.0925643990    0.0196054560    0.0003270302    
0.0927870600    0.0196730870    0.0003289372    
0.0930097210    0.0195881120    0.0003254306    
0.0932323820    0.0194931030    0.0003270268    
