# Diamond Light Source Ltd.
# Data extracted from: /dls/b21/data/2018/cm19678-3/processed/b21-386631_00281.dat
q(1/A)          Column          Error           
0.0035000000    2.1369981000    0.0249383300    
0.0037226610    1.9096226000    0.0230779580    
0.0039453220    1.6445435000    0.0194828700    
0.0041679830    1.2853232000    0.0141449430    
0.0043906440    0.9617395000    0.0117033200    
0.0046133050    0.8087422200    0.0103026580    
0.0048359660    0.6066499700    0.0084403602    
0.0050586270    0.4641262500    0.0072564030    
0.0052812880    0.4348801100    0.0066411327    
0.0055039490    0.3851103400    0.0059423815    
0.0057266100    0.3228367600    0.0052634874    
0.0059492710    0.2660271300    0.0047779883    
0.0061719320    0.2189759000    0.0041772259    
0.0063945930    0.2009708800    0.0040503178    
0.0066172539    0.1859809800    0.0036586620    
0.0068399149    0.1750791800    0.0034939055    
0.0070625759    0.1504691700    0.0032058283    
0.0072852369    0.1300279700    0.0029355351    
0.0075078979    0.1118879800    0.0027097001    
0.0077305589    0.1100022400    0.0026355877    
0.0079532199    0.1013864400    0.0024952057    
0.0081758809    0.0871418390    0.0023348079    
0.0083985419    0.0864181240    0.0021686006    
0.0086212029    0.0819013200    0.0021111673    
0.0088438639    0.0756108750    0.0020121804    
0.0090665249    0.0661367480    0.0018176022    
0.0092891859    0.0669904140    0.0019093416    
0.0095118469    0.0630104350    0.0017807802    
0.0097345079    0.0562547380    0.0016341801    
0.0099571689    0.0546416560    0.0015773688    
0.0101798300    0.0548693400    0.0015806518    
0.0104024910    0.0510613540    0.0015196562    
0.0106251520    0.0485855660    0.0014873907    
0.0108478130    0.0485394520    0.0014478105    
0.0110704740    0.0455243710    0.0013349165    
0.0112931350    0.0457921710    0.0013427692    
0.0115157960    0.0427301500    0.0012895353    
0.0117384570    0.0401999290    0.0012400064    
0.0119611180    0.0380458900    0.0012097889    
0.0121837790    0.0388601590    0.0012021161    
0.0124064400    0.0404690650    0.0011756120    
0.0126291010    0.0367982540    0.0011069960    
0.0128517620    0.0376516160    0.0011225543    
0.0130744230    0.0334681100    0.0010505051    
0.0132970840    0.0347741910    0.0010655706    
0.0135197450    0.0338805290    0.0010367274    
0.0137424060    0.0336840570    0.0010193259    
0.0139650670    0.0328489080    0.0009841886    
0.0141877280    0.0330238830    0.0009889873    
0.0144103890    0.0308364750    0.0009391941    
0.0146330500    0.0299660140    0.0009199650    
0.0148557110    0.0309475610    0.0009309906    
0.0150783720    0.0289231230    0.0008925870    
0.0153010330    0.0295055600    0.0008888185    
0.0155236940    0.0293144430    0.0008806671    
0.0157463550    0.0303513260    0.0008805813    
0.0159690160    0.0283972800    0.0008485310    
0.0161916770    0.0285044040    0.0008453406    
0.0164143380    0.0285307220    0.0008521380    
0.0166369990    0.0278264610    0.0008156080    
0.0168596600    0.0261874470    0.0007842522    
0.0170823210    0.0267053730    0.0007851126    
0.0173049820    0.0263113970    0.0007806471    
0.0175276430    0.0270584640    0.0008000003    
0.0177503040    0.0265724840    0.0007725735    
0.0179729650    0.0246828810    0.0007372131    
0.0181956260    0.0252495200    0.0007313327    
0.0184182870    0.0264389350    0.0007448326    
0.0186409480    0.0261159350    0.0007449543    
0.0188636090    0.0255156880    0.0007317125    
0.0190862700    0.0246620040    0.0007182431    
0.0193089310    0.0246477410    0.0007169162    
0.0195315920    0.0254515440    0.0007037368    
0.0197542530    0.0252525440    0.0007020014    
0.0199769140    0.0256428550    0.0007074059    
0.0201995750    0.0261129360    0.0007026821    
0.0204222360    0.0236971940    0.0006751365    
0.0206448970    0.0244044740    0.0006802682    
0.0208675580    0.0244829080    0.0006673297    
0.0210902190    0.0240305510    0.0006675153    
0.0213128800    0.0233467520    0.0006490219    
0.0215355410    0.0240268610    0.0006505637    
0.0217582020    0.0234984200    0.0006433699    
0.0219808630    0.0244908800    0.0006559534    
0.0222035240    0.0234107260    0.0006355138    
0.0224261850    0.0231483770    0.0006263184    
0.0226488460    0.0225683300    0.0006137777    
0.0228715070    0.0238349440    0.0006291992    
0.0230941680    0.0241339290    0.0006331334    
0.0233168290    0.0223847400    0.0006112764    
0.0235394900    0.0229219240    0.0006117409    
0.0237621510    0.0232038900    0.0005989223    
0.0239848120    0.0231336550    0.0005987070    
0.0242074730    0.0210722980    0.0005668366    
0.0244301340    0.0226639500    0.0005885252    
0.0246527950    0.0228988130    0.0005970444    
0.0248754560    0.0231157210    0.0005863838    
0.0250981170    0.0223971490    0.0005784848    
0.0253207780    0.0224859290    0.0005623240    
0.0255434390    0.0219198790    0.0005611266    
0.0257661000    0.0226691270    0.0005724819    
0.0259887610    0.0222889360    0.0005616284    
0.0262114220    0.0214829640    0.0005543183    
0.0264340830    0.0224749000    0.0005592571    
0.0266567440    0.0219093700    0.0005487642    
0.0268794050    0.0216218290    0.0005429262    
0.0271020660    0.0224613260    0.0005511256    
0.0273247270    0.0219117610    0.0005410724    
0.0275473880    0.0219311090    0.0005402341    
0.0277700490    0.0212386220    0.0005284940    
0.0279927100    0.0213348260    0.0005250680    
0.0282153710    0.0220908090    0.0005368873    
0.0284380320    0.0225963860    0.0005398485    
0.0286606930    0.0226295930    0.0005356211    
0.0288833540    0.0223338730    0.0005331206    
0.0291060150    0.0219231560    0.0005276946    
0.0293286760    0.0222180020    0.0005238289    
0.0295513370    0.0215917650    0.0005107706    
0.0297739980    0.0214893630    0.0005151681    
0.0299966590    0.0209524810    0.0005000037    
0.0302193200    0.0222062880    0.0005222480    
0.0304419810    0.0211786170    0.0005109590    
0.0306646420    0.0216414350    0.0005019337    
0.0308873030    0.0216395400    0.0004997438    
0.0311099640    0.0211256030    0.0004950558    
0.0313326250    0.0208757000    0.0004866673    
0.0315552860    0.0222701220    0.0005091727    
0.0317779470    0.0214343010    0.0004999615    
0.0320006080    0.0213289890    0.0004874004    
0.0322232690    0.0215416300    0.0004918744    
0.0324459300    0.0208781970    0.0004806258    
0.0326685910    0.0219011670    0.0004914481    
0.0328912520    0.0211028820    0.0004840060    
0.0331139130    0.0218226620    0.0004857884    
0.0333365740    0.0210612100    0.0004787875    
0.0335592350    0.0216296570    0.0004805404    
0.0337818960    0.0217231360    0.0004811943    
0.0340045570    0.0212291780    0.0004749364    
0.0342272170    0.0204400800    0.0004641878    
0.0344498780    0.0209316980    0.0004715973    
0.0346725390    0.0208493410    0.0004619519    
0.0348952000    0.0204975380    0.0004559514    
0.0351178610    0.0205320720    0.0004584240    
0.0353405220    0.0210351050    0.0004618918    
0.0355631830    0.0216017140    0.0004663085    
0.0357858440    0.0212997460    0.0004630380    
0.0360085050    0.0209223050    0.0004603036    
0.0362311660    0.0216242510    0.0004623988    
0.0364538270    0.0211131260    0.0004532342    
0.0366764880    0.0211407890    0.0004532019    
0.0368991490    0.0202260860    0.0004410545    
0.0371218100    0.0207225390    0.0004451573    
0.0373444710    0.0207365830    0.0004501575    
0.0375671320    0.0209393090    0.0004516938    
0.0377897930    0.0207105870    0.0004375910    
0.0380124540    0.0213457810    0.0004470382    
0.0382351150    0.0205312850    0.0004384265    
0.0384577760    0.0204400280    0.0004332304    
0.0386804370    0.0209303280    0.0004417412    
0.0389030980    0.0204584200    0.0004334256    
0.0391257590    0.0205258050    0.0004311916    
0.0393484200    0.0207837590    0.0004324323    
0.0395710810    0.0204879530    0.0004299223    
0.0397937420    0.0203526440    0.0004285005    
0.0400164030    0.0210551890    0.0004376064    
0.0402390640    0.0207106960    0.0004282325    
0.0404617250    0.0206070610    0.0004246397    
0.0406843860    0.0202451140    0.0004168274    
0.0409070470    0.0212211050    0.0004312021    
0.0411297080    0.0209585810    0.0004243810    
0.0413523690    0.0211704190    0.0004276198    
0.0415750300    0.0202929490    0.0004222204    
0.0417976910    0.0201571550    0.0004099219    
0.0420203520    0.0201157400    0.0004110392    
0.0422430130    0.0207337920    0.0004188858    
0.0424656740    0.0204613940    0.0004107091    
0.0426883350    0.0203569450    0.0004116927    
0.0429109960    0.0208529850    0.0004179803    
0.0431336570    0.0201147940    0.0004047316    
0.0433563180    0.0206290280    0.0004134082    
0.0435789790    0.0200501440    0.0004011634    
0.0438016400    0.0205934510    0.0004087741    
0.0440243010    0.0206387980    0.0004050718    
0.0442469620    0.0199696560    0.0004008388    
0.0444696230    0.0199385260    0.0003990899    
0.0446922840    0.0207334760    0.0004057595    
0.0449149450    0.0199973160    0.0003931638    
0.0451376060    0.0198209340    0.0003962602    
0.0453602670    0.0204159200    0.0003979477    
0.0455829280    0.0209181920    0.0004023473    
0.0458055890    0.0199414800    0.0003951326    
0.0460282500    0.0201894100    0.0003927871    
0.0462509110    0.0208446850    0.0003966281    
0.0464735720    0.0195837980    0.0003846621    
0.0466962330    0.0205399350    0.0003957312    
0.0469188940    0.0198626390    0.0003880488    
0.0471415550    0.0204118560    0.0003953975    
0.0473642160    0.0206037630    0.0003916895    
0.0475868770    0.0210483330    0.0003939260    
0.0478095380    0.0202360290    0.0003845597    
0.0480321990    0.0199944960    0.0003830954    
0.0482548600    0.0200243840    0.0003817112    
0.0484775210    0.0194072540    0.0003795144    
0.0487001820    0.0205293900    0.0003846182    
0.0489228430    0.0204425500    0.0003835976    
0.0491455040    0.0196212380    0.0003732135    
0.0493681650    0.0205015220    0.0003847719    
0.0495908260    0.0207598010    0.0003806735    
0.0498134870    0.0197625880    0.0003749538    
0.0500361480    0.0198421380    0.0003747136    
0.0502588090    0.0203299250    0.0003736083    
0.0504814700    0.0200052580    0.0003754581    
0.0507041310    0.0203373490    0.0003740607    
0.0509267920    0.0207903870    0.0003797687    
0.0511494530    0.0205140510    0.0003747210    
0.0513721140    0.0203893450    0.0003768703    
0.0515947750    0.0203609420    0.0003716144    
0.0518174360    0.0205318460    0.0003709229    
0.0520400970    0.0198317800    0.0003620168    
0.0522627580    0.0201366870    0.0003678893    
0.0524854190    0.0200556120    0.0003701331    
0.0527080800    0.0201800740    0.0003741544    
0.0529307410    0.0203910800    0.0003778719    
0.0531534020    0.0202081190    0.0003748033    
0.0533760630    0.0200130600    0.0003741576    
0.0535987240    0.0194524040    0.0003671572    
0.0538213850    0.0193171700    0.0003701178    
0.0540440460    0.0203851220    0.0003784118    
0.0542667070    0.0206029690    0.0003830501    
0.0544893680    0.0202969850    0.0003803976    
0.0547120290    0.0204769140    0.0003794625    
0.0549346900    0.0196044730    0.0003714861    
0.0551573510    0.0193769760    0.0003736720    
0.0553800120    0.0203382100    0.0003795737    
0.0556026730    0.0209024760    0.0003927816    
0.0558253340    0.0205785510    0.0003929896    
0.0560479950    0.0202183340    0.0003895351    
0.0562706560    0.0201291700    0.0003924329    
0.0564933170    0.0199976590    0.0003945455    
0.0567159780    0.0203416600    0.0003931536    
0.0569386390    0.0207417950    0.0004032287    
0.0571613000    0.0193178370    0.0003807626    
0.0573839610    0.0199947960    0.0003841603    
0.0576066220    0.0200833870    0.0003860762    
0.0578292830    0.0198474800    0.0003825321    
0.0580519440    0.0194741640    0.0003803867    
0.0582746050    0.0200318960    0.0003840941    
0.0584972660    0.0199446110    0.0003817893    
0.0587199270    0.0199182830    0.0003782483    
0.0589425880    0.0199912230    0.0003767238    
0.0591652490    0.0197028360    0.0003761974    
0.0593879100    0.0201118610    0.0003772595    
0.0596105710    0.0200906370    0.0003766627    
0.0598332320    0.0203134520    0.0003819830    
0.0600558930    0.0195942920    0.0003727684    
0.0602785540    0.0198147250    0.0003744631    
0.0605012150    0.0198933950    0.0003744152    
0.0607238760    0.0194517270    0.0003675375    
0.0609465370    0.0203940950    0.0003792979    
0.0611691980    0.0198785010    0.0003750661    
0.0613918590    0.0199245180    0.0003714005    
0.0616145200    0.0195147650    0.0003702518    
0.0618371810    0.0194914720    0.0003663966    
0.0620598420    0.0201735360    0.0003731364    
0.0622825030    0.0191945410    0.0003695360    
0.0625051640    0.0201599330    0.0003733961    
0.0627278250    0.0199323560    0.0003705180    
0.0629504860    0.0192165820    0.0003608469    
0.0631731470    0.0197158590    0.0003700267    
0.0633958080    0.0197608070    0.0003725802    
0.0636184690    0.0201922990    0.0003818714    
0.0638411300    0.0194173940    0.0003730667    
0.0640637910    0.0197205710    0.0003786122    
0.0642864520    0.0197511150    0.0003780853    
0.0645091130    0.0194580460    0.0003785583    
0.0647317740    0.0195969300    0.0003803258    
0.0649544350    0.0201577570    0.0003853052    
0.0651770960    0.0195887670    0.0003777563    
0.0653997570    0.0197722670    0.0003786985    
0.0656224180    0.0199020580    0.0003807656    
0.0658450790    0.0195463580    0.0003719238    
0.0660677400    0.0199486170    0.0003773305    
0.0662904010    0.0205227700    0.0003872910    
0.0665130620    0.0198958920    0.0003796760    
0.0667357230    0.0194013100    0.0003815933    
0.0669583840    0.0197637460    0.0003838525    
0.0671810450    0.0198410320    0.0003824788    
0.0674037060    0.0199699920    0.0003902206    
0.0676263670    0.0198514640    0.0003862123    
0.0678490280    0.0198172180    0.0003835192    
0.0680716890    0.0206063080    0.0003919505    
0.0682943500    0.0193041310    0.0003752090    
0.0685170110    0.0200058940    0.0003780759    
0.0687396720    0.0199992290    0.0003770086    
0.0689623330    0.0197596830    0.0003735563    
0.0691849940    0.0203638140    0.0003818513    
0.0694076550    0.0192048140    0.0003706278    
0.0696303160    0.0196340640    0.0003717799    
0.0698529770    0.0197060790    0.0003716805    
0.0700756380    0.0195313090    0.0003652786    
0.0702982990    0.0196518580    0.0003703944    
0.0705209600    0.0192521500    0.0003639614    
0.0707436210    0.0198733910    0.0003680889    
0.0709662820    0.0192330630    0.0003664272    
0.0711889430    0.0194786350    0.0003642298    
0.0714116040    0.0193667660    0.0003639238    
0.0716342650    0.0196168030    0.0003647784    
0.0718569260    0.0195869490    0.0003630327    
0.0720795870    0.0195422390    0.0003640849    
0.0723022480    0.0193569060    0.0003629066    
0.0725249090    0.0199653890    0.0003641525    
0.0727475700    0.0196188190    0.0003640613    
0.0729702310    0.0193004760    0.0003582156    
0.0731928920    0.0196963210    0.0003633167    
0.0734155530    0.0196578470    0.0003622374    
0.0736382140    0.0198544370    0.0003617079    
0.0738608750    0.0193374980    0.0003592742    
0.0740835360    0.0190091360    0.0003553265    
0.0743061970    0.0198656420    0.0003581285    
0.0745288580    0.0192417060    0.0003560838    
0.0747515190    0.0197544210    0.0003615092    
0.0749741800    0.0198124930    0.0003586890    
0.0751968410    0.0196762970    0.0003602606    
0.0754195020    0.0198049640    0.0003593190    
0.0756421630    0.0193349980    0.0003521279    
0.0758648240    0.0200660080    0.0003595851    
0.0760874850    0.0199952400    0.0003587781    
0.0763101460    0.0196998780    0.0003557767    
0.0765328070    0.0200132890    0.0003622649    
0.0767554680    0.0203312600    0.0003626537    
0.0769781290    0.0199959510    0.0003575840    
0.0772007900    0.0200225780    0.0003549522    
0.0774234510    0.0195318420    0.0003525695    
0.0776461120    0.0193042410    0.0003501768    
0.0778687730    0.0193914560    0.0003498075    
0.0780914340    0.0196183570    0.0003543622    
0.0783140950    0.0195649030    0.0003482645    
0.0785367560    0.0195736070    0.0003539583    
0.0787594170    0.0190484080    0.0003460488    
0.0789820780    0.0193452670    0.0003469480    
0.0792047390    0.0196661270    0.0003509571    
0.0794274000    0.0196499590    0.0003522992    
0.0796500610    0.0199000030    0.0003510733    
0.0798727220    0.0191770620    0.0003443191    
0.0800953830    0.0197597190    0.0003487070    
0.0803180440    0.0189939330    0.0003442648    
0.0805407050    0.0192575750    0.0003463234    
0.0807633660    0.0197191720    0.0003501242    
0.0809860270    0.0200304450    0.0003515737    
0.0812086880    0.0199040730    0.0003474343    
0.0814313490    0.0191741510    0.0003425594    
0.0816540100    0.0193428190    0.0003432795    
0.0818766710    0.0193516890    0.0003441422    
0.0820993320    0.0192019480    0.0003421834    
0.0823219930    0.0194098560    0.0003454499    
0.0825446540    0.0197711090    0.0003461166    
0.0827673150    0.0192134220    0.0003389080    
0.0829899760    0.0201160300    0.0003461599    
0.0832126370    0.0195453530    0.0003427427    
0.0834352980    0.0200025380    0.0003459528    
0.0836579590    0.0192762100    0.0003388577    
0.0838806200    0.0190313960    0.0003377527    
0.0841032810    0.0193878410    0.0003387847    
0.0843259420    0.0197392960    0.0003407889    
0.0845486030    0.0198628800    0.0003418543    
0.0847712640    0.0196738290    0.0003381501    
0.0849939250    0.0198940490    0.0003406296    
0.0852165860    0.0195427180    0.0003380506    
0.0854392470    0.0199087180    0.0003379703    
0.0856619080    0.0197256300    0.0003388903    
0.0858845690    0.0196120600    0.0003348699    
0.0861072300    0.0194953730    0.0003361771    
0.0863298910    0.0193076000    0.0003363061    
0.0865525520    0.0196146420    0.0003360426    
0.0867752130    0.0196279260    0.0003334439    
0.0869978740    0.0199330660    0.0003368822    
0.0872205350    0.0192860760    0.0003309482    
0.0874431960    0.0193542550    0.0003315329    
0.0876658570    0.0192227490    0.0003316733    
0.0878885180    0.0196619790    0.0003360163    
0.0881111790    0.0194110820    0.0003334371    
0.0883338400    0.0198367260    0.0003321379    
0.0885565010    0.0195614120    0.0003342977    
0.0887791620    0.0197864880    0.0003318554    
0.0890018230    0.0193096930    0.0003310125    
0.0892244840    0.0191875140    0.0003305246    
0.0894471450    0.0199629340    0.0003357131    
0.0896698060    0.0195436670    0.0003309160    
0.0898924670    0.0189900970    0.0003277078    
0.0901151280    0.0196556070    0.0003297995    
0.0903377890    0.0198565720    0.0003342554    
0.0905604500    0.0196803120    0.0003312414    
0.0907831110    0.0194216360    0.0003282387    
0.0910057720    0.0195163180    0.0003305477    
0.0912284330    0.0197664760    0.0003278965    
0.0914510940    0.0198594150    0.0003323315    
0.0916737550    0.0191467260    0.0003255041    
0.0918964160    0.0195518280    0.0003302975    
0.0921190770    0.0195834200    0.0003275754    
0.0923417380    0.0189852940    0.0003226664    
0.0925643990    0.0197055960    0.0003279260    
0.0927870600    0.0190037410    0.0003233538    
0.0930097210    0.0197360980    0.0003267190    
0.0932323820    0.0196815470    0.0003286655    
