# Diamond Light Source Ltd.
# Data extracted from: /dls/b21/data/2018/cm19678-3/processed/b21-386631_00278.dat
q(1/A)          Column          Error           
0.0035000000    2.0879759000    0.0246533010    
0.0037226610    1.8762821000    0.0228780870    
0.0039453220    1.6444379000    0.0194843540    
0.0041679830    1.2915181000    0.0141805250    
0.0043906440    0.9787566000    0.0118076840    
0.0046133050    0.7767549700    0.0100979510    
0.0048359660    0.5956229700    0.0083642044    
0.0050586270    0.4679714600    0.0072871890    
0.0052812880    0.4346699800    0.0066402470    
0.0055039490    0.3883119800    0.0059676778    
0.0057266100    0.3264258700    0.0052932378    
0.0059492710    0.2630805700    0.0047519682    
0.0061719320    0.2263559900    0.0042474945    
0.0063945930    0.2006061700    0.0040470792    
0.0066172539    0.1846534600    0.0036459757    
0.0068399149    0.1721880200    0.0034653124    
0.0070625759    0.1531661100    0.0032347809    
0.0072852369    0.1285315200    0.0029189102    
0.0075078979    0.1138813400    0.0027340272    
0.0077305589    0.1050363700    0.0025756899    
0.0079532199    0.1022068900    0.0025055527    
0.0081758809    0.0921037820    0.0024006208    
0.0083985419    0.0869267220    0.0021752083    
0.0086212029    0.0804494150    0.0020925973    
0.0088438639    0.0752523290    0.0020076212    
0.0090665249    0.0664508510    0.0018221106    
0.0092891859    0.0660795910    0.0018965225    
0.0095118469    0.0627220500    0.0017768928    
0.0097345079    0.0599230840    0.0016868035    
0.0099571689    0.0574317100    0.0016173135    
0.0101798300    0.0548356790    0.0015803380    
0.0104024910    0.0498962550    0.0015023814    
0.0106251520    0.0480495530    0.0014793234    
0.0108478130    0.0488523230    0.0014526263    
0.0110704740    0.0455733830    0.0013357795    
0.0112931350    0.0452901130    0.0013355326    
0.0115157960    0.0434011260    0.0012997612    
0.0117384570    0.0415859060    0.0012613377    
0.0119611180    0.0407475470    0.0012521417    
0.0121837790    0.0379015110    0.0011873245    
0.0124064400    0.0378134660    0.0011365085    
0.0126291010    0.0364398270    0.0011017109    
0.0128517620    0.0358521010    0.0010955189    
0.0130744230    0.0347945850    0.0010712367    
0.0132970840    0.0355981950    0.0010782382    
0.0135197450    0.0339513280    0.0010379224    
0.0137424060    0.0319635910    0.0009930605    
0.0139650670    0.0321776660    0.0009741866    
0.0141877280    0.0331495330    0.0009909742    
0.0144103890    0.0317301090    0.0009528089    
0.0146330500    0.0322606970    0.0009546423    
0.0148557110    0.0294135540    0.0009077220    
0.0150783720    0.0304998400    0.0009166926    
0.0153010330    0.0290299040    0.0008817205    
0.0155236940    0.0288179980    0.0008732727    
0.0157463550    0.0293868560    0.0008665711    
0.0159690160    0.0288599140    0.0008555077    
0.0161916770    0.0280090730    0.0008380543    
0.0164143380    0.0261439760    0.0008158051    
0.0166369990    0.0274020880    0.0008094525    
0.0168596600    0.0270857990    0.0007976769    
0.0170823210    0.0284888220    0.0008109926    
0.0173049820    0.0257147680    0.0007718290    
0.0175276430    0.0255975510    0.0007781885    
0.0177503040    0.0256795670    0.0007595644    
0.0179729650    0.0273090110    0.0007755238    
0.0181956260    0.0259117880    0.0007409419    
0.0184182870    0.0249545260    0.0007236997    
0.0186409480    0.0256752500    0.0007387223    
0.0188636090    0.0253952870    0.0007300632    
0.0190862700    0.0251904020    0.0007259753    
0.0193089310    0.0246947940    0.0007176779    
0.0195315920    0.0240362880    0.0006839651    
0.0197542530    0.0249457040    0.0006977990    
0.0199769140    0.0234232050    0.0006761697    
0.0201995750    0.0254755560    0.0006941285    
0.0204222360    0.0236830870    0.0006750086    
0.0206448970    0.0246373560    0.0006835803    
0.0208675580    0.0243972450    0.0006662334    
0.0210902190    0.0244066780    0.0006727919    
0.0213128800    0.0249037830    0.0006703873    
0.0215355410    0.0237325450    0.0006466369    
0.0217582020    0.0227106620    0.0006325624    
0.0219808630    0.0228795070    0.0006340758    
0.0222035240    0.0238126740    0.0006410156    
0.0224261850    0.0231364410    0.0006262247    
0.0226488460    0.0224229530    0.0006118638    
0.0228715070    0.0226107210    0.0006128940    
0.0230941680    0.0224944370    0.0006113161    
0.0233168290    0.0218553100    0.0006040698    
0.0235394900    0.0213429080    0.0005903585    
0.0237621510    0.0217709220    0.0005801970    
0.0239848120    0.0222552740    0.0005872942    
0.0242074730    0.0233950120    0.0005973249    
0.0244301340    0.0229745750    0.0005926087    
0.0246527950    0.0230283340    0.0005987954    
0.0248754560    0.0221685220    0.0005743063    
0.0250981170    0.0232239550    0.0005891294    
0.0253207780    0.0230534210    0.0005694373    
0.0255434390    0.0230309150    0.0005752338    
0.0257661000    0.0213725930    0.0005559299    
0.0259887610    0.0221522160    0.0005599639    
0.0262114220    0.0215448410    0.0005551762    
0.0264340830    0.0227859940    0.0005631754    
0.0266567440    0.0228627190    0.0005606370    
0.0268794050    0.0213401580    0.0005394367    
0.0271020660    0.0223715100    0.0005500821    
0.0273247270    0.0222773270    0.0005456263    
0.0275473880    0.0216297150    0.0005365672    
0.0277700490    0.0216115250    0.0005331711    
0.0279927100    0.0225673380    0.0005400801    
0.0282153710    0.0217823650    0.0005331837    
0.0284380320    0.0215692580    0.0005274934    
0.0286606930    0.0216834650    0.0005243613    
0.0288833540    0.0219568520    0.0005286589    
0.0291060150    0.0218897910    0.0005273500    
0.0293286760    0.0209751740    0.0005090222    
0.0295513370    0.0222973890    0.0005191057    
0.0297739980    0.0223093080    0.0005249612    
0.0299966590    0.0224488350    0.0005176061    
0.0302193200    0.0209334680    0.0005071149    
0.0304419810    0.0217627210    0.0005180132    
0.0306646420    0.0212735150    0.0004977027    
0.0308873030    0.0213210060    0.0004961057    
0.0311099640    0.0224645940    0.0005105590    
0.0313326250    0.0212547030    0.0004911184    
0.0315552860    0.0218091860    0.0005039304    
0.0317779470    0.0213456290    0.0004989803    
0.0320006080    0.0210439610    0.0004841852    
0.0322232690    0.0215912300    0.0004924937    
0.0324459300    0.0213696500    0.0004863022    
0.0326685910    0.0207587740    0.0004785110    
0.0328912520    0.0200859450    0.0004722511    
0.0331139130    0.0210810610    0.0004775145    
0.0333365740    0.0213597130    0.0004822208    
0.0335592350    0.0208868570    0.0004722682    
0.0337818960    0.0204484790    0.0004669138    
0.0340045570    0.0214356990    0.0004772926    
0.0342272170    0.0214567160    0.0004756429    
0.0344498780    0.0212338020    0.0004750398    
0.0346725390    0.0210688440    0.0004644276    
0.0348952000    0.0206440000    0.0004576270    
0.0351178610    0.0204443810    0.0004574935    
0.0353405220    0.0200759340    0.0004512870    
0.0355631830    0.0210627090    0.0004605040    
0.0357858440    0.0213748370    0.0004639037    
0.0360085050    0.0217067820    0.0004689045    
0.0362311660    0.0210157690    0.0004558960    
0.0364538270    0.0207576270    0.0004494509    
0.0366764880    0.0209218640    0.0004508981    
0.0368991490    0.0212405470    0.0004520289    
0.0371218100    0.0210809270    0.0004490388    
0.0373444710    0.0206628800    0.0004494055    
0.0375671320    0.0205929930    0.0004479915    
0.0377897930    0.0211867100    0.0004426403    
0.0380124540    0.0203577980    0.0004366174    
0.0382351150    0.0208822080    0.0004422053    
0.0384577760    0.0210965460    0.0004401806    
0.0386804370    0.0204779310    0.0004369884    
0.0389030980    0.0206189860    0.0004351702    
0.0391257590    0.0201225450    0.0004269811    
0.0393484200    0.0210312400    0.0004350463    
0.0395710810    0.0196622280    0.0004212153    
0.0397937420    0.0210969810    0.0004363129    
0.0400164030    0.0206867690    0.0004338079    
0.0402390640    0.0200863750    0.0004217742    
0.0404617250    0.0210053750    0.0004287704    
0.0406843860    0.0206100240    0.0004206127    
0.0409070470    0.0209803170    0.0004287953    
0.0411297080    0.0206794860    0.0004215916    
0.0413523690    0.0208899060    0.0004248233    
0.0415750300    0.0200161690    0.0004193765    
0.0417976910    0.0204283400    0.0004127148    
0.0420203520    0.0209853860    0.0004198757    
0.0422430130    0.0206028490    0.0004176062    
0.0424656740    0.0204410880    0.0004105497    
0.0426883350    0.0207111200    0.0004153036    
0.0429109960    0.0209748200    0.0004192449    
0.0431336570    0.0203798030    0.0004074331    
0.0433563180    0.0207080750    0.0004142443    
0.0435789790    0.0200865990    0.0004015714    
0.0438016400    0.0205086370    0.0004079756    
0.0440243010    0.0204126610    0.0004028902    
0.0442469620    0.0203924530    0.0004051037    
0.0444696230    0.0201505820    0.0004012500    
0.0446922840    0.0203805520    0.0004023348    
0.0449149450    0.0206279060    0.0003993579    
0.0451376060    0.0204828980    0.0004028665    
0.0453602670    0.0201720700    0.0003956068    
0.0455829280    0.0204660300    0.0003980182    
0.0458055890    0.0201650700    0.0003973847    
0.0460282500    0.0202702160    0.0003936150    
0.0462509110    0.0201773750    0.0003902700    
0.0464735720    0.0206762640    0.0003952883    
0.0466962330    0.0203842380    0.0003942712    
0.0469188940    0.0207768770    0.0003969218    
0.0471415550    0.0197651010    0.0003891251    
0.0473642160    0.0212040540    0.0003973975    
0.0475868770    0.0207284340    0.0003909634    
0.0478095380    0.0201746250    0.0003840174    
0.0480321990    0.0205714800    0.0003886256    
0.0482548600    0.0204799490    0.0003860707    
0.0484775210    0.0206214260    0.0003912484    
0.0487001820    0.0198923790    0.0003786450    
0.0489228430    0.0203893810    0.0003831399    
0.0491455040    0.0199379050    0.0003762539    
0.0493681650    0.0200436930    0.0003804926    
0.0495908260    0.0191375040    0.0003655365    
0.0498134870    0.0195605190    0.0003730723    
0.0500361480    0.0201295510    0.0003774586    
0.0502588090    0.0199222840    0.0003698838    
0.0504814700    0.0208553640    0.0003833940    
0.0507041310    0.0199288630    0.0003703252    
0.0509267920    0.0208503990    0.0003803576    
0.0511494530    0.0199844790    0.0003698927    
0.0513721140    0.0196691450    0.0003701946    
0.0515947750    0.0205213820    0.0003731160    
0.0518174360    0.0200939320    0.0003669857    
0.0520400970    0.0203780800    0.0003670088    
0.0522627580    0.0197309670    0.0003642037    
0.0524854190    0.0203674140    0.0003730396    
0.0527080800    0.0191089590    0.0003641288    
0.0529307410    0.0197791490    0.0003721990    
0.0531534020    0.0195936750    0.0003691012    
0.0533760630    0.0197725120    0.0003719425    
0.0535987240    0.0198170530    0.0003706227    
0.0538213850    0.0204349560    0.0003807168    
0.0540440460    0.0202209130    0.0003769254    
0.0542667070    0.0201515470    0.0003788715    
0.0544893680    0.0202871190    0.0003803463    
0.0547120290    0.0204180470    0.0003789577    
0.0549346900    0.0202283130    0.0003773913    
0.0551573510    0.0203325730    0.0003828166    
0.0553800120    0.0207677480    0.0003836026    
0.0556026730    0.0203164100    0.0003872779    
0.0558253340    0.0196672070    0.0003842307    
0.0560479950    0.0196296940    0.0003838643    
0.0562706560    0.0198503890    0.0003897481    
0.0564933170    0.0201732800    0.0003963171    
0.0567159780    0.0200192520    0.0003900677    
0.0569386390    0.0200641540    0.0003966301    
0.0571613000    0.0203954670    0.0003912811    
0.0573839610    0.0196964450    0.0003813247    
0.0576066220    0.0200209260    0.0003855171    
0.0578292830    0.0203901060    0.0003877680    
0.0580519440    0.0196641740    0.0003822793    
0.0582746050    0.0195058640    0.0003790585    
0.0584972660    0.0194445410    0.0003770135    
0.0587199270    0.0199441500    0.0003785348    
0.0589425880    0.0197754310    0.0003747256    
0.0591652490    0.0202962340    0.0003818618    
0.0593879100    0.0197481510    0.0003738732    
0.0596105710    0.0200314190    0.0003761479    
0.0598332320    0.0197574580    0.0003767600    
0.0600558930    0.0198326120    0.0003750691    
0.0602785540    0.0199181120    0.0003754794    
0.0605012150    0.0198201700    0.0003737659    
0.0607238760    0.0196573760    0.0003695152    
0.0609465370    0.0199328250    0.0003750245    
0.0611691980    0.0208171360    0.0003838605    
0.0613918590    0.0206559100    0.0003781967    
0.0616145200    0.0197508580    0.0003725251    
0.0618371810    0.0198608070    0.0003698917    
0.0620598420    0.0199570040    0.0003711687    
0.0622825030    0.0199885630    0.0003771427    
0.0625051640    0.0201297130    0.0003731566    
0.0627278250    0.0198540050    0.0003698292    
0.0629504860    0.0198036020    0.0003663566    
0.0631731470    0.0197131830    0.0003700416    
0.0633958080    0.0200882980    0.0003756956    
0.0636184690    0.0195248940    0.0003755482    
0.0638411300    0.0193929230    0.0003728719    
0.0640637910    0.0199720380    0.0003810597    
0.0642864520    0.0200232370    0.0003807222    
0.0645091130    0.0203462390    0.0003871438    
0.0647317740    0.0198521870    0.0003828362    
0.0649544350    0.0199632280    0.0003834830    
0.0651770960    0.0197168780    0.0003790306    
0.0653997570    0.0203424230    0.0003841614    
0.0656224180    0.0205329970    0.0003867959    
0.0658450790    0.0205911190    0.0003817755    
0.0660677400    0.0195959980    0.0003740212    
0.0662904010    0.0202274940    0.0003845364    
0.0665130620    0.0200378940    0.0003810698    
0.0667357230    0.0201562090    0.0003889884    
0.0669583840    0.0196263470    0.0003825573    
0.0671810450    0.0195282160    0.0003794928    
0.0674037060    0.0192269010    0.0003829331    
0.0676263670    0.0196453320    0.0003842435    
0.0678490280    0.0193538120    0.0003790496    
0.0680716890    0.0193729310    0.0003800807    
0.0682943500    0.0192864290    0.0003750776    
0.0685170110    0.0202174760    0.0003801110    
0.0687396720    0.0190225760    0.0003677276    
0.0689623330    0.0195096730    0.0003712258    
0.0691849940    0.0196305570    0.0003749541    
0.0694076550    0.0204251840    0.0003822636    
0.0696303160    0.0196383160    0.0003718604    
0.0698529770    0.0205798170    0.0003798722    
0.0700756380    0.0202803360    0.0003722573    
0.0702982990    0.0201099850    0.0003747274    
0.0705209600    0.0192150270    0.0003636497    
0.0707436210    0.0193867200    0.0003635933    
0.0709662820    0.0201519570    0.0003751190    
0.0711889430    0.0195646000    0.0003650722    
0.0714116040    0.0200276040    0.0003701208    
0.0716342650    0.0193157450    0.0003620076    
0.0718569260    0.0192344980    0.0003597905    
0.0720795870    0.0195193330    0.0003639109    
0.0723022480    0.0199939920    0.0003688702    
0.0725249090    0.0193319580    0.0003583681    
0.0727475700    0.0199136300    0.0003668262    
0.0729702310    0.0198898470    0.0003636832    
0.0731928920    0.0195665240    0.0003621568    
0.0734155530    0.0191346660    0.0003574232    
0.0736382140    0.0196807800    0.0003601616    
0.0738608750    0.0199692730    0.0003651355    
0.0740835360    0.0194184970    0.0003591710    
0.0743061970    0.0196310140    0.0003560459    
0.0745288580    0.0194436050    0.0003579858    
0.0747515190    0.0203476220    0.0003669367    
0.0749741800    0.0187450800    0.0003489307    
0.0751968410    0.0191725460    0.0003556575    
0.0754195020    0.0194115040    0.0003557704    
0.0756421630    0.0190120560    0.0003492127    
0.0758648240    0.0193098200    0.0003527827    
0.0760874850    0.0189886450    0.0003496686    
0.0763101460    0.0192285710    0.0003515331    
0.0765328070    0.0199126820    0.0003613923    
0.0767554680    0.0198180520    0.0003580861    
0.0769781290    0.0192327620    0.0003507316    
0.0772007900    0.0195045280    0.0003503682    
0.0774234510    0.0193323730    0.0003508026    
0.0776461120    0.0190733410    0.0003481139    
0.0778687730    0.0199068990    0.0003544645    
0.0780914340    0.0198914970    0.0003568592    
0.0783140950    0.0205736400    0.0003571683    
0.0785367560    0.0201412370    0.0003590929    
0.0787594170    0.0195744350    0.0003508324    
0.0789820780    0.0193121150    0.0003466881    
0.0792047390    0.0194386010    0.0003489588    
0.0794274000    0.0196605320    0.0003524321    
0.0796500610    0.0197928040    0.0003501643    
0.0798727220    0.0195769590    0.0003479283    
0.0800953830    0.0201271490    0.0003519722    
0.0803180440    0.0191915220    0.0003460883    
0.0805407050    0.0192181390    0.0003460061    
0.0807633660    0.0193814540    0.0003471506    
0.0809860270    0.0197693810    0.0003493129    
0.0812086880    0.0198841200    0.0003472977    
0.0814313490    0.0192395180    0.0003431800    
0.0816540100    0.0197674620    0.0003470647    
0.0818766710    0.0202985770    0.0003524994    
0.0820993320    0.0188523580    0.0003390909    
0.0823219930    0.0197830310    0.0003487926    
0.0825446540    0.0196299390    0.0003449161    
0.0827673150    0.0196480960    0.0003427573    
0.0829899760    0.0193577540    0.0003396097    
0.0832126370    0.0197539790    0.0003446044    
0.0834352980    0.0199829310    0.0003458207    
0.0836579590    0.0196795770    0.0003424218    
0.0838806200    0.0194671890    0.0003416348    
0.0841032810    0.0195578340    0.0003403035    
0.0843259420    0.0197494560    0.0003409135    
0.0845486030    0.0192786990    0.0003368261    
0.0847712640    0.0193699840    0.0003355651    
0.0849939250    0.0193091660    0.0003356213    
0.0852165860    0.0192545070    0.0003355850    
0.0854392470    0.0192588260    0.0003324443    
0.0856619080    0.0198289010    0.0003398131    
0.0858845690    0.0195533980    0.0003344050    
0.0861072300    0.0194822000    0.0003360999    
0.0863298910    0.0195402890    0.0003383631    
0.0865525520    0.0192733860    0.0003331426    
0.0867752130    0.0196151790    0.0003333717    
0.0869978740    0.0195615290    0.0003337639    
0.0872205350    0.0200002890    0.0003370569    
0.0874431960    0.0198242310    0.0003355704    
0.0876658570    0.0191467760    0.0003310531    
0.0878885180    0.0197236740    0.0003365795    
0.0881111790    0.0199022440    0.0003376658    
0.0883338400    0.0190233520    0.0003252925    
0.0885565010    0.0201713610    0.0003395063    
0.0887791620    0.0195346910    0.0003297728    
0.0890018230    0.0203411490    0.0003397751    
0.0892244840    0.0199206110    0.0003368160    
0.0894471450    0.0199277300    0.0003354533    
0.0896698060    0.0194302100    0.0003299898    
0.0898924670    0.0187340150    0.0003255260    
0.0901151280    0.0199753520    0.0003325072    
0.0903377890    0.0192024080    0.0003287390    
0.0905604500    0.0191102080    0.0003264438    
0.0907831110    0.0197476650    0.0003310181    
0.0910057720    0.0185069990    0.0003219217    
0.0912284330    0.0195313750    0.0003259760    
0.0914510940    0.0194910290    0.0003292704    
0.0916737550    0.0195825980    0.0003292239    
0.0918964160    0.0194556020    0.0003295194    
0.0921190770    0.0197849630    0.0003292924    
0.0923417380    0.0198670210    0.0003301099    
0.0925643990    0.0203430240    0.0003332237    
0.0927870600    0.0193325420    0.0003261744    
0.0930097210    0.0194211940    0.0003241371    
0.0932323820    0.0195430800    0.0003275428    
