# Diamond Light Source Ltd.
# Data extracted from: /dls/b21/data/2018/cm19678-3/processed/b21-386631_00285.dat
q(1/A)          Column          Error           
0.0035000000    2.0633687000    0.0245049440    
0.0037226610    1.8951199000    0.0229901580    
0.0039453220    1.6334645000    0.0194171320    
0.0041679830    1.2867242000    0.0141526500    
0.0043906440    0.9728479900    0.0117707150    
0.0046133050    0.7828866200    0.0101366310    
0.0048359660    0.5936151000    0.0083491903    
0.0050586270    0.4709332900    0.0073094218    
0.0052812880    0.4262595900    0.0065749804    
0.0055039490    0.3799755300    0.0059026327    
0.0057266100    0.3204339400    0.0052438631    
0.0059492710    0.2657696900    0.0047756758    
0.0061719320    0.2319646500    0.0042993292    
0.0063945930    0.1946854400    0.0039864771    
0.0066172539    0.1869886200    0.0036685598    
0.0068399149    0.1690131200    0.0034328443    
0.0070625759    0.1424778400    0.0031195372    
0.0072852369    0.1241959300    0.0028689473    
0.0075078979    0.1128723300    0.0027215935    
0.0077305589    0.0990777970    0.0025012947    
0.0079532199    0.1009565800    0.0024899105    
0.0081758809    0.0938354330    0.0024228205    
0.0083985419    0.0859827680    0.0021631313    
0.0086212029    0.0795068630    0.0020800775    
0.0088438639    0.0736295710    0.0019856419    
0.0090665249    0.0688841210    0.0018549704    
0.0092891859    0.0623647560    0.0018422430    
0.0095118469    0.0636143690    0.0017892939    
0.0097345079    0.0607646110    0.0016984225    
0.0099571689    0.0550970030    0.0015839275    
0.0101798300    0.0520006520    0.0015387772    
0.0104024910    0.0530513450    0.0015489856    
0.0106251520    0.0479936140    0.0014783020    
0.0108478130    0.0463802240    0.0014152420    
0.0110704740    0.0445066290    0.0013199105    
0.0112931350    0.0446503190    0.0013259222    
0.0115157960    0.0410956630    0.0012646316    
0.0117384570    0.0413474050    0.0012575794    
0.0119611180    0.0402770950    0.0012447576    
0.0121837790    0.0377817440    0.0011853187    
0.0124064400    0.0376003720    0.0011331789    
0.0126291010    0.0382635240    0.0011288207    
0.0128517620    0.0357104660    0.0010932344    
0.0130744230    0.0348200240    0.0010715122    
0.0132970840    0.0350354050    0.0010695653    
0.0135197450    0.0332143390    0.0010264842    
0.0137424060    0.0317407460    0.0009894855    
0.0139650670    0.0323476230    0.0009766502    
0.0141877280    0.0318095520    0.0009706338    
0.0144103890    0.0318090540    0.0009538901    
0.0146330500    0.0311239840    0.0009375715    
0.0148557110    0.0310875950    0.0009330945    
0.0150783720    0.0295566770    0.0009023100    
0.0153010330    0.0293716880    0.0008867998    
0.0155236940    0.0298700410    0.0008889736    
0.0157463550    0.0287928830    0.0008576759    
0.0159690160    0.0297917890    0.0008691158    
0.0161916770    0.0289305920    0.0008516368    
0.0164143380    0.0273599700    0.0008344713    
0.0166369990    0.0286153550    0.0008270887    
0.0168596600    0.0289118810    0.0008240381    
0.0170823210    0.0251819890    0.0007623908    
0.0173049820    0.0264503650    0.0007827059    
0.0175276430    0.0272003790    0.0008020954    
0.0177503040    0.0257413920    0.0007603958    
0.0179729650    0.0267526320    0.0007675000    
0.0181956260    0.0259697250    0.0007416895    
0.0184182870    0.0263340190    0.0007433533    
0.0186409480    0.0249684490    0.0007284045    
0.0188636090    0.0254947050    0.0007314116    
0.0190862700    0.0259798210    0.0007371831    
0.0193089310    0.0248562670    0.0007199424    
0.0195315920    0.0247899590    0.0006945301    
0.0197542530    0.0248622420    0.0006965553    
0.0199769140    0.0246866150    0.0006940908    
0.0201995750    0.0249216870    0.0006864671    
0.0204222360    0.0241588270    0.0006816807    
0.0206448970    0.0246509840    0.0006836953    
0.0208675580    0.0234824920    0.0006535534    
0.0210902190    0.0248093190    0.0006782453    
0.0213128800    0.0223724670    0.0006353354    
0.0215355410    0.0232870310    0.0006404694    
0.0217582020    0.0229523550    0.0006358505    
0.0219808630    0.0234543220    0.0006419220    
0.0222035240    0.0232382080    0.0006331678    
0.0224261850    0.0233856220    0.0006295198    
0.0226488460    0.0216335480    0.0006009319    
0.0228715070    0.0232536040    0.0006214787    
0.0230941680    0.0229712490    0.0006176942    
0.0233168290    0.0218171920    0.0006034775    
0.0235394900    0.0219750070    0.0005989720    
0.0237621510    0.0225700730    0.0005906858    
0.0239848120    0.0227152970    0.0005932687    
0.0242074730    0.0217584440    0.0005759912    
0.0244301340    0.0228626230    0.0005910990    
0.0246527950    0.0228832460    0.0005968414    
0.0248754560    0.0220000970    0.0005720586    
0.0250981170    0.0226212700    0.0005813719    
0.0253207780    0.0230062420    0.0005687927    
0.0255434390    0.0222933500    0.0005658867    
0.0257661000    0.0216571120    0.0005595574    
0.0259887610    0.0221049640    0.0005593058    
0.0262114220    0.0228989520    0.0005722950    
0.0264340830    0.0218904140    0.0005519371    
0.0266567440    0.0225828700    0.0005571349    
0.0268794050    0.0217854240    0.0005449763    
0.0271020660    0.0217175730    0.0005419242    
0.0273247270    0.0218182350    0.0005399164    
0.0275473880    0.0217448010    0.0005379345    
0.0277700490    0.0217778060    0.0005351604    
0.0279927100    0.0223815380    0.0005377940    
0.0282153710    0.0224822580    0.0005416232    
0.0284380320    0.0218870240    0.0005313073    
0.0286606930    0.0209434670    0.0005152803    
0.0288833540    0.0215703220    0.0005239282    
0.0291060150    0.0223169090    0.0005324124    
0.0293286760    0.0218474960    0.0005194428    
0.0295513370    0.0212172010    0.0005063209    
0.0297739980    0.0222550760    0.0005242660    
0.0299966590    0.0211075970    0.0005018511    
0.0302193200    0.0207815480    0.0005052167    
0.0304419810    0.0218196460    0.0005186341    
0.0306646420    0.0209895140    0.0004943158    
0.0308873030    0.0214318010    0.0004973392    
0.0311099640    0.0214620350    0.0004989822    
0.0313326250    0.0212274100    0.0004907498    
0.0315552860    0.0216531250    0.0005020698    
0.0317779470    0.0212710370    0.0004980538    
0.0320006080    0.0211730590    0.0004856155    
0.0322232690    0.0210699150    0.0004864591    
0.0324459300    0.0208118110    0.0004798610    
0.0326685910    0.0210299730    0.0004815744    
0.0328912520    0.0217023330    0.0004908322    
0.0331139130    0.0207737040    0.0004739693    
0.0333365740    0.0208435230    0.0004763068    
0.0335592350    0.0216083050    0.0004803032    
0.0337818960    0.0215206140    0.0004789459    
0.0340045570    0.0213141800    0.0004758863    
0.0342272170    0.0210304080    0.0004708431    
0.0344498780    0.0211654530    0.0004742233    
0.0346725390    0.0212689880    0.0004665778    
0.0348952000    0.0217044680    0.0004691830    
0.0351178610    0.0217193700    0.0004714922    
0.0353405220    0.0206091280    0.0004571911    
0.0355631830    0.0219640910    0.0004702035    
0.0357858440    0.0205045290    0.0004543121    
0.0360085050    0.0209223060    0.0004603036    
0.0362311660    0.0216835770    0.0004630326    
0.0364538270    0.0206363780    0.0004480878    
0.0366764880    0.0203732700    0.0004448991    
0.0368991490    0.0213513600    0.0004531574    
0.0371218100    0.0202061490    0.0004395758    
0.0373444710    0.0208049880    0.0004508994    
0.0375671320    0.0210270030    0.0004526387    
0.0377897930    0.0200633810    0.0004306994    
0.0380124540    0.0205312710    0.0004384262    
0.0382351150    0.0209525840    0.0004429019    
0.0384577760    0.0209726070    0.0004388381    
0.0386804370    0.0211634060    0.0004441939    
0.0389030980    0.0205318800    0.0004342030    
0.0391257590    0.0207522600    0.0004335636    
0.0393484200    0.0210176880    0.0004348591    
0.0395710810    0.0202714360    0.0004276446    
0.0397937420    0.0208307870    0.0004335046    
0.0400164030    0.0207095740    0.0004339999    
0.0402390640    0.0213393660    0.0004346833    
0.0404617250    0.0204320540    0.0004228327    
0.0406843860    0.0204510840    0.0004189424    
0.0409070470    0.0202485440    0.0004212053    
0.0411297080    0.0211905950    0.0004267236    
0.0413523690    0.0205571590    0.0004213807    
0.0415750300    0.0202051010    0.0004213055    
0.0417976910    0.0201821640    0.0004101761    
0.0420203520    0.0212076170    0.0004220474    
0.0422430130    0.0201752490    0.0004132052    
0.0424656740    0.0203954420    0.0004100467    
0.0426883350    0.0208981320    0.0004171292    
0.0429109960    0.0207608270    0.0004170556    
0.0431336570    0.0198949160    0.0004025134    
0.0433563180    0.0200490960    0.0004075558    
0.0435789790    0.0194080260    0.0003946874    
0.0438016400    0.0198794150    0.0004016248    
0.0440243010    0.0206228970    0.0004049158    
0.0442469620    0.0214018070    0.0004149632    
0.0444696230    0.0202500650    0.0004021957    
0.0446922840    0.0203443760    0.0004019341    
0.0449149450    0.0208939870    0.0004018818    
0.0451376060    0.0205893710    0.0004038685    
0.0453602670    0.0202995680    0.0003968121    
0.0455829280    0.0199121380    0.0003925527    
0.0458055890    0.0200119450    0.0003958302    
0.0460282500    0.0200289340    0.0003912229    
0.0462509110    0.0208824190    0.0003969869    
0.0464735720    0.0203393450    0.0003920121    
0.0466962330    0.0204941890    0.0003952903    
0.0469188940    0.0204388070    0.0003936367    
0.0471415550    0.0203122860    0.0003944319    
0.0473642160    0.0194868260    0.0003809248    
0.0475868770    0.0198466240    0.0003825156    
0.0478095380    0.0208279820    0.0003901439    
0.0480321990    0.0205743650    0.0003886108    
0.0482548600    0.0196751220    0.0003783677    
0.0484775210    0.0199638670    0.0003849183    
0.0487001820    0.0198808650    0.0003784944    
0.0489228430    0.0209176240    0.0003880293    
0.0491455040    0.0198484010    0.0003753677    
0.0493681650    0.0199960250    0.0003799988    
0.0495908260    0.0198383840    0.0003721296    
0.0498134870    0.0203103630    0.0003801147    
0.0500361480    0.0202596430    0.0003786353    
0.0502588090    0.0194510900    0.0003654438    
0.0504814700    0.0204914720    0.0003799933    
0.0507041310    0.0203511090    0.0003741873    
0.0509267920    0.0201105550    0.0003735080    
0.0511494530    0.0201033590    0.0003709511    
0.0513721140    0.0195603960    0.0003691298    
0.0515947750    0.0197233910    0.0003657500    
0.0518174360    0.0205519490    0.0003711044    
0.0520400970    0.0199110800    0.0003627398    
0.0522627580    0.0199552140    0.0003662278    
0.0524854190    0.0206499030    0.0003755770    
0.0527080800    0.0203743130    0.0003759508    
0.0529307410    0.0202230220    0.0003763115    
0.0531534020    0.0208615640    0.0003808148    
0.0533760630    0.0197752250    0.0003719277    
0.0535987240    0.0205611980    0.0003774762    
0.0538213850    0.0202177870    0.0003786474    
0.0540440460    0.0202797550    0.0003774325    
0.0542667070    0.0197839780    0.0003753596    
0.0544893680    0.0203611480    0.0003809984    
0.0547120290    0.0205894240    0.0003805035    
0.0549346900    0.0199916350    0.0003751363    
0.0551573510    0.0199030150    0.0003787102    
0.0553800120    0.0203240420    0.0003794415    
0.0556026730    0.0195296440    0.0003796640    
0.0558253340    0.0198580770    0.0003860489    
0.0560479950    0.0195353840    0.0003828996    
0.0562706560    0.0198154880    0.0003893632    
0.0564933170    0.0206048280    0.0004004903    
0.0567159780    0.0200149170    0.0003899832    
0.0569386390    0.0200441310    0.0003963893    
0.0571613000    0.0195354820    0.0003829015    
0.0573839610    0.0197290840    0.0003815992    
0.0576066220    0.0201576050    0.0003867889    
0.0578292830    0.0194714680    0.0003788912    
0.0580519440    0.0196227650    0.0003818352    
0.0582746050    0.0202822950    0.0003864872    
0.0584972660    0.0197253580    0.0003796850    
0.0587199270    0.0198608200    0.0003777023    
0.0589425880    0.0196149670    0.0003731618    
0.0591652490    0.0198321300    0.0003774298    
0.0593879100    0.0188522160    0.0003652543    
0.0596105710    0.0196386860    0.0003724019    
0.0598332320    0.0194658610    0.0003739289    
0.0600558930    0.0193602670    0.0003705357    
0.0602785540    0.0201685590    0.0003777917    
0.0605012150    0.0195692370    0.0003713522    
0.0607238760    0.0201670170    0.0003742341    
0.0609465370    0.0203306060    0.0003787070    
0.0611691980    0.0198077340    0.0003743979    
0.0613918590    0.0202568240    0.0003744848    
0.0616145200    0.0200697200    0.0003754795    
0.0618371810    0.0201251170    0.0003723045    
0.0620598420    0.0200838140    0.0003723057    
0.0622825030    0.0199913490    0.0003771282    
0.0625051640    0.0194890880    0.0003671310    
0.0627278250    0.0197326190    0.0003686569    
0.0629504860    0.0195418280    0.0003638878    
0.0631731470    0.0198408630    0.0003711978    
0.0633958080    0.0199223770    0.0003741003    
0.0636184690    0.0194267820    0.0003745629    
0.0638411300    0.0194460650    0.0003733420    
0.0640637910    0.0202657390    0.0003838098    
0.0642864520    0.0197583520    0.0003781546    
0.0645091130    0.0200546030    0.0003843176    
0.0647317740    0.0204900480    0.0003888958    
0.0649544350    0.0199220810    0.0003830461    
0.0651770960    0.0199092970    0.0003808343    
0.0653997570    0.0196417090    0.0003774461    
0.0656224180    0.0193484140    0.0003754320    
0.0658450790    0.0196454350    0.0003728652    
0.0660677400    0.0196131660    0.0003741445    
0.0662904010    0.0200184710    0.0003825030    
0.0665130620    0.0192872780    0.0003738238    
0.0667357230    0.0194688590    0.0003822571    
0.0669583840    0.0201514170    0.0003875989    
0.0671810450    0.0209175050    0.0003927175    
0.0674037060    0.0194743640    0.0003853478    
0.0676263670    0.0198439500    0.0003861392    
0.0678490280    0.0200176170    0.0003854534    
0.0680716890    0.0191898110    0.0003782391    
0.0682943500    0.0189467820    0.0003717200    
0.0685170110    0.0194771670    0.0003730464    
0.0687396720    0.0194590940    0.0003718826    
0.0689623330    0.0197102490    0.0003730888    
0.0691849940    0.0192611320    0.0003713690    
0.0694076550    0.0202133350    0.0003802348    
0.0696303160    0.0198100590    0.0003734425    
0.0698529770    0.0198252540    0.0003728027    
0.0700756380    0.0193673530    0.0003637422    
0.0702982990    0.0197844990    0.0003716423    
0.0705209600    0.0203668200    0.0003743496    
0.0707436210    0.0191370870    0.0003612057    
0.0709662820    0.0198404230    0.0003721679    
0.0711889430    0.0191993960    0.0003616097    
0.0714116040    0.0194488290    0.0003646940    
0.0716342650    0.0198406470    0.0003668537    
0.0718569260    0.0203809230    0.0003703175    
0.0720795870    0.0190063710    0.0003590584    
0.0723022480    0.0196222550    0.0003653855    
0.0725249090    0.0191218740    0.0003563770    
0.0727475700    0.0198417600    0.0003661240    
0.0729702310    0.0198057590    0.0003628743    
0.0731928920    0.0193210250    0.0003598387    
0.0734155530    0.0201451210    0.0003666995    
0.0736382140    0.0200455350    0.0003634445    
0.0738608750    0.0196578980    0.0003622384    
0.0740835360    0.0204570720    0.0003686108    
0.0743061970    0.0195751140    0.0003555001    
0.0745288580    0.0195777770    0.0003591799    
0.0747515190    0.0198139620    0.0003620536    
0.0749741800    0.0194098800    0.0003550258    
0.0751968410    0.0188319910    0.0003524465    
0.0754195020    0.0192834380    0.0003545565    
0.0756421630    0.0206945410    0.0003642976    
0.0758648240    0.0191832060    0.0003515862    
0.0760874850    0.0198278620    0.0003572733    
0.0763101460    0.0199954400    0.0003584356    
0.0765328070    0.0200919780    0.0003629763    
0.0767554680    0.0199625420    0.0003593502    
0.0769781290    0.0196314580    0.0003543100    
0.0772007900    0.0196072760    0.0003512518    
0.0774234510    0.0195954840    0.0003531434    
0.0776461120    0.0192915370    0.0003500616    
0.0778687730    0.0199972420    0.0003552295    
0.0780914340    0.0204888620    0.0003621388    
0.0783140950    0.0192115440    0.0003451052    
0.0785367560    0.0195992100    0.0003541897    
0.0787594170    0.0195199030    0.0003503054    
0.0789820780    0.0196999400    0.0003501140    
0.0792047390    0.0197412840    0.0003516271    
0.0794274000    0.0200731500    0.0003560726    
0.0796500610    0.0193859350    0.0003465091    
0.0798727220    0.0194181660    0.0003464769    
0.0800953830    0.0194151080    0.0003456528    
0.0803180440    0.0195118350    0.0003489267    
0.0805407050    0.0196997770    0.0003502771    
0.0807633660    0.0200300040    0.0003528729    
0.0809860270    0.0195059260    0.0003469400    
0.0812086880    0.0196311650    0.0003450442    
0.0814313490    0.0194801550    0.0003452821    
0.0816540100    0.0199459490    0.0003485903    
0.0818766710    0.0199147370    0.0003491128    
0.0820993320    0.0195800110    0.0003455356    
0.0823219930    0.0187765910    0.0003397678    
0.0825446540    0.0195348010    0.0003440420    
0.0827673150    0.0191715760    0.0003385387    
0.0829899760    0.0186744900    0.0003335262    
0.0832126370    0.0194311580    0.0003417400    
0.0834352980    0.0191947770    0.0003388956    
0.0836579590    0.0195383090    0.0003411537    
0.0838806200    0.0195888510    0.0003426636    
0.0841032810    0.0189438440    0.0003348830    
0.0843259420    0.0194980700    0.0003387001    
0.0845486030    0.0198275780    0.0003415503    
0.0847712640    0.0202317870    0.0003429116    
0.0849939250    0.0196374270    0.0003384254    
0.0852165860    0.0191392330    0.0003345427    
0.0854392470    0.0197021710    0.0003362126    
0.0856619080    0.0194985640    0.0003369342    
0.0858845690    0.0189087710    0.0003288109    
0.0861072300    0.0201620300    0.0003418767    
0.0863298910    0.0201687090    0.0003437238    
0.0865525520    0.0201212720    0.0003403548    
0.0867752130    0.0201490710    0.0003378416    
0.0869978740    0.0203145330    0.0003400904    
0.0872205350    0.0202685530    0.0003392731    
0.0874431960    0.0195416640    0.0003331342    
0.0876658570    0.0192570850    0.0003319694    
0.0878885180    0.0190130870    0.0003304251    
0.0881111790    0.0196630990    0.0003355947    
0.0883338400    0.0200202450    0.0003336707    
0.0885565010    0.0191786390    0.0003310108    
0.0887791620    0.0194469740    0.0003289960    
0.0890018230    0.0204275340    0.0003404589    
0.0892244840    0.0194608080    0.0003328701    
0.0894471450    0.0198838950    0.0003350478    
0.0896698060    0.0195940960    0.0003313427    
0.0898924670    0.0194142350    0.0003313473    
0.0901151280    0.0189085610    0.0003234715    
0.0903377890    0.0194908370    0.0003311628    
0.0905604500    0.0198029650    0.0003322720    
0.0907831110    0.0194327310    0.0003283324    
0.0910057720    0.0199585980    0.0003342722    
0.0912284330    0.0198154300    0.0003283023    
0.0914510940    0.0188416960    0.0003237042    
0.0916737550    0.0194400140    0.0003279877    
0.0918964160    0.0198252400    0.0003325989    
0.0921190770    0.0197039680    0.0003285821    
0.0923417380    0.0198846550    0.0003302206    
0.0925643990    0.0190343720    0.0003222926    
0.0927870600    0.0195099210    0.0003276319    
0.0930097210    0.0197901840    0.0003271664    
0.0932323820    0.0195498250    0.0003275638    
