# Diamond Light Source Ltd.
# Data extracted from: /dls/b21/data/2018/cm19678-3/processed/b21-386631_00288.dat
q(1/A)          Column          Error           
0.0035000000    2.0954348000    0.0246949360    
0.0037226610    1.8856853000    0.0229331510    
0.0039453220    1.6078851000    0.0192647460    
0.0041679830    1.2898703000    0.0141701220    
0.0043906440    0.9587731500    0.0116854060    
0.0046133050    0.7812002900    0.0101258370    
0.0048359660    0.6032598100    0.0084168505    
0.0050586270    0.4544945200    0.0071808058    
0.0052812880    0.4334712900    0.0066304512    
0.0055039490    0.3839281000    0.0059333289    
0.0057266100    0.3224158900    0.0052601223    
0.0059492710    0.2722985700    0.0048340410    
0.0061719320    0.2259143000    0.0042429429    
0.0063945930    0.2001596800    0.0040421866    
0.0066172539    0.1854099100    0.0036530870    
0.0068399149    0.1772451700    0.0035154961    
0.0070625759    0.1517024600    0.0032189805    
0.0072852369    0.1277116600    0.0029093079    
0.0075078979    0.1174033300    0.0027757174    
0.0077305589    0.1050794400    0.0025759718    
0.0079532199    0.1020031300    0.0025028147    
0.0081758809    0.0938378210    0.0024228821    
0.0083985419    0.0871822150    0.0021781944    
0.0086212029    0.0785837320    0.0020679929    
0.0088438639    0.0738456450    0.0019885786    
0.0090665249    0.0655389900    0.0018093927    
0.0092891859    0.0667744350    0.0019062855    
0.0095118469    0.0636663170    0.0017900471    
0.0097345079    0.0582500590    0.0016629305    
0.0099571689    0.0542787600    0.0015721421    
0.0101798300    0.0501350050    0.0015109406    
0.0104024910    0.0482585040    0.0014773781    
0.0106251520    0.0510912760    0.0015252826    
0.0108478130    0.0469428180    0.0014238177    
0.0110704740    0.0457603990    0.0013383896    
0.0112931350    0.0414226910    0.0012771163    
0.0115157960    0.0429258240    0.0012925010    
0.0117384570    0.0402009520    0.0012400380    
0.0119611180    0.0419323310    0.0012700937    
0.0121837790    0.0382289570    0.0011923284    
0.0124064400    0.0358595770    0.0011066506    
0.0126291010    0.0373653320    0.0011155073    
0.0128517620    0.0359121880    0.0010963318    
0.0130744230    0.0338646540    0.0010567236    
0.0132970840    0.0324893900    0.0010299829    
0.0135197450    0.0339131160    0.0010372390    
0.0137424060    0.0327286580    0.0010047789    
0.0139650670    0.0327317920    0.0009824451    
0.0141877280    0.0321065470    0.0009751669    
0.0144103890    0.0324105890    0.0009628796    
0.0146330500    0.0303057030    0.0009251763    
0.0148557110    0.0310603790    0.0009326978    
0.0150783720    0.0296125230    0.0009031735    
0.0153010330    0.0301756920    0.0008988667    
0.0155236940    0.0274102300    0.0008515944    
0.0157463550    0.0287680660    0.0008573171    
0.0159690160    0.0283472920    0.0008477947    
0.0161916770    0.0270510420    0.0008235183    
0.0164143380    0.0279715080    0.0008437563    
0.0166369990    0.0273251320    0.0008082378    
0.0168596600    0.0272920070    0.0008006310    
0.0170823210    0.0262213270    0.0007779748    
0.0173049820    0.0254087470    0.0007671494    
0.0175276430    0.0269881930    0.0007989709    
0.0177503040    0.0277636740    0.0007897101    
0.0179729650    0.0250798540    0.0007431272    
0.0181956260    0.0245511230    0.0007211567    
0.0184182870    0.0266284630    0.0007475070    
0.0186409480    0.0249903340    0.0007287329    
0.0188636090    0.0247189520    0.0007202071    
0.0190862700    0.0258131360    0.0007348238    
0.0193089310    0.0252739610    0.0007259756    
0.0195315920    0.0254327330    0.0007034856    
0.0197542530    0.0240237040    0.0006847167    
0.0199769140    0.0248433680    0.0006962998    
0.0201995750    0.0241470440    0.0006757227    
0.0204222360    0.0239478550    0.0006787064    
0.0206448970    0.0244430200    0.0006808139    
0.0208675580    0.0245199110    0.0006678423    
0.0210902190    0.0242536730    0.0006706156    
0.0213128800    0.0237082010    0.0006540349    
0.0215355410    0.0232171620    0.0006395160    
0.0217582020    0.0235518640    0.0006441093    
0.0219808630    0.0241401190    0.0006512475    
0.0222035240    0.0231352860    0.0006317722    
0.0224261850    0.0230472870    0.0006249573    
0.0226488460    0.0222517380    0.0006094651    
0.0228715070    0.0224901300    0.0006111990    
0.0230941680    0.0216430210    0.0005995780    
0.0233168290    0.0226690900    0.0006151545    
0.0235394900    0.0230041400    0.0006128448    
0.0237621510    0.0209319570    0.0005688536    
0.0239848120    0.0236765730    0.0006056994    
0.0242074730    0.0238327350    0.0006028294    
0.0244301340    0.0223741520    0.0005847578    
0.0246527950    0.0222144380    0.0005880623    
0.0248754560    0.0232055610    0.0005875296    
0.0250981170    0.0228310310    0.0005840686    
0.0253207780    0.0203911360    0.0005354975    
0.0255434390    0.0223226460    0.0005662656    
0.0257661000    0.0221492260    0.0005658863    
0.0259887610    0.0224027200    0.0005630673    
0.0262114220    0.0224847400    0.0005671025    
0.0264340830    0.0216961370    0.0005494894    
0.0266567440    0.0221710870    0.0005520391    
0.0268794050    0.0219768450    0.0005473723    
0.0271020660    0.0220426800    0.0005459723    
0.0273247270    0.0220325690    0.0005425688    
0.0275473880    0.0211464920    0.0005304890    
0.0277700490    0.0211602550    0.0005275248    
0.0279927100    0.0209347660    0.0005201284    
0.0282153710    0.0221305170    0.0005373765    
0.0284380320    0.0209589390    0.0005199273    
0.0286606930    0.0215905760    0.0005231870    
0.0288833540    0.0218635730    0.0005274843    
0.0291060150    0.0217458850    0.0005255635    
0.0293286760    0.0213046300    0.0005129552    
0.0295513370    0.0217977250    0.0005132074    
0.0297739980    0.0217245700    0.0005179863    
0.0299966590    0.0215734910    0.0005073658    
0.0302193200    0.0210277280    0.0005082068    
0.0304419810    0.0208339780    0.0005067910    
0.0306646420    0.0211297490    0.0004959707    
0.0308873030    0.0209591490    0.0004918308    
0.0311099640    0.0216366020    0.0005010137    
0.0313326250    0.0211825670    0.0004902374    
0.0315552860    0.0211996470    0.0004967909    
0.0317779470    0.0206534900    0.0004907769    
0.0320006080    0.0211290450    0.0004851167    
0.0322232690    0.0205874930    0.0004808640    
0.0324459300    0.0205357280    0.0004766736    
0.0326685910    0.0213392940    0.0004851093    
0.0328912520    0.0207370790    0.0004797988    
0.0331139130    0.0209256320    0.0004757054    
0.0333365740    0.0218780930    0.0004879906    
0.0335592350    0.0205732530    0.0004686646    
0.0337818960    0.0212440200    0.0004758642    
0.0340045570    0.0215697340    0.0004787368    
0.0342272170    0.0209571500    0.0004700283    
0.0344498780    0.0211553660    0.0004741163    
0.0346725390    0.0206349240    0.0004595763    
0.0348952000    0.0213398900    0.0004652317    
0.0351178610    0.0205121230    0.0004582070    
0.0353405220    0.0205792250    0.0004568651    
0.0355631830    0.0209781530    0.0004595348    
0.0357858440    0.0200319340    0.0004490517    
0.0360085050    0.0207506750    0.0004584176    
0.0362311660    0.0198252060    0.0004427520    
0.0364538270    0.0211915020    0.0004540804    
0.0366764880    0.0204515140    0.0004457583    
0.0368991490    0.0208613870    0.0004479333    
0.0371218100    0.0202544790    0.0004401068    
0.0373444710    0.0208055180    0.0004509109    
0.0375671320    0.0201992980    0.0004436461    
0.0377897930    0.0205724240    0.0004361345    
0.0380124540    0.0204475320    0.0004375368    
0.0382351150    0.0210748290    0.0004441977    
0.0384577760    0.0202660770    0.0004313885    
0.0386804370    0.0206138680    0.0004383945    
0.0389030980    0.0196325030    0.0004245920    
0.0391257590    0.0203995100    0.0004298684    
0.0393484200    0.0211441890    0.0004361713    
0.0395710810    0.0207861940    0.0004330457    
0.0397937420    0.0210658840    0.0004359496    
0.0400164030    0.0201370950    0.0004279648    
0.0402390640    0.0198080400    0.0004188018    
0.0404617250    0.0201963090    0.0004203917    
0.0406843860    0.0202370470    0.0004167497    
0.0409070470    0.0211690730    0.0004306787    
0.0411297080    0.0203060220    0.0004177274    
0.0413523690    0.0210932190    0.0004268448    
0.0415750300    0.0202056150    0.0004213162    
0.0417976910    0.0206661950    0.0004150709    
0.0420203520    0.0207377980    0.0004173516    
0.0422430130    0.0202180770    0.0004136488    
0.0424656740    0.0206597730    0.0004127005    
0.0426883350    0.0199661340    0.0004077269    
0.0429109960    0.0201581190    0.0004109625    
0.0431336570    0.0203026140    0.0004066220    
0.0433563180    0.0203727190    0.0004108372    
0.0435789790    0.0201790810    0.0004024563    
0.0438016400    0.0209591160    0.0004123925    
0.0440243010    0.0200191890    0.0003989501    
0.0442469620    0.0196885540    0.0003980126    
0.0444696230    0.0199550100    0.0003992599    
0.0446922840    0.0205513600    0.0004039787    
0.0449149450    0.0202297280    0.0003954469    
0.0451376060    0.0205502840    0.0004034901    
0.0453602670    0.0200130750    0.0003940070    
0.0455829280    0.0199436010    0.0003928677    
0.0458055890    0.0195739970    0.0003914799    
0.0460282500    0.0198842470    0.0003898123    
0.0462509110    0.0198942750    0.0003874855    
0.0464735720    0.0202265280    0.0003909283    
0.0466962330    0.0201897300    0.0003923481    
0.0469188940    0.0205682100    0.0003948859    
0.0471415550    0.0200523820    0.0003919053    
0.0473642160    0.0203436620    0.0003892143    
0.0475868770    0.0202599970    0.0003864835    
0.0478095380    0.0195641850    0.0003781269    
0.0480321990    0.0202592550    0.0003856283    
0.0482548600    0.0206288420    0.0003874345    
0.0484775210    0.0198233630    0.0003835662    
0.0487001820    0.0202921140    0.0003823939    
0.0489228430    0.0198168210    0.0003776860    
0.0491455040    0.0197708170    0.0003746382    
0.0493681650    0.0197293350    0.0003774610    
0.0495908260    0.0201809380    0.0003753335    
0.0498134870    0.0200476570    0.0003776532    
0.0500361480    0.0210527330    0.0003859802    
0.0502588090    0.0201313260    0.0003717837    
0.0504814700    0.0204215260    0.0003793490    
0.0507041310    0.0198424920    0.0003694865    
0.0509267920    0.0194728400    0.0003675429    
0.0511494530    0.0201654760    0.0003715285    
0.0513721140    0.0201390830    0.0003745550    
0.0515947750    0.0208905050    0.0003764208    
0.0518174360    0.0198220450    0.0003644596    
0.0520400970    0.0197926330    0.0003616639    
0.0522627580    0.0201640840    0.0003681441    
0.0524854190    0.0201585890    0.0003710868    
0.0527080800    0.0204233930    0.0003764081    
0.0529307410    0.0198243880    0.0003725888    
0.0531534020    0.0201738750    0.0003744904    
0.0533760630    0.0204332870    0.0003780702    
0.0535987240    0.0201181920    0.0003733924    
0.0538213850    0.0196155110    0.0003729697    
0.0540440460    0.0203715920    0.0003782910    
0.0542667070    0.0201904270    0.0003792006    
0.0544893680    0.0202262070    0.0003797386    
0.0547120290    0.0197812580    0.0003729658    
0.0549346900    0.0202948420    0.0003779752    
0.0551573510    0.0206241420    0.0003855148    
0.0553800120    0.0202395490    0.0003786567    
0.0556026730    0.0198622860    0.0003828886    
0.0558253340    0.0196859640    0.0003843771    
0.0560479950    0.0204965390    0.0003922109    
0.0562706560    0.0202061920    0.0003931880    
0.0564933170    0.0199203230    0.0003937869    
0.0567159780    0.0193543250    0.0003834984    
0.0569386390    0.0195664550    0.0003916425    
0.0571613000    0.0194609270    0.0003821750    
0.0573839610    0.0203126900    0.0003872070    
0.0576066220    0.0202323380    0.0003875102    
0.0578292830    0.0205262960    0.0003890236    
0.0580519440    0.0202771260    0.0003881545    
0.0582746050    0.0202312570    0.0003860055    
0.0584972660    0.0198354890    0.0003807483    
0.0587199270    0.0199978040    0.0003790074    
0.0589425880    0.0206377710    0.0003827721    
0.0591652490    0.0201343260    0.0003802993    
0.0593879100    0.0197160700    0.0003735337    
0.0596105710    0.0201123340    0.0003768708    
0.0598332320    0.0199332610    0.0003783963    
0.0600558930    0.0196018830    0.0003728454    
0.0602785540    0.0195958470    0.0003723939    
0.0605012150    0.0200207480    0.0003756165    
0.0607238760    0.0196675090    0.0003695751    
0.0609465370    0.0191741830    0.0003677834    
0.0611691980    0.0202257750    0.0003783329    
0.0613918590    0.0196688660    0.0003690147    
0.0616145200    0.0199016320    0.0003739086    
0.0618371810    0.0198019100    0.0003693075    
0.0620598420    0.0196011970    0.0003678099    
0.0622825030    0.0200060870    0.0003772719    
0.0625051640    0.0199183830    0.0003711571    
0.0627278250    0.0195333790    0.0003667957    
0.0629504860    0.0192780560    0.0003614283    
0.0631731470    0.0196191340    0.0003691226    
0.0633958080    0.0193327850    0.0003685278    
0.0636184690    0.0200772600    0.0003807869    
0.0638411300    0.0203783890    0.0003821919    
0.0640637910    0.0198010320    0.0003793886    
0.0642864520    0.0187166300    0.0003680556    
0.0645091130    0.0199593670    0.0003834088    
0.0647317740    0.0199000630    0.0003832609    
0.0649544350    0.0193628400    0.0003776363    
0.0651770960    0.0200045080    0.0003817487    
0.0653997570    0.0197945300    0.0003789164    
0.0656224180    0.0197131550    0.0003789590    
0.0658450790    0.0202899470    0.0003789371    
0.0660677400    0.0192639320    0.0003708032    
0.0662904010    0.0193611820    0.0003761758    
0.0665130620    0.0199905910    0.0003805833    
0.0667357230    0.0199947410    0.0003873902    
0.0669583840    0.0200028220    0.0003861721    
0.0671810450    0.0193548990    0.0003777690    
0.0674037060    0.0196883670    0.0003874642    
0.0676263670    0.0200398190    0.0003880452    
0.0678490280    0.0195505170    0.0003809346    
0.0680716890    0.0195034270    0.0003813222    
0.0682943500    0.0203839890    0.0003855656    
0.0685170110    0.0196134210    0.0003743537    
0.0687396720    0.0199002370    0.0003760791    
0.0689623330    0.0200144270    0.0003759614    
0.0691849940    0.0200134690    0.0003785572    
0.0694076550    0.0203569050    0.0003815877    
0.0696303160    0.0196556830    0.0003719893    
0.0698529770    0.0193560540    0.0003683695    
0.0700756380    0.0201329950    0.0003708671    
0.0702982990    0.0194219750    0.0003682263    
0.0705209600    0.0204911940    0.0003754957    
0.0707436210    0.0195875490    0.0003654368    
0.0709662820    0.0200782930    0.0003743970    
0.0711889430    0.0195199960    0.0003646210    
0.0714116040    0.0199895830    0.0003697339    
0.0716342650    0.0189661060    0.0003586820    
0.0718569260    0.0190020440    0.0003575757    
0.0720795870    0.0197055360    0.0003656076    
0.0723022480    0.0197996590    0.0003670382    
0.0725249090    0.0194212520    0.0003591605    
0.0727475700    0.0198152410    0.0003658839    
0.0729702310    0.0192876700    0.0003581013    
0.0731928920    0.0196633130    0.0003630167    
0.0734155530    0.0192912130    0.0003588481    
0.0736382140    0.0196506600    0.0003598515    
0.0738608750    0.0198319530    0.0003638431    
0.0740835360    0.0196871120    0.0003616121    
0.0743061970    0.0192915330    0.0003529201    
0.0745288580    0.0193674020    0.0003572495    
0.0747515190    0.0196821490    0.0003608519    
0.0749741800    0.0196116850    0.0003568711    
0.0751968410    0.0198746870    0.0003620768    
0.0754195020    0.0192774100    0.0003545055    
0.0756421630    0.0193162510    0.0003519617    
0.0758648240    0.0197507640    0.0003567538    
0.0760874850    0.0202661360    0.0003612049    
0.0763101460    0.0186530330    0.0003461991    
0.0765328070    0.0195875540    0.0003583955    
0.0767554680    0.0197948580    0.0003578423    
0.0769781290    0.0192226910    0.0003506063    
0.0772007900    0.0193686560    0.0003491123    
0.0774234510    0.0194623310    0.0003519461    
0.0776461120    0.0203020490    0.0003591174    
0.0778687730    0.0193225350    0.0003491898    
0.0780914340    0.0201949410    0.0003595364    
0.0783140950    0.0196335940    0.0003488798    
0.0785367560    0.0197917370    0.0003559297    
0.0787594170    0.0198850320    0.0003535711    
0.0789820780    0.0203413590    0.0003557726    
0.0792047390    0.0190215120    0.0003451617    
0.0794274000    0.0198273190    0.0003538900    
0.0796500610    0.0201296780    0.0003530979    
0.0798727220    0.0196164940    0.0003482462    
0.0800953830    0.0198833000    0.0003498001    
0.0803180440    0.0193001740    0.0003470334    
0.0805407050    0.0192331520    0.0003461081    
0.0807633660    0.0194150510    0.0003474182    
0.0809860270    0.0189448650    0.0003419183    
0.0812086880    0.0194739810    0.0003436644    
0.0814313490    0.0196887380    0.0003471302    
0.0816540100    0.0199830110    0.0003489185    
0.0818766710    0.0193827830    0.0003444230    
0.0820993320    0.0198610150    0.0003480107    
0.0823219930    0.0194964270    0.0003462238    
0.0825446540    0.0203290710    0.0003509710    
0.0827673150    0.0195247770    0.0003416473    
0.0829899760    0.0196578580    0.0003421994    
0.0832126370    0.0199725890    0.0003464728    
0.0834352980    0.0193209210    0.0003400116    
0.0836579590    0.0194137110    0.0003400685    
0.0838806200    0.0189719370    0.0003372289    
0.0841032810    0.0197317000    0.0003417802    
0.0843259420    0.0189572660    0.0003339742    
0.0845486030    0.0192573640    0.0003366075    
0.0847712640    0.0196394560    0.0003378589    
0.0849939250    0.0201686810    0.0003429770    
0.0852165860    0.0193677830    0.0003365385    
0.0854392470    0.0202649510    0.0003409849    
0.0856619080    0.0193826140    0.0003359351    
0.0858845690    0.0204187900    0.0003416922    
0.0861072300    0.0193335480    0.0003347832    
0.0863298910    0.0192963750    0.0003362126    
0.0865525520    0.0192927320    0.0003332779    
0.0867752130    0.0193848400    0.0003313769    
0.0869978740    0.0199107990    0.0003366983    
0.0872205350    0.0198999210    0.0003361780    
0.0874431960    0.0195535200    0.0003332395    
0.0876658570    0.0194693230    0.0003337980    
0.0878885180    0.0191169370    0.0003313305    
0.0881111790    0.0192111020    0.0003317193    
0.0883338400    0.0196147780    0.0003302788    
0.0885565010    0.0201103750    0.0003389603    
0.0887791620    0.0193973750    0.0003285803    
0.0890018230    0.0193896270    0.0003317011    
0.0892244840    0.0195524030    0.0003336568    
0.0894471450    0.0192859500    0.0003299758    
0.0896698060    0.0200260450    0.0003349793    
0.0898924670    0.0203648240    0.0003393666    
0.0901151280    0.0194181540    0.0003278055    
0.0903377890    0.0193506630    0.0003299740    
0.0905604500    0.0198257710    0.0003324675    
0.0907831110    0.0194276780    0.0003282939    
0.0910057720    0.0194720250    0.0003301766    
0.0912284330    0.0193427020    0.0003243667    
0.0914510940    0.0193371450    0.0003279367    
0.0916737550    0.0194349750    0.0003279493    
0.0918964160    0.0194797850    0.0003296926    
0.0921190770    0.0196387140    0.0003280417    
0.0923417380    0.0195999900    0.0003278526    
0.0925643990    0.0192149450    0.0003238218    
0.0927870600    0.0198075300    0.0003301255    
0.0930097210    0.0195905640    0.0003255163    
0.0932323820    0.0192210080    0.0003248015    
