# Diamond Light Source Ltd.
# Data extracted from: /dls/b21/data/2018/cm19678-3/processed/b21-386631_00287.dat
q(1/A)          Column          Error           
0.0035000000    2.1094179000    0.0247772750    
0.0037226610    1.8982482000    0.0230094920    
0.0039453220    1.6272843000    0.0193806750    
0.0041679830    1.2925250000    0.0141847410    
0.0043906440    0.9801424700    0.0118149500    
0.0046133050    0.7869803400    0.0101632610    
0.0048359660    0.6034985500    0.0084185428    
0.0050586270    0.4577876100    0.0072067966    
0.0052812880    0.4440218700    0.0067106793    
0.0055039490    0.3923665800    0.0059981990    
0.0057266100    0.3220746900    0.0052573551    
0.0059492710    0.2685243300    0.0048004379    
0.0061719320    0.2263141900    0.0042467100    
0.0063945930    0.1989364900    0.0040298296    
0.0066172539    0.1796529900    0.0035959377    
0.0068399149    0.1732021300    0.0034751810    
0.0070625759    0.1484248400    0.0031840268    
0.0072852369    0.1302309400    0.0029378721    
0.0075078979    0.1171415800    0.0027726304    
0.0077305589    0.0975653750    0.0024821697    
0.0079532199    0.1018809600    0.0025013234    
0.0081758809    0.0952147190    0.0024406009    
0.0083985419    0.0823937080    0.0021175375    
0.0086212029    0.0774958110    0.0020536349    
0.0088438639    0.0714898970    0.0019566090    
0.0090665249    0.0670879780    0.0018306558    
0.0092891859    0.0681898160    0.0019263890    
0.0095118469    0.0643210080    0.0017992330    
0.0097345079    0.0584403280    0.0016656495    
0.0099571689    0.0584684350    0.0016316949    
0.0101798300    0.0526398160    0.0015482299    
0.0104024910    0.0495252120    0.0014966467    
0.0106251520    0.0475397810    0.0014713193    
0.0108478130    0.0455611690    0.0014027124    
0.0110704740    0.0458389820    0.0013395426    
0.0112931350    0.0442973630    0.0013206922    
0.0115157960    0.0407077970    0.0012586696    
0.0117384570    0.0409279680    0.0012512045    
0.0119611180    0.0395089730    0.0012328508    
0.0121837790    0.0402001630    0.0012226861    
0.0124064400    0.0371234390    0.0011259871    
0.0126291010    0.0366995180    0.0011055275    
0.0128517620    0.0354438500    0.0010891631    
0.0130744230    0.0359092940    0.0010881604    
0.0132970840    0.0347752990    0.0010656046    
0.0135197450    0.0348333390    0.0010512208    
0.0137424060    0.0307854950    0.0009744978    
0.0139650670    0.0340884630    0.0010026018    
0.0141877280    0.0319290410    0.0009724706    
0.0144103890    0.0316670370    0.0009517735    
0.0146330500    0.0303906300    0.0009264747    
0.0148557110    0.0302203460    0.0009200019    
0.0150783720    0.0297779930    0.0009056963    
0.0153010330    0.0308184960    0.0009083930    
0.0155236940    0.0283364330    0.0008658655    
0.0157463550    0.0297646650    0.0008720433    
0.0159690160    0.0285756730    0.0008512057    
0.0161916770    0.0276027700    0.0008318768    
0.0164143380    0.0268008980    0.0008259146    
0.0166369990    0.0267993610    0.0008004268    
0.0168596600    0.0271512580    0.0007985664    
0.0170823210    0.0275602690    0.0007975929    
0.0173049820    0.0261501000    0.0007782630    
0.0175276430    0.0260658890    0.0007852026    
0.0177503040    0.0252480340    0.0007530857    
0.0179729650    0.0248157830    0.0007392069    
0.0181956260    0.0261612010    0.0007444306    
0.0184182870    0.0265866660    0.0007469225    
0.0186409480    0.0260317650    0.0007437647    
0.0188636090    0.0256004370    0.0007329384    
0.0190862700    0.0254786070    0.0007300490    
0.0193089310    0.0241063420    0.0007090101    
0.0195315920    0.0237594230    0.0006799517    
0.0197542530    0.0246093300    0.0006930144    
0.0199769140    0.0250191690    0.0006987613    
0.0201995750    0.0239013780    0.0006722788    
0.0204222360    0.0229285350    0.0006641072    
0.0206448970    0.0244431770    0.0006808183    
0.0208675580    0.0241198890    0.0006623744    
0.0210902190    0.0242723720    0.0006708762    
0.0213128800    0.0236722670    0.0006535412    
0.0215355410    0.0234286970    0.0006424248    
0.0217582020    0.0240276360    0.0006505847    
0.0219808630    0.0243335360    0.0006538533    
0.0222035240    0.0232734530    0.0006336579    
0.0224261850    0.0231321680    0.0006261091    
0.0226488460    0.0228361390    0.0006174185    
0.0228715070    0.0224902740    0.0006112029    
0.0230941680    0.0222245190    0.0006075812    
0.0233168290    0.0224021460    0.0006115238    
0.0235394900    0.0219757070    0.0005989910    
0.0237621510    0.0224471170    0.0005890840    
0.0239848120    0.0224371060    0.0005896341    
0.0242074730    0.0220945970    0.0005804327    
0.0244301340    0.0222520320    0.0005831617    
0.0246527950    0.0235378030    0.0006053270    
0.0248754560    0.0227445710    0.0005816664    
0.0250981170    0.0226518750    0.0005817743    
0.0253207780    0.0218678760    0.0005545509    
0.0255434390    0.0223227900    0.0005662692    
0.0257661000    0.0219325010    0.0005631127    
0.0259887610    0.0222896470    0.0005616463    
0.0262114220    0.0224276700    0.0005663842    
0.0264340830    0.0217101930    0.0005496692    
0.0266567440    0.0215389440    0.0005441140    
0.0268794050    0.0218815520    0.0005461860    
0.0271020660    0.0220969150    0.0005466453    
0.0273247270    0.0222598520    0.0005453619    
0.0275473880    0.0217454940    0.0005379517    
0.0277700490    0.0208710630    0.0005239093    
0.0279927100    0.0219687220    0.0005328198    
0.0282153710    0.0214782220    0.0005293993    
0.0284380320    0.0224552290    0.0005381683    
0.0286606930    0.0218315980    0.0005261008    
0.0288833540    0.0220800600    0.0005300911    
0.0291060150    0.0221651950    0.0005306081    
0.0293286760    0.0218111400    0.0005190187    
0.0295513370    0.0224986830    0.0005213955    
0.0297739980    0.0218235140    0.0005191662    
0.0299966590    0.0215020360    0.0005065265    
0.0302193200    0.0213840590    0.0005124963    
0.0304419810    0.0214874890    0.0005146796    
0.0306646420    0.0208854070    0.0004930963    
0.0308873030    0.0207977030    0.0004899345    
0.0311099640    0.0216367410    0.0005010170    
0.0313326250    0.0211600110    0.0004899779    
0.0315552860    0.0214675450    0.0004999216    
0.0317779470    0.0208518780    0.0004931300    
0.0320006080    0.0201044650    0.0004732100    
0.0322232690    0.0203292970    0.0004778406    
0.0324459300    0.0214652850    0.0004873442    
0.0326685910    0.0208762490    0.0004798187    
0.0328912520    0.0206595030    0.0004789020    
0.0331139130    0.0213150830    0.0004801133    
0.0333365740    0.0214319610    0.0004829910    
0.0335592350    0.0208296180    0.0004715771    
0.0337818960    0.0197518420    0.0004588491    
0.0340045570    0.0208154580    0.0004702933    
0.0342272170    0.0209678260    0.0004701495    
0.0344498780    0.0210386200    0.0004728078    
0.0346725390    0.0212287240    0.0004661434    
0.0348952000    0.0204981910    0.0004559659    
0.0351178610    0.0200311790    0.0004528049    
0.0353405220    0.0208329230    0.0004596740    
0.0355631830    0.0216829330    0.0004671918    
0.0357858440    0.0214514200    0.0004646911    
0.0360085050    0.0208723360    0.0004597609    
0.0362311660    0.0209130080    0.0004547381    
0.0364538270    0.0202186510    0.0004435365    
0.0366764880    0.0201504570    0.0004424666    
0.0368991490    0.0206403060    0.0004455550    
0.0371218100    0.0211726640    0.0004499733    
0.0373444710    0.0201118040    0.0004433312    
0.0375671320    0.0205404700    0.0004473785    
0.0377897930    0.0207667230    0.0004381906    
0.0380124540    0.0207940750    0.0004412303    
0.0382351150    0.0208502640    0.0004418262    
0.0384577760    0.0211110150    0.0004402908    
0.0386804370    0.0210708460    0.0004432286    
0.0389030980    0.0204682550    0.0004335366    
0.0391257590    0.0206985700    0.0004330093    
0.0393484200    0.0205324880    0.0004298172    
0.0395710810    0.0205066500    0.0004301253    
0.0397937420    0.0202450310    0.0004273729    
0.0400164030    0.0207829980    0.0004347755    
0.0402390640    0.0202243420    0.0004231812    
0.0404617250    0.0202314410    0.0004207585    
0.0406843860    0.0205633060    0.0004200970    
0.0409070470    0.0194606010    0.0004129353    
0.0411297080    0.0205209860    0.0004199340    
0.0413523690    0.0204887120    0.0004206853    
0.0415750300    0.0201003230    0.0004202184    
0.0417976910    0.0200911050    0.0004092562    
0.0420203520    0.0205867430    0.0004158302    
0.0422430130    0.0200743350    0.0004121771    
0.0424656740    0.0206021960    0.0004121264    
0.0426883350    0.0197997370    0.0004060257    
0.0429109960    0.0197477110    0.0004067588    
0.0431336570    0.0204981980    0.0004085772    
0.0433563180    0.0202568600    0.0004096686    
0.0435789790    0.0199384090    0.0004000504    
0.0438016400    0.0202776490    0.0004056341    
0.0440243010    0.0202975840    0.0004017158    
0.0442469620    0.0208070810    0.0004091635    
0.0444696230    0.0201708260    0.0004014144    
0.0446922840    0.0204959040    0.0004034346    
0.0449149450    0.0206859380    0.0003998823    
0.0451376060    0.0206375610    0.0004043473    
0.0453602670    0.0205484400    0.0003992435    
0.0455829280    0.0196032070    0.0003895019    
0.0458055890    0.0198011820    0.0003937465    
0.0460282500    0.0205874350    0.0003966463    
0.0462509110    0.0200679880    0.0003891748    
0.0464735720    0.0206724450    0.0003952153    
0.0466962330    0.0204338460    0.0003947142    
0.0469188940    0.0203105740    0.0003924062    
0.0471415550    0.0208950530    0.0004000565    
0.0473642160    0.0198001990    0.0003839816    
0.0475868770    0.0204444440    0.0003882401    
0.0478095380    0.0210040450    0.0003917956    
0.0480321990    0.0196281150    0.0003795752    
0.0482548600    0.0204397840    0.0003856563    
0.0484775210    0.0203727000    0.0003888458    
0.0487001820    0.0197373780    0.0003771320    
0.0489228430    0.0201408720    0.0003807627    
0.0491455040    0.0198561330    0.0003754468    
0.0493681650    0.0206177210    0.0003858670    
0.0495908260    0.0197273250    0.0003710925    
0.0498134870    0.0204461800    0.0003813896    
0.0500361480    0.0201966000    0.0003780518    
0.0502588090    0.0201108560    0.0003715959    
0.0504814700    0.0196958350    0.0003725491    
0.0507041310    0.0201866320    0.0003726781    
0.0509267920    0.0201528190    0.0003739063    
0.0511494530    0.0205831550    0.0003753576    
0.0513721140    0.0195819180    0.0003693387    
0.0515947750    0.0205786360    0.0003736017    
0.0518174360    0.0206330190    0.0003718416    
0.0520400970    0.0198191940    0.0003619077    
0.0522627580    0.0199088010    0.0003658075    
0.0524854190    0.0195644080    0.0003655781    
0.0527080800    0.0199309730    0.0003718439    
0.0529307410    0.0200275920    0.0003744947    
0.0531534020    0.0201461980    0.0003742346    
0.0533760630    0.0201745900    0.0003756705    
0.0535987240    0.0203331570    0.0003753831    
0.0538213850    0.0199347640    0.0003759938    
0.0540440460    0.0206667610    0.0003810229    
0.0542667070    0.0202404090    0.0003796708    
0.0544893680    0.0203903150    0.0003812773    
0.0547120290    0.0201048630    0.0003760054    
0.0549346900    0.0197599680    0.0003729624    
0.0551573510    0.0190965500    0.0003709642    
0.0553800120    0.0201404990    0.0003777303    
0.0556026730    0.0199436050    0.0003836728    
0.0558253340    0.0202264640    0.0003896194    
0.0560479950    0.0198212040    0.0003856966    
0.0562706560    0.0201221600    0.0003923708    
0.0564933170    0.0201695540    0.0003962439    
0.0567159780    0.0196356090    0.0003862764    
0.0569386390    0.0197233640    0.0003932110    
0.0571613000    0.0197462510    0.0003849676    
0.0573839610    0.0196263770    0.0003806107    
0.0576066220    0.0204402850    0.0003894978    
0.0578292830    0.0191845420    0.0003760952    
0.0580519440    0.0202252440    0.0003876588    
0.0582746050    0.0195390860    0.0003793461    
0.0584972660    0.0203326030    0.0003854912    
0.0587199270    0.0195382100    0.0003746281    
0.0589425880    0.0201125490    0.0003778712    
0.0591652490    0.0195167020    0.0003744222    
0.0593879100    0.0192137370    0.0003687457    
0.0596105710    0.0194345150    0.0003704670    
0.0598332320    0.0203212820    0.0003820627    
0.0600558930    0.0201551770    0.0003780720    
0.0602785540    0.0194898190    0.0003713863    
0.0605012150    0.0204930340    0.0003800223    
0.0607238760    0.0201815500    0.0003743749    
0.0609465370    0.0199926350    0.0003755520    
0.0611691980    0.0198791340    0.0003750780    
0.0613918590    0.0198420740    0.0003706372    
0.0616145200    0.0196629110    0.0003716605    
0.0618371810    0.0196229580    0.0003676362    
0.0620598420    0.0202984120    0.0003742955    
0.0622825030    0.0197216320    0.0003745814    
0.0625051640    0.0190954890    0.0003634106    
0.0627278250    0.0197883490    0.0003691830    
0.0629504860    0.0199761240    0.0003679150    
0.0631731470    0.0193275750    0.0003663707    
0.0633958080    0.0201688890    0.0003764137    
0.0636184690    0.0198173940    0.0003783158    
0.0638411300    0.0200989690    0.0003795638    
0.0640637910    0.0201210020    0.0003824429    
0.0642864520    0.0197372680    0.0003779588    
0.0645091130    0.0196427940    0.0003803573    
0.0647317740    0.0197968520    0.0003822669    
0.0649544350    0.0192377570    0.0003764158    
0.0651770960    0.0197788010    0.0003795902    
0.0653997570    0.0198962050    0.0003798895    
0.0656224180    0.0201066730    0.0003827240    
0.0658450790    0.0198937590    0.0003752204    
0.0660677400    0.0193068800    0.0003712175    
0.0662904010    0.0202603030    0.0003848126    
0.0665130620    0.0194617880    0.0003755171    
0.0667357230    0.0199348240    0.0003868106    
0.0669583840    0.0197420100    0.0003836475    
0.0671810450    0.0191928100    0.0003761850    
0.0674037060    0.0193301050    0.0003839240    
0.0676263670    0.0191908610    0.0003797380    
0.0678490280    0.0195061080    0.0003805029    
0.0680716890    0.0200701700    0.0003868241    
0.0682943500    0.0200194670    0.0003821038    
0.0685170110    0.0205495670    0.0003831848    
0.0687396720    0.0200638320    0.0003776230    
0.0689623330    0.0204171070    0.0003797258    
0.0691849940    0.0197701410    0.0003762500    
0.0694076550    0.0199421700    0.0003776818    
0.0696303160    0.0198881310    0.0003741836    
0.0698529770    0.0198328960    0.0003728805    
0.0700756380    0.0202492640    0.0003719376    
0.0702982990    0.0188635920    0.0003628956    
0.0705209600    0.0192458820    0.0003639080    
0.0707436210    0.0191854220    0.0003616674    
0.0709662820    0.0200574770    0.0003742041    
0.0711889430    0.0199355880    0.0003684832    
0.0714116040    0.0202495840    0.0003721319    
0.0716342650    0.0197259620    0.0003657977    
0.0718569260    0.0195135560    0.0003623576    
0.0720795870    0.0196581790    0.0003651692    
0.0723022480    0.0195072120    0.0003643186    
0.0725249090    0.0201918550    0.0003662178    
0.0727475700    0.0189505990    0.0003578133    
0.0729702310    0.0195537400    0.0003605640    
0.0731928920    0.0196567370    0.0003629572    
0.0734155530    0.0196985240    0.0003626178    
0.0736382140    0.0194992200    0.0003584634    
0.0738608750    0.0193915160    0.0003597814    
0.0740835360    0.0201920390    0.0003662211    
0.0743061970    0.0197758850    0.0003573242    
0.0745288580    0.0197760960    0.0003610003    
0.0747515190    0.0201255400    0.0003648950    
0.0749741800    0.0200923660    0.0003612193    
0.0751968410    0.0190898480    0.0003548569    
0.0754195020    0.0203010610    0.0003637973    
0.0756421630    0.0193676800    0.0003524310    
0.0758648240    0.0198024430    0.0003572214    
0.0760874850    0.0190559550    0.0003502554    
0.0763101460    0.0195013150    0.0003539847    
0.0765328070    0.0197712940    0.0003600737    
0.0767554680    0.0198596740    0.0003584288    
0.0769781290    0.0199198500    0.0003569086    
0.0772007900    0.0200609720    0.0003552981    
0.0774234510    0.0193351670    0.0003507955    
0.0776461120    0.0199718550    0.0003561863    
0.0778687730    0.0193163490    0.0003491350    
0.0780914340    0.0203166890    0.0003606197    
0.0783140950    0.0190819680    0.0003439449    
0.0785367560    0.0201183150    0.0003588553    
0.0787594170    0.0194576570    0.0003497520    
0.0789820780    0.0193209930    0.0003467358    
0.0792047390    0.0192596390    0.0003473166    
0.0794274000    0.0196948000    0.0003527066    
0.0796500610    0.0200616750    0.0003525021    
0.0798727220    0.0194991550    0.0003472042    
0.0800953830    0.0202526650    0.0003530354    
0.0803180440    0.0203111760    0.0003560079    
0.0805407050    0.0197128620    0.0003503990    
0.0807633660    0.0197571010    0.0003504663    
0.0809860270    0.0193029040    0.0003451352    
0.0812086880    0.0192315130    0.0003415194    
0.0814313490    0.0196276620    0.0003465924    
0.0816540100    0.0193068800    0.0003429659    
0.0818766710    0.0200438970    0.0003502487    
0.0820993320    0.0198062610    0.0003475317    
0.0823219930    0.0196010750    0.0003471528    
0.0825446540    0.0196081360    0.0003446927    
0.0827673150    0.0196444670    0.0003426940    
0.0829899760    0.0198724350    0.0003440631    
0.0832126370    0.0192394420    0.0003400554    
0.0834352980    0.0193569460    0.0003403296    
0.0836579590    0.0189730180    0.0003361876    
0.0838806200    0.0198652140    0.0003450778    
0.0841032810    0.0197791870    0.0003421923    
0.0843259420    0.0188750160    0.0003332500    
0.0845486030    0.0188809280    0.0003333024    
0.0847712640    0.0198197620    0.0003394074    
0.0849939250    0.0199880030    0.0003414384    
0.0852165860    0.0193854500    0.0003366930    
0.0854392470    0.0194388720    0.0003339638    
0.0856619080    0.0198776410    0.0003401990    
0.0858845690    0.0199729180    0.0003379420    
0.0861072300    0.0192409170    0.0003339813    
0.0863298910    0.0192847830    0.0003361126    
0.0865525520    0.0196152670    0.0003360533    
0.0867752130    0.0191753670    0.0003295826    
0.0869978740    0.0197344220    0.0003352047    
0.0872205350    0.0191447090    0.0003297383    
0.0874431960    0.0188778150    0.0003274321    
0.0876658570    0.0194351100    0.0003335056    
0.0878885180    0.0196166640    0.0003356342    
0.0881111790    0.0192856880    0.0003323637    
0.0883338400    0.0202210920    0.0003353456    
0.0885565010    0.0197162920    0.0003356238    
0.0887791620    0.0196257050    0.0003305096    
0.0890018230    0.0193216580    0.0003311203    
0.0892244840    0.0194158770    0.0003324909    
0.0894471450    0.0194893220    0.0003317121    
0.0896698060    0.0195611000    0.0003310689    
0.0898924670    0.0194205090    0.0003314061    
0.0901151280    0.0194957520    0.0003284609    
0.0903377890    0.0193507870    0.0003299761    
0.0905604500    0.0192460630    0.0003275718    
0.0907831110    0.0194056120    0.0003281085    
0.0910057720    0.0194497550    0.0003299888    
0.0912284330    0.0189566220    0.0003211142    
0.0914510940    0.0199545930    0.0003331322    
0.0916737550    0.0197726690    0.0003307873    
0.0918964160    0.0189553860    0.0003252257    
0.0921190770    0.0194634930    0.0003265760    
0.0923417380    0.0187939550    0.0003210415    
0.0925643990    0.0194824750    0.0003260694    
0.0927870600    0.0194775290    0.0003273650    
0.0930097210    0.0192932050    0.0003230374    
0.0932323820    0.0196218000    0.0003281715    
