# Diamond Light Source Ltd.
# Data extracted from: /dls/b21/data/2018/cm19678-3/processed/b21-386631_00291.dat
q(1/A)          Column          Error           
0.0035000000    2.1041084000    0.0247439450    
0.0037226610    1.8859308000    0.0229327460    
0.0039453220    1.6828535000    0.0197071110    
0.0041679830    1.2803182000    0.0141163870    
0.0043906440    0.9831066500    0.0118317840    
0.0046133050    0.7902569400    0.0101835210    
0.0048359660    0.6038644300    0.0084203703    
0.0050586270    0.4608850600    0.0072305147    
0.0052812880    0.4244760000    0.0065607506    
0.0055039490    0.3857898200    0.0059472049    
0.0057266100    0.3175575400    0.0052199084    
0.0059492710    0.2762862400    0.0048689052    
0.0061719320    0.2299402900    0.0042802281    
0.0063945930    0.1986574200    0.0040266559    
0.0066172539    0.1852352900    0.0036510640    
0.0068399149    0.1678740000    0.0034210167    
0.0070625759    0.1535212400    0.0032379513    
0.0072852369    0.1341181100    0.0029811386    
0.0075078979    0.1151530100    0.0027487595    
0.0077305589    0.1053777400    0.0025794120    
0.0079532199    0.1035212600    0.0025211620    
0.0081758809    0.0956987310    0.0024465859    
0.0083985419    0.0866236630    0.0021710259    
0.0086212029    0.0755780700    0.0020278913    
0.0088438639    0.0724413460    0.0019694167    
0.0090665249    0.0682751270    0.0018466231    
0.0092891859    0.0638795510    0.0018643515    
0.0095118469    0.0630016070    0.0017805307    
0.0097345079    0.0590947980    0.0016748063    
0.0099571689    0.0545884720    0.0015764905    
0.0101798300    0.0516291400    0.0015331631    
0.0104024910    0.0512350830    0.0015221326    
0.0106251520    0.0476681910    0.0014731784    
0.0108478130    0.0479713310    0.0014392119    
0.0110704740    0.0443829780    0.0013179833    
0.0112931350    0.0441716400    0.0013187033    
0.0115157960    0.0403895090    0.0012536315    
0.0117384570    0.0390852240    0.0012226078    
0.0119611180    0.0416946070    0.0012663835    
0.0121837790    0.0407509740    0.0012309282    
0.0124064400    0.0364341280    0.0011153885    
0.0126291010    0.0370927700    0.0011113393    
0.0128517620    0.0366089740    0.0011068248    
0.0130744230    0.0347162390    0.0010698391    
0.0132970840    0.0346060830    0.0010629174    
0.0135197450    0.0335585930    0.0010317178    
0.0137424060    0.0335251290    0.0010168472    
0.0139650670    0.0330212050    0.0009866972    
0.0141877280    0.0322493010    0.0009772515    
0.0144103890    0.0309465600    0.0009408031    
0.0146330500    0.0299053370    0.0009189687    
0.0148557110    0.0293190560    0.0009061010    
0.0150783720    0.0302961700    0.0009134639    
0.0153010330    0.0293675720    0.0008866756    
0.0155236940    0.0306330040    0.0009001923    
0.0157463550    0.0275116150    0.0008383169    
0.0159690160    0.0292298890    0.0008608203    
0.0161916770    0.0280492170    0.0008385051    
0.0164143380    0.0266944990    0.0008242027    
0.0166369990    0.0288503710    0.0008304199    
0.0168596600    0.0274283880    0.0008025625    
0.0170823210    0.0266554740    0.0007843239    
0.0173049820    0.0253119080    0.0007656227    
0.0175276430    0.0266053380    0.0007932179    
0.0177503040    0.0267933490    0.0007757232    
0.0179729650    0.0259563240    0.0007559382    
0.0181956260    0.0251824440    0.0007303095    
0.0184182870    0.0250505290    0.0007249611    
0.0186409480    0.0254961200    0.0007360096    
0.0188636090    0.0257638770    0.0007352111    
0.0190862700    0.0242611670    0.0007123324    
0.0193089310    0.0241647460    0.0007098074    
0.0195315920    0.0247281190    0.0006936147    
0.0197542530    0.0242733880    0.0006882088    
0.0199769140    0.0256782870    0.0007078449    
0.0201995750    0.0240107040    0.0006737566    
0.0204222360    0.0240977460    0.0006807707    
0.0206448970    0.0246475300    0.0006835995    
0.0208675580    0.0239520600    0.0006600092    
0.0210902190    0.0241198820    0.0006687080    
0.0213128800    0.0241913500    0.0006606109    
0.0215355410    0.0242172320    0.0006530902    
0.0217582020    0.0247632300    0.0006604115    
0.0219808630    0.0223970570    0.0006272431    
0.0222035240    0.0229244630    0.0006288350    
0.0224261850    0.0233654020    0.0006292035    
0.0226488460    0.0226319290    0.0006145988    
0.0228715070    0.0227853390    0.0006151463    
0.0230941680    0.0225528450    0.0006120000    
0.0233168290    0.0220644890    0.0006068455    
0.0235394900    0.0231145990    0.0006142635    
0.0237621510    0.0225514540    0.0005904007    
0.0239848120    0.0222473370    0.0005870848    
0.0242074730    0.0233104410    0.0005961379    
0.0244301340    0.0231344660    0.0005945612    
0.0246527950    0.0221796310    0.0005875528    
0.0248754560    0.0225026930    0.0005785156    
0.0250981170    0.0224089510    0.0005785966    
0.0253207780    0.0224265370    0.0005615415    
0.0255434390    0.0231519620    0.0005766407    
0.0257661000    0.0220877380    0.0005650535    
0.0259887610    0.0220169690    0.0005581523    
0.0262114220    0.0224667160    0.0005668283    
0.0264340830    0.0217342880    0.0005499268    
0.0266567440    0.0217688700    0.0005469634    
0.0268794050    0.0228183300    0.0005577070    
0.0271020660    0.0227150750    0.0005541911    
0.0273247270    0.0223361780    0.0005462491    
0.0275473880    0.0219546480    0.0005404861    
0.0277700490    0.0224453540    0.0005432625    
0.0279927100    0.0223137990    0.0005369420    
0.0282153710    0.0214223420    0.0005286648    
0.0284380320    0.0218065840    0.0005302929    
0.0286606930    0.0213461600    0.0005201741    
0.0288833540    0.0212873710    0.0005204441    
0.0291060150    0.0217676850    0.0005257834    
0.0293286760    0.0215480720    0.0005158349    
0.0295513370    0.0214558490    0.0005091248    
0.0297739980    0.0211405950    0.0005109346    
0.0299966590    0.0212716630    0.0005037624    
0.0302193200    0.0217119560    0.0005163662    
0.0304419810    0.0214714680    0.0005144435    
0.0306646420    0.0223949900    0.0005105618    
0.0308873030    0.0220980870    0.0005049755    
0.0311099640    0.0219462060    0.0005045438    
0.0313326250    0.0215760970    0.0004947293    
0.0315552860    0.0207189040    0.0004910851    
0.0317779470    0.0220726050    0.0005073157    
0.0320006080    0.0216823620    0.0004913870    
0.0322232690    0.0206065440    0.0004810466    
0.0324459300    0.0212514030    0.0004848684    
0.0326685910    0.0210711310    0.0004820116    
0.0328912520    0.0209001360    0.0004816416    
0.0331139130    0.0208681050    0.0004750118    
0.0333365740    0.0210364940    0.0004784730    
0.0335592350    0.0211035740    0.0004746273    
0.0337818960    0.0206649950    0.0004692955    
0.0340045570    0.0209499870    0.0004717700    
0.0342272170    0.0209326000    0.0004697141    
0.0344498780    0.0212687250    0.0004753455    
0.0346725390    0.0208157180    0.0004615470    
0.0348952000    0.0203222710    0.0004539661    
0.0351178610    0.0206520020    0.0004597287    
0.0353405220    0.0211437070    0.0004630502    
0.0355631830    0.0201896400    0.0004507784    
0.0357858440    0.0205519790    0.0004548056    
0.0360085050    0.0209295000    0.0004603505    
0.0362311660    0.0212356580    0.0004581931    
0.0364538270    0.0208961480    0.0004508677    
0.0366764880    0.0214389630    0.0004563548    
0.0368991490    0.0217522570    0.0004573598    
0.0371218100    0.0205666530    0.0004434487    
0.0373444710    0.0207141360    0.0004498823    
0.0375671320    0.0206635890    0.0004486787    
0.0377897930    0.0205135510    0.0004354740    
0.0380124540    0.0209870780    0.0004432351    
0.0382351150    0.0206220170    0.0004393634    
0.0384577760    0.0211624720    0.0004407892    
0.0386804370    0.0207223170    0.0004395098    
0.0389030980    0.0214746590    0.0004440288    
0.0391257590    0.0208036940    0.0004340702    
0.0393484200    0.0203760250    0.0004281396    
0.0395710810    0.0212518080    0.0004378327    
0.0397937420    0.0218020610    0.0004434649    
0.0400164030    0.0203429190    0.0004301107    
0.0402390640    0.0208140330    0.0004292694    
0.0404617250    0.0207791560    0.0004263793    
0.0406843860    0.0199934330    0.0004141993    
0.0409070470    0.0208677080    0.0004275667    
0.0411297080    0.0209556440    0.0004243216    
0.0413523690    0.0202606470    0.0004183014    
0.0415750300    0.0208961740    0.0004284198    
0.0417976910    0.0207794650    0.0004161723    
0.0420203520    0.0211794520    0.0004217375    
0.0422430130    0.0211878130    0.0004234177    
0.0424656740    0.0205574400    0.0004116431    
0.0426883350    0.0206704350    0.0004148215    
0.0429109960    0.0208668170    0.0004180896    
0.0431336570    0.0206982360    0.0004105306    
0.0433563180    0.0205433020    0.0004125194    
0.0435789790    0.0207936930    0.0004085055    
0.0438016400    0.0208177270    0.0004109651    
0.0440243010    0.0207471940    0.0004061057    
0.0442469620    0.0203851810    0.0004049592    
0.0444696230    0.0195603390    0.0003952592    
0.0446922840    0.0205082590    0.0004035214    
0.0449149450    0.0202572950    0.0003956835    
0.0451376060    0.0198973660    0.0003969957    
0.0453602670    0.0205604180    0.0003993255    
0.0455829280    0.0194605560    0.0003880487    
0.0458055890    0.0206823750    0.0004023778    
0.0460282500    0.0196899390    0.0003878709    
0.0462509110    0.0203210970    0.0003915876    
0.0464735720    0.0209710670    0.0003980254    
0.0466962330    0.0199195740    0.0003896820    
0.0469188940    0.0198067950    0.0003874757    
0.0471415550    0.0198422920    0.0003898146    
0.0473642160    0.0207795610    0.0003933294    
0.0475868770    0.0198807010    0.0003828170    
0.0478095380    0.0203939490    0.0003860303    
0.0480321990    0.0204247010    0.0003871677    
0.0482548600    0.0199124490    0.0003806162    
0.0484775210    0.0204137190    0.0003892036    
0.0487001820    0.0201446580    0.0003809705    
0.0489228430    0.0201590000    0.0003809013    
0.0491455040    0.0197817400    0.0003747106    
0.0493681650    0.0207008200    0.0003866105    
0.0495908260    0.0204288580    0.0003776006    
0.0498134870    0.0208552160    0.0003851525    
0.0500361480    0.0198818100    0.0003750617    
0.0502588090    0.0208556760    0.0003783819    
0.0504814700    0.0203688260    0.0003788279    
0.0507041310    0.0198254490    0.0003692972    
0.0509267920    0.0203296920    0.0003755112    
0.0511494530    0.0208807480    0.0003780288    
0.0513721140    0.0198571500    0.0003718933    
0.0515947750    0.0199444170    0.0003677679    
0.0518174360    0.0202408670    0.0003682593    
0.0520400970    0.0193796930    0.0003578416    
0.0522627580    0.0204295570    0.0003705290    
0.0524854190    0.0204967500    0.0003741554    
0.0527080800    0.0208431160    0.0003802248    
0.0529307410    0.0203252100    0.0003772346    
0.0531534020    0.0200037220    0.0003728768    
0.0533760630    0.0201361500    0.0003752802    
0.0535987240    0.0200940740    0.0003731376    
0.0538213850    0.0200518740    0.0003770642    
0.0540440460    0.0205157130    0.0003795953    
0.0542667070    0.0196459140    0.0003740213    
0.0544893680    0.0204580910    0.0003818776    
0.0547120290    0.0202982710    0.0003777771    
0.0549346900    0.0200381030    0.0003755458    
0.0551573510    0.0205774970    0.0003850467    
0.0553800120    0.0192941560    0.0003696768    
0.0556026730    0.0200508720    0.0003846701    
0.0558253340    0.0196752010    0.0003842402    
0.0560479950    0.0197127400    0.0003846068    
0.0562706560    0.0203328910    0.0003943861    
0.0564933170    0.0192321100    0.0003868927    
0.0567159780    0.0198601610    0.0003884454    
0.0569386390    0.0202451060    0.0003983436    
0.0571613000    0.0200955400    0.0003883242    
0.0573839610    0.0204200250    0.0003881966    
0.0576066220    0.0198356880    0.0003836611    
0.0578292830    0.0199995050    0.0003839674    
0.0580519440    0.0207789420    0.0003928956    
0.0582746050    0.0197860900    0.0003817035    
0.0584972660    0.0201902660    0.0003841064    
0.0587199270    0.0199298560    0.0003783316    
0.0589425880    0.0195057470    0.0003720953    
0.0591652490    0.0196857120    0.0003760076    
0.0593879100    0.0199958320    0.0003761434    
0.0596105710    0.0198689390    0.0003745524    
0.0598332320    0.0199515070    0.0003785381    
0.0600558930    0.0195773660    0.0003725813    
0.0602785540    0.0195289210    0.0003717267    
0.0605012150    0.0200808470    0.0003761487    
0.0607238760    0.0188935140    0.0003622000    
0.0609465370    0.0194884090    0.0003707541    
0.0611691980    0.0201799720    0.0003778730    
0.0613918590    0.0198178950    0.0003703794    
0.0616145200    0.0203900020    0.0003784371    
0.0618371810    0.0197573130    0.0003688609    
0.0620598420    0.0199291850    0.0003708437    
0.0622825030    0.0194479330    0.0003719411    
0.0625051640    0.0198182750    0.0003701926    
0.0627278250    0.0196954220    0.0003682835    
0.0629504860    0.0198778390    0.0003669772    
0.0631731470    0.0202824780    0.0003752798    
0.0633958080    0.0192382750    0.0003675954    
0.0636184690    0.0198428690    0.0003785263    
0.0638411300    0.0199378450    0.0003780068    
0.0640637910    0.0197832190    0.0003791865    
0.0642864520    0.0194516520    0.0003751819    
0.0645091130    0.0198014210    0.0003818572    
0.0647317740    0.0195130030    0.0003794839    
0.0649544350    0.0204715800    0.0003882657    
0.0651770960    0.0201687230    0.0003832807    
0.0653997570    0.0203351680    0.0003840243    
0.0656224180    0.0201104990    0.0003827275    
0.0658450790    0.0206050040    0.0003818361    
0.0660677400    0.0201313650    0.0003790283    
0.0662904010    0.0194091310    0.0003766102    
0.0665130620    0.0203060350    0.0003835426    
0.0667357230    0.0204491930    0.0003917355    
0.0669583840    0.0200889600    0.0003869707    
0.0671810450    0.0199709490    0.0003837021    
0.0674037060    0.0192810370    0.0003834034    
0.0676263670    0.0201642180    0.0003892155    
0.0678490280    0.0200222330    0.0003854709    
0.0680716890    0.0194778360    0.0003810404    
0.0682943500    0.0203733230    0.0003854328    
0.0685170110    0.0196959010    0.0003751090    
0.0687396720    0.0202664570    0.0003794924    
0.0689623330    0.0201170300    0.0003768926    
0.0691849940    0.0194732110    0.0003733818    
0.0694076550    0.0198958310    0.0003772103    
0.0696303160    0.0196172350    0.0003715945    
0.0698529770    0.0201098600    0.0003754428    
0.0700756380    0.0195832170    0.0003657381    
0.0702982990    0.0195164820    0.0003690906    
0.0705209600    0.0201438160    0.0003722684    
0.0707436210    0.0192911900    0.0003626317    
0.0709662820    0.0198865040    0.0003725737    
0.0711889430    0.0200955940    0.0003699272    
0.0714116040    0.0194802910    0.0003649633    
0.0716342650    0.0205432130    0.0003732663    
0.0718569260    0.0202704250    0.0003692864    
0.0720795870    0.0198650460    0.0003670539    
0.0723022480    0.0202045540    0.0003707414    
0.0725249090    0.0201219740    0.0003655521    
0.0727475700    0.0193864050    0.0003618731    
0.0729702310    0.0199026970    0.0003637358    
0.0731928920    0.0191709010    0.0003584129    
0.0734155530    0.0195149370    0.0003608930    
0.0736382140    0.0198384780    0.0003615372    
0.0738608750    0.0203158770    0.0003682250    
0.0740835360    0.0199494910    0.0003639836    
0.0743061970    0.0199015900    0.0003584272    
0.0745288580    0.0199505900    0.0003625583    
0.0747515190    0.0196259730    0.0003603068    
0.0749741800    0.0191279670    0.0003524134    
0.0751968410    0.0201154200    0.0003642329    
0.0754195020    0.0201346160    0.0003622717    
0.0756421630    0.0198773130    0.0003570071    
0.0758648240    0.0192256190    0.0003519500    
0.0760874850    0.0195997990    0.0003551877    
0.0763101460    0.0197163910    0.0003559008    
0.0765328070    0.0188171990    0.0003512481    
0.0767554680    0.0196880950    0.0003568465    
0.0769781290    0.0193409900    0.0003516544    
0.0772007900    0.0199631490    0.0003544002    
0.0774234510    0.0200445360    0.0003571418    
0.0776461120    0.0197969360    0.0003545925    
0.0778687730    0.0192120770    0.0003481614    
0.0780914340    0.0195324110    0.0003535604    
0.0783140950    0.0195311700    0.0003479398    
0.0785367560    0.0195260650    0.0003535034    
0.0787594170    0.0199445970    0.0003540709    
0.0789820780    0.0195976370    0.0003491793    
0.0792047390    0.0197948780    0.0003520794    
0.0794274000    0.0194135360    0.0003501489    
0.0796500610    0.0189311500    0.0003423965    
0.0798727220    0.0196874220    0.0003488463    
0.0800953830    0.0199230780    0.0003501209    
0.0803180440    0.0197711360    0.0003512129    
0.0805407050    0.0195475620    0.0003488968    
0.0807633660    0.0193745420    0.0003470268    
0.0809860270    0.0196512720    0.0003482058    
0.0812086880    0.0198649010    0.0003470679    
0.0814313490    0.0194039950    0.0003445824    
0.0816540100    0.0196629510    0.0003460843    
0.0818766710    0.0196243430    0.0003465338    
0.0820993320    0.0201869620    0.0003508257    
0.0823219930    0.0192350110    0.0003438663    
0.0825446540    0.0192957890    0.0003419069    
0.0827673150    0.0196112030    0.0003423743    
0.0829899760    0.0194521020    0.0003403756    
0.0832126370    0.0200954800    0.0003475084    
0.0834352980    0.0197903450    0.0003440889    
0.0836579590    0.0190054910    0.0003364462    
0.0838806200    0.0199097450    0.0003454346    
0.0841032810    0.0202552350    0.0003462560    
0.0843259420    0.0197247640    0.0003406395    
0.0845486030    0.0194777200    0.0003384999    
0.0847712640    0.0188226300    0.0003307309    
0.0849939250    0.0202528150    0.0003436632    
0.0852165860    0.0195633670    0.0003382055    
0.0854392470    0.0196822010    0.0003360186    
0.0856619080    0.0196995810    0.0003386428    
0.0858845690    0.0188546680    0.0003283172    
0.0861072300    0.0197418780    0.0003382721    
0.0863298910    0.0199023160    0.0003414223    
0.0865525520    0.0192204620    0.0003326256    
0.0867752130    0.0196988060    0.0003340220    
0.0869978740    0.0193154580    0.0003315989    
0.0872205350    0.0190164960    0.0003286040    
0.0874431960    0.0193061170    0.0003310972    
0.0876658570    0.0190655620    0.0003302913    
0.0878885180    0.0196764490    0.0003361164    
0.0881111790    0.0203361160    0.0003412657    
0.0883338400    0.0193501920    0.0003280165    
0.0885565010    0.0200099380    0.0003380848    
0.0887791620    0.0194331190    0.0003288557    
0.0890018230    0.0190800470    0.0003290152    
0.0892244840    0.0198679640    0.0003363107    
0.0894471450    0.0195875780    0.0003325186    
0.0896698060    0.0194344850    0.0003299673    
0.0898924670    0.0192249200    0.0003297047    
0.0901151280    0.0198022420    0.0003310042    
0.0903377890    0.0196343800    0.0003323567    
0.0905604500    0.0200120170    0.0003339978    
0.0907831110    0.0200235030    0.0003332625    
0.0910057720    0.0192392960    0.0003281704    
0.0912284330    0.0194537090    0.0003252692    
0.0914510940    0.0195897280    0.0003300442    
0.0916737550    0.0193708950    0.0003273811    
0.0918964160    0.0201014170    0.0003348841    
0.0921190770    0.0196245060    0.0003278959    
0.0923417380    0.0196515770    0.0003282565    
0.0925643990    0.0197683110    0.0003284244    
0.0927870600    0.0192981420    0.0003258260    
0.0930097210    0.0200037260    0.0003289037    
0.0932323820    0.0198763460    0.0003302648    
