# Diamond Light Source Ltd.
# Data extracted from: /dls/b21/data/2018/cm19678-3/processed/b21-386631_00286.dat
q(1/A)          Column          Error           
0.0035000000    2.0788065000    0.0245982460    
0.0037226610    1.8892608000    0.0229562730    
0.0039453220    1.6397058000    0.0194556170    
0.0041679830    1.3116670000    0.0142902110    
0.0043906440    0.9633047600    0.0117136980    
0.0046133050    0.7857578900    0.0101559460    
0.0048359660    0.5902960500    0.0083264262    
0.0050586270    0.4695272000    0.0072990362    
0.0052812880    0.4374796400    0.0066614399    
0.0055039490    0.3763629400    0.0058749366    
0.0057266100    0.3324967700    0.0053420459    
0.0059492710    0.2646928600    0.0047663402    
0.0061719320    0.2233116300    0.0042186868    
0.0063945930    0.1986327300    0.0040269826    
0.0066172539    0.1843525800    0.0036428764    
0.0068399149    0.1730127800    0.0034734800    
0.0070625759    0.1485784700    0.0031858569    
0.0072852369    0.1286550800    0.0029202105    
0.0075078979    0.1178769800    0.0027814792    
0.0077305589    0.1038921900    0.0025615331    
0.0079532199    0.1012784600    0.0024940593    
0.0081758809    0.0927229890    0.0024085925    
0.0083985419    0.0861586460    0.0021655011    
0.0086212029    0.0806070590    0.0020945732    
0.0088438639    0.0753006120    0.0020081948    
0.0090665249    0.0656968010    0.0018116794    
0.0092891859    0.0665103800    0.0019026278    
0.0095118469    0.0644793860    0.0018015500    
0.0097345079    0.0610583890    0.0017026479    
0.0099571689    0.0539209990    0.0015670472    
0.0101798300    0.0512796080    0.0015281835    
0.0104024910    0.0523806110    0.0015392752    
0.0106251520    0.0472264410    0.0014665465    
0.0108478130    0.0457823460    0.0014061936    
0.0110704740    0.0453352920    0.0013322390    
0.0112931350    0.0431604220    0.0013037082    
0.0115157960    0.0423861110    0.0012844276    
0.0117384570    0.0407796400    0.0012490067    
0.0119611180    0.0391672290    0.0012275776    
0.0121837790    0.0390518130    0.0012051651    
0.0124064400    0.0391770610    0.0011567783    
0.0126291010    0.0363706600    0.0011006262    
0.0128517620    0.0363516840    0.0011030866    
0.0130744230    0.0338357750    0.0010563369    
0.0132970840    0.0377183800    0.0011098443    
0.0135197450    0.0335682130    0.0010320135    
0.0137424060    0.0314985910    0.0009857760    
0.0139650670    0.0316740530    0.0009664992    
0.0141877280    0.0309551690    0.0009575799    
0.0144103890    0.0307837730    0.0009384599    
0.0146330500    0.0323431780    0.0009558284    
0.0148557110    0.0293274600    0.0009063608    
0.0150783720    0.0298365060    0.0009066376    
0.0153010330    0.0300454520    0.0008969791    
0.0155236940    0.0288424400    0.0008736123    
0.0157463550    0.0281327490    0.0008478490    
0.0159690160    0.0272603110    0.0008314317    
0.0161916770    0.0277313010    0.0008338591    
0.0164143380    0.0271348840    0.0008310925    
0.0166369990    0.0262764260    0.0007926244    
0.0168596600    0.0277885990    0.0008079310    
0.0170823210    0.0259243970    0.0007736041    
0.0173049820    0.0274503280    0.0007974223    
0.0175276430    0.0255011340    0.0007766943    
0.0177503040    0.0255654410    0.0007578481    
0.0179729650    0.0271969880    0.0007739044    
0.0181956260    0.0259099720    0.0007408900    
0.0184182870    0.0247639000    0.0007209050    
0.0186409480    0.0263960480    0.0007489936    
0.0188636090    0.0248058890    0.0007215162    
0.0190862700    0.0247074580    0.0007189573    
0.0193089310    0.0243802290    0.0007130673    
0.0195315920    0.0251244320    0.0006992511    
0.0197542530    0.0250415460    0.0006991137    
0.0199769140    0.0238509590    0.0006822919    
0.0201995750    0.0252657450    0.0006912400    
0.0204222360    0.0238545660    0.0006774241    
0.0206448970    0.0240477120    0.0006753270    
0.0208675580    0.0240862700    0.0006619506    
0.0210902190    0.0234591820    0.0006595802    
0.0213128800    0.0244509140    0.0006642406    
0.0215355410    0.0233432950    0.0006412896    
0.0217582020    0.0227619240    0.0006332536    
0.0219808630    0.0234753290    0.0006422564    
0.0222035240    0.0240698210    0.0006444448    
0.0224261850    0.0232534590    0.0006277844    
0.0226488460    0.0234898610    0.0006262293    
0.0228715070    0.0227420340    0.0006146496    
0.0230941680    0.0222270660    0.0006076508    
0.0233168290    0.0238571800    0.0006311070    
0.0235394900    0.0239213230    0.0006249804    
0.0237621510    0.0228362200    0.0005942018    
0.0239848120    0.0222382170    0.0005870485    
0.0242074730    0.0232103730    0.0005949422    
0.0244301340    0.0230646740    0.0005937487    
0.0246527950    0.0223416790    0.0005897798    
0.0248754560    0.0224942660    0.0005784901    
0.0250981170    0.0215486460    0.0005674628    
0.0253207780    0.0216031560    0.0005512157    
0.0255434390    0.0221960510    0.0005646918    
0.0257661000    0.0226146100    0.0005718350    
0.0259887610    0.0222638940    0.0005613539    
0.0262114220    0.0218437360    0.0005589943    
0.0264340830    0.0227426420    0.0005626196    
0.0266567440    0.0214176900    0.0005426114    
0.0268794050    0.0217068060    0.0005440319    
0.0271020660    0.0212068140    0.0005355529    
0.0273247270    0.0223960310    0.0005470589    
0.0275473880    0.0212688390    0.0005320536    
0.0277700490    0.0230568160    0.0005506915    
0.0279927100    0.0213250280    0.0005249859    
0.0282153710    0.0218330400    0.0005337849    
0.0284380320    0.0227157900    0.0005413126    
0.0286606930    0.0214283560    0.0005212493    
0.0288833540    0.0214716610    0.0005227669    
0.0291060150    0.0222439570    0.0005315804    
0.0293286760    0.0214183760    0.0005143539    
0.0295513370    0.0208456910    0.0005019053    
0.0297739980    0.0214925110    0.0005152435    
0.0299966590    0.0218147760    0.0005102261    
0.0302193200    0.0211899660    0.0005101944    
0.0304419810    0.0225872590    0.0005277167    
0.0306646420    0.0215631030    0.0005010612    
0.0308873030    0.0215388250    0.0004986160    
0.0311099640    0.0213607540    0.0004978399    
0.0313326250    0.0214574630    0.0004934380    
0.0315552860    0.0207714160    0.0004917775    
0.0317779470    0.0205160280    0.0004891706    
0.0320006080    0.0210981840    0.0004847916    
0.0322232690    0.0214099900    0.0004904051    
0.0324459300    0.0215230750    0.0004880277    
0.0326685910    0.0207242310    0.0004780959    
0.0328912520    0.0219830760    0.0004940329    
0.0331139130    0.0212742640    0.0004796808    
0.0333365740    0.0213255580    0.0004818182    
0.0335592350    0.0208853930    0.0004722351    
0.0337818960    0.0218435850    0.0004825618    
0.0340045570    0.0207115770    0.0004691452    
0.0342272170    0.0213603250    0.0004745567    
0.0344498780    0.0204034250    0.0004656423    
0.0346725390    0.0203610280    0.0004565437    
0.0348952000    0.0201150780    0.0004517107    
0.0351178610    0.0212414210    0.0004663098    
0.0353405220    0.0207947360    0.0004592789    
0.0355631830    0.0205981270    0.0004553810    
0.0357858440    0.0215142840    0.0004653981    
0.0360085050    0.0210874260    0.0004621503    
0.0362311660    0.0213900810    0.0004599220    
0.0364538270    0.0204155890    0.0004457170    
0.0366764880    0.0204734230    0.0004460240    
0.0368991490    0.0207100060    0.0004463322    
0.0371218100    0.0208116530    0.0004461461    
0.0373444710    0.0212967170    0.0004562302    
0.0375671320    0.0214393800    0.0004570891    
0.0377897930    0.0206303970    0.0004367750    
0.0380124540    0.0213863630    0.0004474957    
0.0382351150    0.0206185650    0.0004393896    
0.0384577760    0.0207828210    0.0004368801    
0.0386804370    0.0205977140    0.0004382492    
0.0389030980    0.0206450920    0.0004354303    
0.0391257590    0.0195503870    0.0004208522    
0.0393484200    0.0206608230    0.0004311830    
0.0395710810    0.0206894580    0.0004320630    
0.0397937420    0.0203195340    0.0004281831    
0.0400164030    0.0199030250    0.0004254959    
0.0402390640    0.0203506420    0.0004245248    
0.0404617250    0.0210651640    0.0004293652    
0.0406843860    0.0199734140    0.0004140513    
0.0409070470    0.0203216150    0.0004219955    
0.0411297080    0.0207725750    0.0004225246    
0.0413523690    0.0206292810    0.0004221501    
0.0415750300    0.0204628580    0.0004240153    
0.0417976910    0.0213523720    0.0004219309    
0.0420203520    0.0206899060    0.0004168946    
0.0422430130    0.0190863470    0.0004019292    
0.0424656740    0.0206705190    0.0004128328    
0.0426883350    0.0204182180    0.0004123420    
0.0429109960    0.0202359730    0.0004117803    
0.0431336570    0.0203213610    0.0004068343    
0.0433563180    0.0202011800    0.0004091286    
0.0435789790    0.0203260220    0.0004039434    
0.0438016400    0.0207668880    0.0004105218    
0.0440243010    0.0209280710    0.0004079306    
0.0442469620    0.0208979830    0.0004100798    
0.0444696230    0.0205486380    0.0004051796    
0.0446922840    0.0205459060    0.0004039495    
0.0449149450    0.0208274680    0.0004012709    
0.0451376060    0.0200853030    0.0003989233    
0.0453602670    0.0205818280    0.0003995906    
0.0455829280    0.0205419960    0.0003987422    
0.0458055890    0.0193492800    0.0003892498    
0.0460282500    0.0198866540    0.0003898595    
0.0462509110    0.0201835090    0.0003903157    
0.0464735720    0.0205161270    0.0003937408    
0.0466962330    0.0202226760    0.0003926918    
0.0469188940    0.0202446620    0.0003917914    
0.0471415550    0.0200471490    0.0003918779    
0.0473642160    0.0205025190    0.0003907546    
0.0475868770    0.0202403290    0.0003863193    
0.0478095380    0.0198443010    0.0003808473    
0.0480321990    0.0207609090    0.0003903972    
0.0482548600    0.0208787700    0.0003897980    
0.0484775210    0.0210504910    0.0003952839    
0.0487001820    0.0205900520    0.0003852142    
0.0489228430    0.0202151720    0.0003814863    
0.0491455040    0.0206038980    0.0003824729    
0.0493681650    0.0199195070    0.0003792988    
0.0495908260    0.0197784570    0.0003715944    
0.0498134870    0.0200073930    0.0003772966    
0.0500361480    0.0200007470    0.0003762358    
0.0502588090    0.0211019960    0.0003806644    
0.0504814700    0.0204310460    0.0003794604    
0.0507041310    0.0199549910    0.0003705549    
0.0509267920    0.0196833400    0.0003695465    
0.0511494530    0.0202911430    0.0003727069    
0.0513721140    0.0197026010    0.0003704963    
0.0515947750    0.0204792430    0.0003727197    
0.0518174360    0.0201595430    0.0003675715    
0.0520400970    0.0205220580    0.0003682902    
0.0522627580    0.0197161390    0.0003640540    
0.0524854190    0.0202293480    0.0003717600    
0.0527080800    0.0198291850    0.0003709145    
0.0529307410    0.0197847660    0.0003722389    
0.0531534020    0.0191473390    0.0003648602    
0.0533760630    0.0193513570    0.0003679471    
0.0535987240    0.0200443860    0.0003727294    
0.0538213850    0.0202349340    0.0003788357    
0.0540440460    0.0198822700    0.0003737427    
0.0542667070    0.0200290480    0.0003777049    
0.0544893680    0.0201930040    0.0003794498    
0.0547120290    0.0198610150    0.0003737396    
0.0549346900    0.0196777490    0.0003722070    
0.0551573510    0.0203383560    0.0003828577    
0.0553800120    0.0203624450    0.0003798276    
0.0556026730    0.0198425450    0.0003827214    
0.0558253340    0.0200861670    0.0003882880    
0.0560479950    0.0198159700    0.0003856678    
0.0562706560    0.0202851570    0.0003939794    
0.0564933170    0.0197592420    0.0003922152    
0.0567159780    0.0200254490    0.0003901144    
0.0569386390    0.0195296230    0.0003912974    
0.0571613000    0.0203039650    0.0003903887    
0.0573839610    0.0198131760    0.0003824396    
0.0576066220    0.0194182700    0.0003796572    
0.0578292830    0.0196144240    0.0003803074    
0.0580519440    0.0202572870    0.0003879880    
0.0582746050    0.0200937570    0.0003847149    
0.0584972660    0.0203714810    0.0003858816    
0.0587199270    0.0196625770    0.0003758400    
0.0589425880    0.0194971370    0.0003720665    
0.0591652490    0.0194039950    0.0003733609    
0.0593879100    0.0196193680    0.0003726391    
0.0596105710    0.0201006430    0.0003767840    
0.0598332320    0.0194399770    0.0003737075    
0.0600558930    0.0197886660    0.0003746402    
0.0602785540    0.0198600940    0.0003749190    
0.0605012150    0.0198540210    0.0003740719    
0.0607238760    0.0203366660    0.0003758324    
0.0609465370    0.0198749850    0.0003744669    
0.0611691980    0.0201716010    0.0003778487    
0.0613918590    0.0196366260    0.0003687345    
0.0616145200    0.0199391700    0.0003742837    
0.0618371810    0.0192256770    0.0003639165    
0.0620598420    0.0200315350    0.0003718481    
0.0622825030    0.0195460080    0.0003729312    
0.0625051640    0.0192360160    0.0003647662    
0.0627278250    0.0192808700    0.0003644393    
0.0629504860    0.0197276680    0.0003656408    
0.0631731470    0.0205869560    0.0003781404    
0.0633958080    0.0202133560    0.0003768500    
0.0636184690    0.0192201640    0.0003725930    
0.0638411300    0.0205815820    0.0003841158    
0.0640637910    0.0193817700    0.0003753733    
0.0642864520    0.0198770630    0.0003793167    
0.0645091130    0.0199470510    0.0003833137    
0.0647317740    0.0197326810    0.0003816688    
0.0649544350    0.0190337150    0.0003744357    
0.0651770960    0.0196353520    0.0003782329    
0.0653997570    0.0199710290    0.0003806250    
0.0656224180    0.0201162640    0.0003828372    
0.0658450790    0.0193510400    0.0003700880    
0.0660677400    0.0196588700    0.0003746076    
0.0662904010    0.0199483060    0.0003818601    
0.0665130620    0.0187466180    0.0003685740    
0.0667357230    0.0202523800    0.0003899017    
0.0669583840    0.0200499810    0.0003866505    
0.0671810450    0.0195268480    0.0003794662    
0.0674037060    0.0194238340    0.0003848757    
0.0676263670    0.0203202960    0.0003907749    
0.0678490280    0.0191446040    0.0003769821    
0.0680716890    0.0193492050    0.0003798345    
0.0682943500    0.0203062240    0.0003848527    
0.0685170110    0.0196872550    0.0003750804    
0.0687396720    0.0194264040    0.0003715973    
0.0689623330    0.0199885970    0.0003757414    
0.0691849940    0.0195575680    0.0003742433    
0.0694076550    0.0198800730    0.0003771149    
0.0696303160    0.0203058210    0.0003781141    
0.0698529770    0.0198071250    0.0003726595    
0.0700756380    0.0200739390    0.0003703452    
0.0702982990    0.0200457370    0.0003741153    
0.0705209600    0.0202252890    0.0003730740    
0.0707436210    0.0198012980    0.0003674475    
0.0709662820    0.0194523280    0.0003685369    
0.0711889430    0.0202239650    0.0003711600    
0.0714116040    0.0195474310    0.0003656441    
0.0716342650    0.0192736870    0.0003616006    
0.0718569260    0.0202896950    0.0003695148    
0.0720795870    0.0196265120    0.0003648958    
0.0723022480    0.0198088610    0.0003671457    
0.0725249090    0.0198686720    0.0003632960    
0.0727475700    0.0197365580    0.0003651789    
0.0729702310    0.0192501080    0.0003577741    
0.0731928920    0.0196321800    0.0003627512    
0.0734155530    0.0197808940    0.0003633960    
0.0736382140    0.0195805420    0.0003592306    
0.0738608750    0.0192735710    0.0003587061    
0.0740835360    0.0197758520    0.0003624481    
0.0743061970    0.0198233520    0.0003577733    
0.0745288580    0.0201013020    0.0003639773    
0.0747515190    0.0190625670    0.0003551483    
0.0749741800    0.0200946690    0.0003612607    
0.0751968410    0.0197451510    0.0003609168    
0.0754195020    0.0194688240    0.0003562828    
0.0756421630    0.0196970080    0.0003554351    
0.0758648240    0.0190377880    0.0003502767    
0.0760874850    0.0190581390    0.0003502956    
0.0763101460    0.0199662380    0.0003582000    
0.0765328070    0.0198719360    0.0003610097    
0.0767554680    0.0203018900    0.0003624182    
0.0769781290    0.0192825780    0.0003511733    
0.0772007900    0.0206045020    0.0003600997    
0.0774234510    0.0197893100    0.0003549117    
0.0776461120    0.0199423790    0.0003559437    
0.0778687730    0.0194195420    0.0003500864    
0.0780914340    0.0199349150    0.0003572359    
0.0783140950    0.0202063880    0.0003539537    
0.0785367560    0.0190259260    0.0003489968    
0.0787594170    0.0190008980    0.0003456423    
0.0789820780    0.0195285750    0.0003486134    
0.0792047390    0.0199258320    0.0003532927    
0.0794274000    0.0197033750    0.0003528035    
0.0796500610    0.0195622210    0.0003481065    
0.0798727220    0.0194704750    0.0003469686    
0.0800953830    0.0205873380    0.0003559608    
0.0803180440    0.0195895820    0.0003496468    
0.0805407050    0.0194721860    0.0003482733    
0.0807633660    0.0197842360    0.0003507270    
0.0809860270    0.0190644200    0.0003430162    
0.0812086880    0.0199130540    0.0003475381    
0.0814313490    0.0199910480    0.0003498062    
0.0816540100    0.0197112390    0.0003465587    
0.0818766710    0.0196238470    0.0003465791    
0.0820993320    0.0203208210    0.0003520374    
0.0823219930    0.0195971720    0.0003471382    
0.0825446540    0.0191437580    0.0003406061    
0.0827673150    0.0194314780    0.0003408507    
0.0829899760    0.0196006610    0.0003417219    
0.0832126370    0.0192656920    0.0003403068    
0.0834352980    0.0199276720    0.0003453301    
0.0836579590    0.0200594890    0.0003456991    
0.0838806200    0.0194118700    0.0003411371    
0.0841032810    0.0198643460    0.0003429478    
0.0843259420    0.0197304190    0.0003407372    
0.0845486030    0.0194538810    0.0003383411    
0.0847712640    0.0196650850    0.0003380997    
0.0849939250    0.0192494810    0.0003350905    
0.0852165860    0.0194929450    0.0003376446    
0.0854392470    0.0201928070    0.0003403981    
0.0856619080    0.0201885420    0.0003428688    
0.0858845690    0.0197007130    0.0003356505    
0.0861072300    0.0193416860    0.0003348739    
0.0863298910    0.0199490320    0.0003418718    
0.0865525520    0.0189553460    0.0003303709    
0.0867752130    0.0198404230    0.0003352686    
0.0869978740    0.0197139060    0.0003350496    
0.0872205350    0.0194308980    0.0003322128    
0.0874431960    0.0198398810    0.0003356911    
0.0876658570    0.0193457600    0.0003327572    
0.0878885180    0.0194868190    0.0003345407    
0.0881111790    0.0193337270    0.0003327964    
0.0883338400    0.0196505240    0.0003305996    
0.0885565010    0.0196614140    0.0003351756    
0.0887791620    0.0193162230    0.0003279121    
0.0890018230    0.0203567490    0.0003398934    
0.0892244840    0.0193839360    0.0003322364    
0.0894471450    0.0198529290    0.0003348113    
0.0896698060    0.0202750420    0.0003370757    
0.0898924670    0.0191059990    0.0003287304    
0.0901151280    0.0195367280    0.0003288247    
0.0903377890    0.0194430450    0.0003307808    
0.0905604500    0.0190085010    0.0003255625    
0.0907831110    0.0194133850    0.0003281930    
0.0910057720    0.0196647580    0.0003318267    
0.0912284330    0.0193994440    0.0003248618    
0.0914510940    0.0197622060    0.0003315414    
0.0916737550    0.0197694000    0.0003307789    
0.0918964160    0.0190859150    0.0003263622    
0.0921190770    0.0199863450    0.0003309524    
0.0923417380    0.0195365460    0.0003273413    
0.0925643990    0.0196156980    0.0003272011    
0.0927870600    0.0196833640    0.0003291091    
0.0930097210    0.0191764090    0.0003220766    
0.0932323820    0.0192288230    0.0003248872    
