# Diamond Light Source Ltd.
# Data extracted from: /dls/b21/data/2018/cm19678-3/processed/b21-386631_00284.dat
q(1/A)          Column          Error           
0.0035000000    2.0933999000    0.0246846720    
0.0037226610    1.8639129000    0.0228019700    
0.0039453220    1.6371977000    0.0194409180    
0.0041679830    1.2738593000    0.0140828880    
0.0043906440    0.9772823100    0.0117984870    
0.0046133050    0.7655575600    0.0100246470    
0.0048359660    0.5946530100    0.0083571781    
0.0050586270    0.4576218900    0.0072059739    
0.0052812880    0.4294746500    0.0066002762    
0.0055039490    0.3803135800    0.0059057467    
0.0057266100    0.3252076200    0.0052832165    
0.0059492710    0.2701910000    0.0048156345    
0.0061719320    0.2296121000    0.0042778263    
0.0063945930    0.2020655100    0.0040616696    
0.0066172539    0.1832043300    0.0036315484    
0.0068399149    0.1732950300    0.0034763453    
0.0070625759    0.1519286600    0.0032216052    
0.0072852369    0.1334299900    0.0029739357    
0.0075078979    0.1170916200    0.0027722243    
0.0077305589    0.1045257500    0.0025693562    
0.0079532199    0.1045970400    0.0025346153    
0.0081758809    0.1014841800    0.0025198399    
0.0083985419    0.0882830030    0.0021920561    
0.0086212029    0.0796288870    0.0020818454    
0.0088438639    0.0740702250    0.0019917397    
0.0090665249    0.0681461210    0.0018451597    
0.0092891859    0.0655319380    0.0018885991    
0.0095118469    0.0638765840    0.0017931263    
0.0097345079    0.0613444360    0.0017066479    
0.0099571689    0.0561536000    0.0015991753    
0.0101798300    0.0519637210    0.0015383580    
0.0104024910    0.0520649700    0.0015346451    
0.0106251520    0.0485025270    0.0014862421    
0.0108478130    0.0508366520    0.0014817970    
0.0110704740    0.0489771440    0.0013847291    
0.0112931350    0.0441063840    0.0013179303    
0.0115157960    0.0393120210    0.0012369857    
0.0117384570    0.0395944970    0.0012307353    
0.0119611180    0.0406685190    0.0012508950    
0.0121837790    0.0393129100    0.0012091988    
0.0124064400    0.0352156250    0.0010967460    
0.0126291010    0.0383697810    0.0011304805    
0.0128517620    0.0349130120    0.0010810485    
0.0130744230    0.0358151600    0.0010868059    
0.0132970840    0.0334736610    0.0010455415    
0.0135197450    0.0324900820    0.0010153151    
0.0137424060    0.0321779210    0.0009963590    
0.0139650670    0.0320285650    0.0009719022    
0.0141877280    0.0323184070    0.0009784476    
0.0144103890    0.0308129720    0.0009389138    
0.0146330500    0.0297167450    0.0009162065    
0.0148557110    0.0303084220    0.0009214032    
0.0150783720    0.0305258360    0.0009170598    
0.0153010330    0.0305012690    0.0009037661    
0.0155236940    0.0299279110    0.0008899080    
0.0157463550    0.0288743080    0.0008589589    
0.0159690160    0.0295431330    0.0008655529    
0.0161916770    0.0280076450    0.0008380116    
0.0164143380    0.0269317590    0.0008279839    
0.0166369990    0.0276876100    0.0008136379    
0.0168596600    0.0278126200    0.0008082879    
0.0170823210    0.0267559660    0.0007859210    
0.0173049820    0.0273581920    0.0007960905    
0.0175276430    0.0278199500    0.0008112462    
0.0177503040    0.0263297620    0.0007691006    
0.0179729650    0.0260523490    0.0007574510    
0.0181956260    0.0261858850    0.0007448315    
0.0184182870    0.0245964790    0.0007184708    
0.0186409480    0.0255889280    0.0007374607    
0.0188636090    0.0251631380    0.0007267001    
0.0190862700    0.0249799060    0.0007229173    
0.0193089310    0.0250897990    0.0007233765    
0.0195315920    0.0237626000    0.0006800426    
0.0197542530    0.0265644550    0.0007200652    
0.0199769140    0.0249834780    0.0006983094    
0.0201995750    0.0250771090    0.0006886614    
0.0204222360    0.0248169170    0.0006909601    
0.0206448970    0.0247688580    0.0006853847    
0.0208675580    0.0245779250    0.0006686788    
0.0210902190    0.0239232600    0.0006660786    
0.0213128800    0.0242167920    0.0006610592    
0.0215355410    0.0241717830    0.0006525768    
0.0217582020    0.0232732780    0.0006403334    
0.0219808630    0.0230892010    0.0006369586    
0.0222035240    0.0235353860    0.0006372563    
0.0224261850    0.0216437570    0.0006056716    
0.0226488460    0.0233400520    0.0006242352    
0.0228715070    0.0231245550    0.0006198031    
0.0230941680    0.0225431280    0.0006119617    
0.0233168290    0.0230896510    0.0006208780    
0.0235394900    0.0232033110    0.0006155352    
0.0237621510    0.0231613480    0.0005984225    
0.0239848120    0.0223781180    0.0005888978    
0.0242074730    0.0226008090    0.0005870835    
0.0244301340    0.0222702930    0.0005834399    
0.0246527950    0.0230271600    0.0005987648    
0.0248754560    0.0237444020    0.0005943534    
0.0250981170    0.0222813080    0.0005770346    
0.0253207780    0.0219270600    0.0005553379    
0.0255434390    0.0221246420    0.0005637881    
0.0257661000    0.0232368110    0.0005796537    
0.0259887610    0.0219387760    0.0005572455    
0.0262114220    0.0224163650    0.0005662793    
0.0264340830    0.0226874020    0.0005619413    
0.0266567440    0.0218855040    0.0005485106    
0.0268794050    0.0226753190    0.0005560416    
0.0271020660    0.0209502440    0.0005323085    
0.0273247270    0.0215679500    0.0005368551    
0.0275473880    0.0222674890    0.0005444065    
0.0277700490    0.0223864520    0.0005426321    
0.0279927100    0.0219587360    0.0005327343    
0.0282153710    0.0213114380    0.0005273752    
0.0284380320    0.0215165600    0.0005268352    
0.0286606930    0.0219486350    0.0005275444    
0.0288833540    0.0221466530    0.0005309254    
0.0291060150    0.0220919360    0.0005297659    
0.0293286760    0.0218264100    0.0005192351    
0.0295513370    0.0211844610    0.0005059720    
0.0297739980    0.0218140800    0.0005190887    
0.0299966590    0.0213497700    0.0005047636    
0.0302193200    0.0217063100    0.0005163780    
0.0304419810    0.0216013280    0.0005160757    
0.0306646420    0.0216217320    0.0005017467    
0.0308873030    0.0218624400    0.0005023526    
0.0311099640    0.0212683380    0.0004967665    
0.0313326250    0.0207202940    0.0004848926    
0.0315552860    0.0214704160    0.0004999885    
0.0317779470    0.0234323410    0.0005227881    
0.0320006080    0.0212211240    0.0004862066    
0.0322232690    0.0211520360    0.0004874466    
0.0324459300    0.0204943420    0.0004762264    
0.0326685910    0.0209231590    0.0004803896    
0.0328912520    0.0207399850    0.0004798660    
0.0331139130    0.0208095910    0.0004744178    
0.0333365740    0.0213586240    0.0004821962    
0.0335592350    0.0198820790    0.0004607570    
0.0337818960    0.0207032960    0.0004698020    
0.0340045570    0.0213920990    0.0004767948    
0.0342272170    0.0209073710    0.0004695027    
0.0344498780    0.0216471720    0.0004796292    
0.0346725390    0.0212110890    0.0004659809    
0.0348952000    0.0213428800    0.0004652969    
0.0351178610    0.0217127290    0.0004714592    
0.0353405220    0.0205719660    0.0004568165    
0.0355631830    0.0213938690    0.0004640982    
0.0357858440    0.0205884660    0.0004552787    
0.0360085050    0.0207231980    0.0004581461    
0.0362311660    0.0208169120    0.0004537224    
0.0364538270    0.0212236650    0.0004544567    
0.0366764880    0.0213094800    0.0004550441    
0.0368991490    0.0210566970    0.0004500568    
0.0371218100    0.0207451000    0.0004454364    
0.0373444710    0.0214339570    0.0004577023    
0.0375671320    0.0205042350    0.0004470136    
0.0377897930    0.0206585330    0.0004370769    
0.0380124540    0.0212744060    0.0004463271    
0.0382351150    0.0212837840    0.0004464256    
0.0384577760    0.0203056540    0.0004318397    
0.0386804370    0.0205608090    0.0004378606    
0.0389030980    0.0206546710    0.0004355355    
0.0391257590    0.0210093670    0.0004362773    
0.0393484200    0.0213091300    0.0004378999    
0.0395710810    0.0206718070    0.0004318828    
0.0397937420    0.0205545220    0.0004306560    
0.0400164030    0.0208312600    0.0004353091    
0.0402390640    0.0205547180    0.0004266522    
0.0404617250    0.0209955520    0.0004286592    
0.0406843860    0.0204716380    0.0004191876    
0.0409070470    0.0207163500    0.0004260784    
0.0411297080    0.0208073500    0.0004228822    
0.0413523690    0.0202927580    0.0004186967    
0.0415750300    0.0199712170    0.0004188947    
0.0417976910    0.0206774290    0.0004152128    
0.0420203520    0.0198586570    0.0004084380    
0.0422430130    0.0200516270    0.0004119714    
0.0424656740    0.0200525180    0.0004066185    
0.0426883350    0.0206850820    0.0004150319    
0.0429109960    0.0204290870    0.0004137444    
0.0431336570    0.0209652040    0.0004132328    
0.0433563180    0.0200689880    0.0004077917    
0.0435789790    0.0199410750    0.0004001039    
0.0438016400    0.0202803610    0.0004056884    
0.0440243010    0.0209125680    0.0004077834    
0.0442469620    0.0202948480    0.0004041227    
0.0444696230    0.0213240130    0.0004127572    
0.0446922840    0.0206574880    0.0004050488    
0.0449149450    0.0204026500    0.0003971613    
0.0451376060    0.0205610880    0.0004036244    
0.0453602670    0.0197210720    0.0003911495    
0.0455829280    0.0203101840    0.0003964897    
0.0458055890    0.0200779050    0.0003965148    
0.0460282500    0.0199481780    0.0003904658    
0.0462509110    0.0203424070    0.0003918528    
0.0464735720    0.0204636210    0.0003932404    
0.0466962330    0.0201696830    0.0003921807    
0.0469188940    0.0200858180    0.0003902551    
0.0471415550    0.0207522980    0.0003987142    
0.0473642160    0.0208529420    0.0003940836    
0.0475868770    0.0197982950    0.0003820812    
0.0478095380    0.0200347200    0.0003826738    
0.0480321990    0.0195646680    0.0003789866    
0.0482548600    0.0205880680    0.0003870786    
0.0484775210    0.0206500650    0.0003915100    
0.0487001820    0.0207057580    0.0003862988    
0.0489228430    0.0206115190    0.0003852116    
0.0491455040    0.0197593880    0.0003745561    
0.0493681650    0.0202810160    0.0003827288    
0.0495908260    0.0205537910    0.0003788114    
0.0498134870    0.0203279570    0.0003803108    
0.0500361480    0.0202063780    0.0003781686    
0.0502588090    0.0202371530    0.0003727858    
0.0504814700    0.0199803800    0.0003752556    
0.0507041310    0.0202719060    0.0003734893    
0.0509267920    0.0202040820    0.0003744066    
0.0511494530    0.0201614560    0.0003715175    
0.0513721140    0.0199050240    0.0003723982    
0.0515947750    0.0197673580    0.0003661878    
0.0518174360    0.0203140770    0.0003689811    
0.0520400970    0.0203506040    0.0003667520    
0.0522627580    0.0193938460    0.0003610697    
0.0524854190    0.0207421390    0.0003764460    
0.0527080800    0.0201834160    0.0003742164    
0.0529307410    0.0195890440    0.0003703966    
0.0531534020    0.0200167910    0.0003730556    
0.0533760630    0.0197575110    0.0003717919    
0.0535987240    0.0195180050    0.0003678063    
0.0538213850    0.0194622220    0.0003715356    
0.0540440460    0.0197702390    0.0003726918    
0.0542667070    0.0199724480    0.0003771745    
0.0544893680    0.0199937370    0.0003775765    
0.0547120290    0.0203044780    0.0003778926    
0.0549346900    0.0200864720    0.0003760562    
0.0551573510    0.0192648700    0.0003726204    
0.0553800120    0.0201573630    0.0003779137    
0.0556026730    0.0195845520    0.0003802288    
0.0558253340    0.0200790450    0.0003882229    
0.0560479950    0.0200115090    0.0003875697    
0.0562706560    0.0204998010    0.0003960621    
0.0564933170    0.0203435330    0.0003979758    
0.0567159780    0.0202310300    0.0003921155    
0.0569386390    0.0195691970    0.0003916974    
0.0571613000    0.0197939290    0.0003854579    
0.0573839610    0.0198726120    0.0003830164    
0.0576066220    0.0204430190    0.0003895499    
0.0578292830    0.0201899700    0.0003858504    
0.0580519440    0.0193139010    0.0003788496    
0.0582746050    0.0199173590    0.0003830261    
0.0584972660    0.0198017210    0.0003804507    
0.0587199270    0.0198569250    0.0003776965    
0.0589425880    0.0192134970    0.0003693538    
0.0591652490    0.0203670400    0.0003825176    
0.0593879100    0.0201930470    0.0003780515    
0.0596105710    0.0204047320    0.0003796270    
0.0598332320    0.0196486880    0.0003757119    
0.0600558930    0.0195053300    0.0003719521    
0.0602785540    0.0196198260    0.0003726478    
0.0605012150    0.0203900540    0.0003790916    
0.0607238760    0.0197327770    0.0003702138    
0.0609465370    0.0191839250    0.0003679026    
0.0611691980    0.0195278990    0.0003717745    
0.0613918590    0.0201978610    0.0003739703    
0.0616145200    0.0192510110    0.0003677717    
0.0618371810    0.0203282180    0.0003742094    
0.0620598420    0.0203977660    0.0003752355    
0.0622825030    0.0192190670    0.0003698026    
0.0625051640    0.0200733500    0.0003726243    
0.0627278250    0.0198667710    0.0003699386    
0.0629504860    0.0194095230    0.0003626840    
0.0631731470    0.0202331130    0.0003748802    
0.0633958080    0.0194970920    0.0003701164    
0.0636184690    0.0195311220    0.0003755985    
0.0638411300    0.0194206100    0.0003731284    
0.0640637910    0.0204581180    0.0003856591    
0.0642864520    0.0202249000    0.0003826249    
0.0645091130    0.0205514540    0.0003890814    
0.0647317740    0.0198511750    0.0003828167    
0.0649544350    0.0200506040    0.0003843115    
0.0651770960    0.0195701530    0.0003776080    
0.0653997570    0.0202253150    0.0003830442    
0.0656224180    0.0201457920    0.0003831217    
0.0658450790    0.0200804490    0.0003770021    
0.0660677400    0.0200589970    0.0003784043    
0.0662904010    0.0197293910    0.0003797626    
0.0665130620    0.0197615010    0.0003784229    
0.0667357230    0.0195321350    0.0003829094    
0.0669583840    0.0196029770    0.0003823198    
0.0671810450    0.0194977240    0.0003791868    
0.0674037060    0.0197902680    0.0003884928    
0.0676263670    0.0202079590    0.0003896970    
0.0678490280    0.0196868780    0.0003822875    
0.0680716890    0.0194987040    0.0003813027    
0.0682943500    0.0202044950    0.0003838912    
0.0685170110    0.0201950070    0.0003798901    
0.0687396720    0.0194409920    0.0003717404    
0.0689623330    0.0198335880    0.0003742853    
0.0691849940    0.0195221340    0.0003739077    
0.0694076550    0.0192723790    0.0003713099    
0.0696303160    0.0197640530    0.0003730395    
0.0698529770    0.0198916410    0.0003734573    
0.0700756380    0.0195003810    0.0003650195    
0.0702982990    0.0196481300    0.0003703899    
0.0705209600    0.0193998560    0.0003653852    
0.0707436210    0.0197675820    0.0003671381    
0.0709662820    0.0196900980    0.0003707860    
0.0711889430    0.0195091080    0.0003645448    
0.0714116040    0.0198077130    0.0003680739    
0.0716342650    0.0194707990    0.0003634484    
0.0718569260    0.0190854640    0.0003583848    
0.0720795870    0.0199932370    0.0003682926    
0.0723022480    0.0192444280    0.0003618806    
0.0725249090    0.0204403440    0.0003684889    
0.0727475700    0.0199328850    0.0003669942    
0.0729702310    0.0192105780    0.0003574100    
0.0731928920    0.0195387150    0.0003618901    
0.0734155530    0.0194942000    0.0003607564    
0.0736382140    0.0191920660    0.0003556526    
0.0738608750    0.0192672630    0.0003586508    
0.0740835360    0.0196965140    0.0003617237    
0.0743061970    0.0198947610    0.0003584205    
0.0745288580    0.0197853310    0.0003611087    
0.0747515190    0.0192283500    0.0003566927    
0.0749741800    0.0197378360    0.0003580422    
0.0751968410    0.0193035130    0.0003568611    
0.0754195020    0.0195017970    0.0003565877    
0.0756421630    0.0197871810    0.0003562512    
0.0758648240    0.0194635130    0.0003541749    
0.0760874850    0.0196251070    0.0003554713    
0.0763101460    0.0196645820    0.0003554872    
0.0765328070    0.0197083530    0.0003595242    
0.0767554680    0.0191894700    0.0003523525    
0.0769781290    0.0203830020    0.0003610581    
0.0772007900    0.0192014460    0.0003476265    
0.0774234510    0.0196241910    0.0003534313    
0.0776461120    0.0194408560    0.0003514428    
0.0778687730    0.0202340730    0.0003573564    
0.0780914340    0.0200249210    0.0003580449    
0.0783140950    0.0196177450    0.0003487634    
0.0785367560    0.0197689040    0.0003557492    
0.0787594170    0.0196740390    0.0003517149    
0.0789820780    0.0196845330    0.0003500060    
0.0792047390    0.0195378370    0.0003498395    
0.0794274000    0.0194005200    0.0003500850    
0.0796500610    0.0192280850    0.0003451240    
0.0798727220    0.0198974870    0.0003507561    
0.0800953830    0.0202307540    0.0003528680    
0.0803180440    0.0195088260    0.0003489287    
0.0805407050    0.0195410800    0.0003488922    
0.0807633660    0.0197473080    0.0003504029    
0.0809860270    0.0195091560    0.0003469974    
0.0812086880    0.0198285160    0.0003468029    
0.0814313490    0.0196119230    0.0003464766    
0.0816540100    0.0196933360    0.0003464046    
0.0818766710    0.0195140430    0.0003456114    
0.0820993320    0.0194734750    0.0003446228    
0.0823219930    0.0197020830    0.0003480694    
0.0825446540    0.0197198410    0.0003456962    
0.0827673150    0.0194617440    0.0003411193    
0.0829899760    0.0194699650    0.0003405839    
0.0832126370    0.0198972420    0.0003458429    
0.0834352980    0.0197545050    0.0003438297    
0.0836579590    0.0198811390    0.0003441622    
0.0838806200    0.0197539640    0.0003441332    
0.0841032810    0.0199120930    0.0003433630    
0.0843259420    0.0193188790    0.0003371681    
0.0845486030    0.0195013280    0.0003387567    
0.0847712640    0.0200549340    0.0003414379    
0.0849939250    0.0198798430    0.0003405361    
0.0852165860    0.0190488250    0.0003337792    
0.0854392470    0.0198087250    0.0003371484    
0.0856619080    0.0197172510    0.0003388464    
0.0858845690    0.0192893390    0.0003321308    
0.0861072300    0.0191333280    0.0003330685    
0.0863298910    0.0194572690    0.0003376350    
0.0865525520    0.0199576200    0.0003389959    
0.0867752130    0.0191949280    0.0003297728    
0.0869978740    0.0191505290    0.0003302306    
0.0872205350    0.0192381500    0.0003305641    
0.0874431960    0.0194767400    0.0003326079    
0.0876658570    0.0194377090    0.0003335502    
0.0878885180    0.0193148900    0.0003330649    
0.0881111790    0.0194944970    0.0003341805    
0.0883338400    0.0193616700    0.0003281639    
0.0885565010    0.0190218240    0.0003296820    
0.0887791620    0.0198287320    0.0003322370    
0.0890018230    0.0193809940    0.0003316505    
0.0892244840    0.0191166620    0.0003299411    
0.0894471450    0.0189555060    0.0003271596    
0.0896698060    0.0193787830    0.0003295445    
0.0898924670    0.0192081740    0.0003296114    
0.0901151280    0.0189282970    0.0003236670    
0.0903377890    0.0191958020    0.0003286740    
0.0905604500    0.0197560600    0.0003319057    
0.0907831110    0.0192140140    0.0003265065    
0.0910057720    0.0196595350    0.0003317858    
0.0912284330    0.0193671730    0.0003245946    
0.0914510940    0.0199072020    0.0003327587    
0.0916737550    0.0196812230    0.0003300435    
0.0918964160    0.0193708990    0.0003287929    
0.0921190770    0.0198771210    0.0003300500    
0.0923417380    0.0198385840    0.0003298651    
0.0925643990    0.0200308810    0.0003306488    
0.0927870600    0.0200029070    0.0003317729    
0.0930097210    0.0196474040    0.0003260110    
0.0932323820    0.0190260850    0.0003231731    
