# Diamond Light Source Ltd.
# Data extracted from: /dls/b21/data/2018/cm19678-3/processed/b21-386631_00302.dat
q(1/A)          Column          Error           
0.0035000000    2.0851702000    0.0246356320    
0.0037226610    1.8802988000    0.0229015410    
0.0039453220    1.6348268000    0.0194264650    
0.0041679830    1.3244081000    0.0143593110    
0.0043906440    0.9812331400    0.0118220860    
0.0046133050    0.7799672900    0.0101183590    
0.0048359660    0.6050830000    0.0084299894    
0.0050586270    0.4629372600    0.0072475640    
0.0052812880    0.4405142100    0.0066844396    
0.0055039490    0.3902948600    0.0059826282    
0.0057266100    0.3255385000    0.0052858025    
0.0059492710    0.2667476300    0.0047847589    
0.0061719320    0.2276109400    0.0042590626    
0.0063945930    0.2052417300    0.0040933892    
0.0066172539    0.1901797000    0.0036999662    
0.0068399149    0.1737068100    0.0034804066    
0.0070625759    0.1518545500    0.0032207578    
0.0072852369    0.1320992600    0.0029590121    
0.0075078979    0.1216813700    0.0028259809    
0.0077305589    0.1022481700    0.0025411608    
0.0079532199    0.1034261200    0.0025203403    
0.0081758809    0.0939099510    0.0024239367    
0.0083985419    0.0864291330    0.0021688769    
0.0086212029    0.0788094480    0.0020710663    
0.0088438639    0.0736925060    0.0019866168    
0.0090665249    0.0688928960    0.0018552067    
0.0092891859    0.0637877880    0.0018632612    
0.0095118469    0.0627164560    0.0017767343    
0.0097345079    0.0566417310    0.0016398960    
0.0099571689    0.0569711830    0.0016107442    
0.0101798300    0.0531457900    0.0015557272    
0.0104024910    0.0510226260    0.0015191766    
0.0106251520    0.0528725660    0.0015517233    
0.0108478130    0.0487183960    0.0014505691    
0.0110704740    0.0478399550    0.0013685326    
0.0112931350    0.0468612420    0.0013584395    
0.0115157960    0.0446038160    0.0013175882    
0.0117384570    0.0411614020    0.0012548275    
0.0119611180    0.0396666420    0.0012353673    
0.0121837790    0.0410222160    0.0012351832    
0.0124064400    0.0392787790    0.0011582680    
0.0126291010    0.0385348440    0.0011328879    
0.0128517620    0.0361166830    0.0010995048    
0.0130744230    0.0385179630    0.0011270467    
0.0132970840    0.0357583000    0.0010806121    
0.0135197450    0.0346780300    0.0010489248    
0.0137424060    0.0348606540    0.0010370419    
0.0139650670    0.0329710570    0.0009860796    
0.0141877280    0.0330577120    0.0009895567    
0.0144103890    0.0318703240    0.0009548692    
0.0146330500    0.0316928850    0.0009461616    
0.0148557110    0.0312035970    0.0009348933    
0.0150783720    0.0325357710    0.0009467518    
0.0153010330    0.0321871160    0.0009283887    
0.0155236940    0.0306676600    0.0009008219    
0.0157463550    0.0286943440    0.0008562615    
0.0159690160    0.0304041750    0.0008780589    
0.0161916770    0.0287336930    0.0008487878    
0.0164143380    0.0288907170    0.0008575519    
0.0166369990    0.0273996440    0.0008093803    
0.0168596600    0.0292444170    0.0008288163    
0.0170823210    0.0286940420    0.0008138721    
0.0173049820    0.0271023380    0.0007923441    
0.0175276430    0.0272511550    0.0008028949    
0.0177503040    0.0278114340    0.0007904293    
0.0179729650    0.0267560400    0.0007675978    
0.0181956260    0.0271594030    0.0007585360    
0.0184182870    0.0280162500    0.0007667775    
0.0186409480    0.0258429800    0.0007410983    
0.0188636090    0.0260435880    0.0007392902    
0.0190862700    0.0277613640    0.0007620884    
0.0193089310    0.0264444310    0.0007426336    
0.0195315920    0.0256104730    0.0007059755    
0.0197542530    0.0256265950    0.0007072265    
0.0199769140    0.0262121320    0.0007152607    
0.0201995750    0.0270239970    0.0007148805    
0.0204222360    0.0255085080    0.0007005083    
0.0206448970    0.0265695600    0.0007098479    
0.0208675580    0.0257230630    0.0006840659    
0.0210902190    0.0255171680    0.0006878968    
0.0213128800    0.0247572050    0.0006683817    
0.0215355410    0.0255626220    0.0006710760    
0.0217582020    0.0247522380    0.0006603532    
0.0219808630    0.0238965850    0.0006479871    
0.0222035240    0.0251736190    0.0006590495    
0.0224261850    0.0253715480    0.0006557466    
0.0226488460    0.0257598890    0.0006557843    
0.0228715070    0.0241369940    0.0006332138    
0.0230941680    0.0238546020    0.0006294989    
0.0233168290    0.0251422160    0.0006478748    
0.0235394900    0.0244923550    0.0006323899    
0.0237621510    0.0241654230    0.0006112444    
0.0239848120    0.0243918360    0.0006148117    
0.0242074730    0.0241706570    0.0006071190    
0.0244301340    0.0254027540    0.0006231108    
0.0246527950    0.0244430430    0.0006168868    
0.0248754560    0.0233269420    0.0005890942    
0.0250981170    0.0239092760    0.0005977319    
0.0253207780    0.0242890220    0.0005844722    
0.0255434390    0.0251119460    0.0006006336    
0.0257661000    0.0243348220    0.0005931795    
0.0259887610    0.0237495870    0.0005797758    
0.0262114220    0.0229161740    0.0005725466    
0.0264340830    0.0239530840    0.0005773923    
0.0266567440    0.0236854790    0.0005706102    
0.0268794050    0.0234788980    0.0005657977    
0.0271020660    0.0233432790    0.0005618773    
0.0273247270    0.0232240800    0.0005570750    
0.0275473880    0.0241831920    0.0005673305    
0.0277700490    0.0232536630    0.0005530320    
0.0279927100    0.0227204130    0.0005418846    
0.0282153710    0.0234638710    0.0005533562    
0.0284380320    0.0234248080    0.0005496904    
0.0286606930    0.0225817590    0.0005350887    
0.0288833540    0.0238640160    0.0005511158    
0.0291060150    0.0235519750    0.0005469813    
0.0293286760    0.0238389140    0.0005426350    
0.0295513370    0.0235279920    0.0005332144    
0.0297739980    0.0234436820    0.0005381182    
0.0299966590    0.0230196390    0.0005241220    
0.0302193200    0.0225776310    0.0005266300    
0.0304419810    0.0235608230    0.0005389644    
0.0306646420    0.0229016270    0.0005163738    
0.0308873030    0.0226349570    0.0005111412    
0.0311099640    0.0228570790    0.0005149767    
0.0313326250    0.0228413790    0.0005090969    
0.0315552860    0.0231578230    0.0005192546    
0.0317779470    0.0236297200    0.0005249753    
0.0320006080    0.0226684180    0.0005025034    
0.0322232690    0.0229035340    0.0005072171    
0.0324459300    0.0233374280    0.0005081766    
0.0326685910    0.0227421750    0.0005008269    
0.0328912520    0.0230928910    0.0005063451    
0.0331139130    0.0222796880    0.0004908802    
0.0333365740    0.0227185250    0.0004973005    
0.0335592350    0.0231058940    0.0004967000    
0.0337818960    0.0225254340    0.0004900308    
0.0340045570    0.0230596520    0.0004950202    
0.0342272170    0.0229097230    0.0004914620    
0.0344498780    0.0229002820    0.0004933069    
0.0346725390    0.0222032300    0.0004767453    
0.0348952000    0.0222448420    0.0004750179    
0.0351178610    0.0218142660    0.0004725512    
0.0353405220    0.0229752080    0.0004827534    
0.0355631830    0.0229132170    0.0004802860    
0.0357858440    0.0212219210    0.0004622207    
0.0360085050    0.0211579210    0.0004629177    
0.0362311660    0.0222994500    0.0004695922    
0.0364538270    0.0223029720    0.0004658600    
0.0366764880    0.0220762830    0.0004631501    
0.0368991490    0.0221332150    0.0004614092    
0.0371218100    0.0225136460    0.0004640263    
0.0373444710    0.0217263410    0.0004608047    
0.0375671320    0.0220334150    0.0004633739    
0.0377897930    0.0218043680    0.0004490261    
0.0380124540    0.0218728500    0.0004525525    
0.0382351150    0.0227530230    0.0004615683    
0.0384577760    0.0229956640    0.0004595458    
0.0386804370    0.0221731230    0.0004546958    
0.0389030980    0.0221508060    0.0004510253    
0.0391257590    0.0223312250    0.0004497841    
0.0393484200    0.0221181760    0.0004461269    
0.0395710810    0.0208695170    0.0004339349    
0.0397937420    0.0214018720    0.0004394348    
0.0400164030    0.0210578710    0.0004376621    
0.0402390640    0.0220328240    0.0004417179    
0.0404617250    0.0216686130    0.0004354675    
0.0406843860    0.0217583310    0.0004321521    
0.0409070470    0.0213727780    0.0004327679    
0.0411297080    0.0223535110    0.0004383041    
0.0413523690    0.0226416720    0.0004422573    
0.0415750300    0.0217012860    0.0004366535    
0.0417976910    0.0223274350    0.0004314531    
0.0420203520    0.0230583460    0.0004401057    
0.0422430130    0.0219636910    0.0004311582    
0.0424656740    0.0219645840    0.0004255552    
0.0426883350    0.0220665750    0.0004286590    
0.0429109960    0.0218862740    0.0004282381    
0.0431336570    0.0213390580    0.0004168930    
0.0433563180    0.0211453760    0.0004185767    
0.0435789790    0.0217143910    0.0004175072    
0.0438016400    0.0212290500    0.0004150608    
0.0440243010    0.0217227960    0.0004155998    
0.0442469620    0.0219758570    0.0004205184    
0.0444696230    0.0214670040    0.0004141309    
0.0446922840    0.0221338790    0.0004192654    
0.0449149450    0.0213141180    0.0004059280    
0.0451376060    0.0221290650    0.0004187238    
0.0453602670    0.0215434010    0.0004088145    
0.0455829280    0.0216871040    0.0004097014    
0.0458055890    0.0214396260    0.0004097326    
0.0460282500    0.0215753080    0.0004060706    
0.0462509110    0.0218134730    0.0004057662    
0.0464735720    0.0217474340    0.0004053803    
0.0466962330    0.0210458210    0.0004006004    
0.0469188940    0.0214877440    0.0004036369    
0.0471415550    0.0211728170    0.0004027260    
0.0473642160    0.0212170580    0.0003975016    
0.0475868770    0.0212869630    0.0003961780    
0.0478095380    0.0209768150    0.0003915603    
0.0480321990    0.0218323070    0.0004003402    
0.0482548600    0.0217953010    0.0003982580    
0.0484775210    0.0216067740    0.0004004689    
0.0487001820    0.0218364250    0.0003966982    
0.0489228430    0.0211218600    0.0003899439    
0.0491455040    0.0219879580    0.0003951066    
0.0493681650    0.0220569290    0.0003991265    
0.0495908260    0.0213977450    0.0003865029    
0.0498134870    0.0209959780    0.0003865018    
0.0500361480    0.0219112280    0.0003937914    
0.0502588090    0.0211153270    0.0003807810    
0.0504814700    0.0215230150    0.0003894652    
0.0507041310    0.0214615270    0.0003842846    
0.0509267920    0.0211260570    0.0003828466    
0.0511494530    0.0213518440    0.0003823206    
0.0513721140    0.0215832720    0.0003877721    
0.0515947750    0.0209129850    0.0003766424    
0.0518174360    0.0214191060    0.0003788767    
0.0520400970    0.0218765590    0.0003802463    
0.0522627580    0.0212483900    0.0003779321    
0.0524854190    0.0208301600    0.0003772367    
0.0527080800    0.0209388870    0.0003811483    
0.0529307410    0.0208068730    0.0003817293    
0.0531534020    0.0208572690    0.0003807999    
0.0533760630    0.0207711790    0.0003812028    
0.0535987240    0.0208618430    0.0003802502    
0.0538213850    0.0209437850    0.0003854104    
0.0540440460    0.0212096910    0.0003860138    
0.0542667070    0.0210329480    0.0003870512    
0.0544893680    0.0206418180    0.0003836398    
0.0547120290    0.0203880950    0.0003786627    
0.0549346900    0.0211346950    0.0003857364    
0.0551573510    0.0208640730    0.0003877705    
0.0553800120    0.0212264160    0.0003877982    
0.0556026730    0.0212225540    0.0003958027    
0.0558253340    0.0221123760    0.0004073981    
0.0560479950    0.0214743960    0.0004014783    
0.0562706560    0.0210040330    0.0004008958    
0.0564933170    0.0211602020    0.0004058776    
0.0567159780    0.0198958730    0.0003888465    
0.0569386390    0.0214578710    0.0004101562    
0.0571613000    0.0205137430    0.0003923965    
0.0573839610    0.0208831610    0.0003926266    
0.0576066220    0.0214517310    0.0003990372    
0.0578292830    0.0210445480    0.0003939241    
0.0580519440    0.0209256900    0.0003943333    
0.0582746050    0.0208888580    0.0003922488    
0.0584972660    0.0209046730    0.0003908952    
0.0587199270    0.0205098960    0.0003838490    
0.0589425880    0.0199937690    0.0003767718    
0.0591652490    0.0213360840    0.0003915043    
0.0593879100    0.0208858770    0.0003844750    
0.0596105710    0.0202697620    0.0003783622    
0.0598332320    0.0207973600    0.0003865306    
0.0600558930    0.0212351740    0.0003880877    
0.0602785540    0.0207585690    0.0003833023    
0.0605012150    0.0207980470    0.0003828582    
0.0607238760    0.0203154410    0.0003756326    
0.0609465370    0.0211022170    0.0003858512    
0.0611691980    0.0205958730    0.0003817980    
0.0613918590    0.0200863060    0.0003729290    
0.0616145200    0.0210980210    0.0003850030    
0.0618371810    0.0202034520    0.0003730522    
0.0620598420    0.0202865460    0.0003742039    
0.0622825030    0.0208121520    0.0003848168    
0.0625051640    0.0206743450    0.0003781541    
0.0627278250    0.0210645850    0.0003809203    
0.0629504860    0.0193410130    0.0003620364    
0.0631731470    0.0207463100    0.0003795974    
0.0633958080    0.0202551240    0.0003772355    
0.0636184690    0.0200576380    0.0003806202    
0.0638411300    0.0205668510    0.0003839746    
0.0640637910    0.0211915910    0.0003925042    
0.0642864520    0.0203978500    0.0003842500    
0.0645091130    0.0210662760    0.0003939170    
0.0647317740    0.0208839090    0.0003926407    
0.0649544350    0.0208674470    0.0003920541    
0.0651770960    0.0210556890    0.0003916702    
0.0653997570    0.0210805310    0.0003910513    
0.0656224180    0.0205967370    0.0003873785    
0.0658450790    0.0204760380    0.0003806902    
0.0660677400    0.0204793820    0.0003823416    
0.0662904010    0.0201306650    0.0003835978    
0.0665130620    0.0207897260    0.0003881356    
0.0667357230    0.0206573340    0.0003937767    
0.0669583840    0.0207952130    0.0003937668    
0.0671810450    0.0206104600    0.0003898493    
0.0674037060    0.0203233330    0.0003936827    
0.0676263670    0.0203424520    0.0003909842    
0.0678490280    0.0204358620    0.0003894842    
0.0680716890    0.0204970900    0.0003909353    
0.0682943500    0.0205611180    0.0003872569    
0.0685170110    0.0208802400    0.0003862739    
0.0687396720    0.0203287430    0.0003801259    
0.0689623330    0.0201647900    0.0003773902    
0.0691849940    0.0206098880    0.0003841760    
0.0694076550    0.0207381180    0.0003851636    
0.0696303160    0.0209813420    0.0003843485    
0.0698529770    0.0200801840    0.0003752159    
0.0700756380    0.0202170360    0.0003716593    
0.0702982990    0.0203735080    0.0003771579    
0.0705209600    0.0206102700    0.0003766043    
0.0707436210    0.0202645780    0.0003717176    
0.0709662820    0.0197801120    0.0003716255    
0.0711889430    0.0204074910    0.0003728367    
0.0714116040    0.0200463360    0.0003702773    
0.0716342650    0.0203451890    0.0003715126    
0.0718569260    0.0197845980    0.0003648830    
0.0720795870    0.0207183620    0.0003749047    
0.0723022480    0.0203868820    0.0003724602    
0.0725249090    0.0210573340    0.0003740019    
0.0727475700    0.0201483370    0.0003689652    
0.0729702310    0.0203202780    0.0003675809    
0.0731928920    0.0203489790    0.0003693106    
0.0734155530    0.0208286230    0.0003728922    
0.0736382140    0.0201008120    0.0003639684    
0.0738608750    0.0204948850    0.0003698931    
0.0740835360    0.0199614710    0.0003641416    
0.0743061970    0.0203072480    0.0003621102    
0.0745288580    0.0204172600    0.0003668232    
0.0747515190    0.0203656570    0.0003670829    
0.0749741800    0.0199514030    0.0003599671    
0.0751968410    0.0208002910    0.0003704311    
0.0754195020    0.0205246770    0.0003658129    
0.0756421630    0.0202097320    0.0003600281    
0.0758648240    0.0202232350    0.0003610141    
0.0760874850    0.0205450540    0.0003637005    
0.0763101460    0.0198951700    0.0003575585    
0.0765328070    0.0208159470    0.0003694815    
0.0767554680    0.0201527020    0.0003610807    
0.0769781290    0.0202095470    0.0003595117    
0.0772007900    0.0200377160    0.0003551090    
0.0774234510    0.0197762020    0.0003547907    
0.0776461120    0.0198657630    0.0003552559    
0.0778687730    0.0205425420    0.0003600632    
0.0780914340    0.0196592660    0.0003547541    
0.0783140950    0.0200696000    0.0003527503    
0.0785367560    0.0201778510    0.0003594031    
0.0787594170    0.0196104140    0.0003511390    
0.0789820780    0.0199015910    0.0003519237    
0.0792047390    0.0205518410    0.0003587960    
0.0794274000    0.0203220730    0.0003582964    
0.0796500610    0.0200635920    0.0003525358    
0.0798727220    0.0202615210    0.0003539434    
0.0800953830    0.0198607080    0.0003496192    
0.0803180440    0.0201820640    0.0003548915    
0.0805407050    0.0203625590    0.0003561434    
0.0807633660    0.0201382520    0.0003538476    
0.0809860270    0.0204588370    0.0003553360    
0.0812086880    0.0199551310    0.0003479018    
0.0814313490    0.0196662610    0.0003469496    
0.0816540100    0.0200764420    0.0003497511    
0.0818766710    0.0204803930    0.0003540587    
0.0820993320    0.0191495070    0.0003417376    
0.0823219930    0.0199718860    0.0003504379    
0.0825446540    0.0197372680    0.0003458423    
0.0827673150    0.0204953340    0.0003500536    
0.0829899760    0.0202913610    0.0003476873    
0.0832126370    0.0196921070    0.0003440490    
0.0834352980    0.0198494970    0.0003446488    
0.0836579590    0.0203152810    0.0003478930    
0.0838806200    0.0200769340    0.0003469284    
0.0841032810    0.0200889540    0.0003448779    
0.0843259420    0.0194299430    0.0003381294    
0.0845486030    0.0197183030    0.0003406295    
0.0847712640    0.0206819500    0.0003467277    
0.0849939250    0.0200190780    0.0003417200    
0.0852165860    0.0202587070    0.0003442094    
0.0854392470    0.0201465160    0.0003400044    
0.0856619080    0.0200833430    0.0003419711    
0.0858845690    0.0197975510    0.0003364712    
0.0861072300    0.0201414070    0.0003417235    
0.0863298910    0.0198314780    0.0003408598    
0.0865525520    0.0201411100    0.0003405442    
0.0867752130    0.0197833900    0.0003347832    
0.0869978740    0.0200267140    0.0003376941    
0.0872205350    0.0198508310    0.0003357802    
0.0874431960    0.0195668720    0.0003333702    
0.0876658570    0.0209193500    0.0003460226    
0.0878885180    0.0197736030    0.0003369902    
0.0881111790    0.0197114320    0.0003360283    
0.0883338400    0.0200394810    0.0003338523    
0.0885565010    0.0205638110    0.0003427778    
0.0887791620    0.0202287650    0.0003355652    
0.0890018230    0.0202712350    0.0003391755    
0.0892244840    0.0196568940    0.0003345642    
0.0894471450    0.0196266960    0.0003328950    
0.0896698060    0.0193332120    0.0003291504    
0.0898924670    0.0195581060    0.0003325939    
0.0901151280    0.0197632640    0.0003307225    
0.0903377890    0.0193526350    0.0003300077    
0.0905604500    0.0200340980    0.0003342267    
0.0907831110    0.0201065340    0.0003339974    
0.0910057720    0.0198883510    0.0003337047    
0.0912284330    0.0196601940    0.0003270346    
0.0914510940    0.0199342510    0.0003329783    
0.0916737550    0.0199848660    0.0003325734    
0.0918964160    0.0197496380    0.0003319853    
0.0921190770    0.0196187960    0.0003278920    
0.0923417380    0.0193003350    0.0003253533    
0.0925643990    0.0197299370    0.0003281493    
0.0927870600    0.0203378040    0.0003345323    
0.0930097210    0.0196250160    0.0003258190    
0.0932323820    0.0193272610    0.0003257147    
