# Diamond Light Source Ltd.
# Data extracted from: /dls/b21/data/2018/cm19678-3/processed/b21-386631_00299.dat
q(1/A)          Column          Error           
0.0035000000    2.1190296000    0.0248319990    
0.0037226610    1.9041294000    0.0230435670    
0.0039453220    1.6695320000    0.0196293300    
0.0041679830    1.3026249000    0.0142391020    
0.0043906440    0.9878434700    0.0118604810    
0.0046133050    0.7971112600    0.0102277840    
0.0048359660    0.5893275100    0.0083185593    
0.0050586270    0.4616967300    0.0072370171    
0.0052812880    0.4353428300    0.0066443263    
0.0055039490    0.3922224100    0.0059966958    
0.0057266100    0.3196290200    0.0052370059    
0.0059492710    0.2691748600    0.0048059277    
0.0061719320    0.2264432700    0.0042476368    
0.0063945930    0.2079697800    0.0041200314    
0.0066172539    0.1898482300    0.0036963166    
0.0068399149    0.1707388400    0.0034501496    
0.0070625759    0.1503855400    0.0032047740    
0.0072852369    0.1299484500    0.0029344878    
0.0075078979    0.1195537300    0.0028008442    
0.0077305589    0.1023510100    0.0025421469    
0.0079532199    0.1011919000    0.0024926836    
0.0081758809    0.0945764770    0.0024322445    
0.0083985419    0.0879873200    0.0021880895    
0.0086212029    0.0805326250    0.0020933459    
0.0088438639    0.0758173430    0.0020148232    
0.0090665249    0.0714244050    0.0018887680    
0.0092891859    0.0644261300    0.0018723464    
0.0095118469    0.0632556270    0.0017841507    
0.0097345079    0.0619925740    0.0017154106    
0.0099571689    0.0574589520    0.0016174394    
0.0101798300    0.0529970150    0.0015533700    
0.0104024910    0.0519605990    0.0015329011    
0.0106251520    0.0483529640    0.0014837504    
0.0108478130    0.0529388820    0.0015119225    
0.0110704740    0.0463025290    0.0013462086    
0.0112931350    0.0463780560    0.0013512630    
0.0115157960    0.0438542540    0.0013063206    
0.0117384570    0.0415344180    0.0012603559    
0.0119611180    0.0411961530    0.0012588151    
0.0121837790    0.0436899850    0.0012745678    
0.0124064400    0.0406356780    0.0011779695    
0.0126291010    0.0397247440    0.0011501140    
0.0128517620    0.0370119490    0.0011129211    
0.0130744230    0.0372562670    0.0011083071    
0.0132970840    0.0349991860    0.0010689578    
0.0135197450    0.0342894380    0.0010429116    
0.0137424060    0.0355312080    0.0010468483    
0.0139650670    0.0343197770    0.0010059305    
0.0141877280    0.0335831990    0.0009972764    
0.0144103890    0.0328068940    0.0009686869    
0.0146330500    0.0319962610    0.0009505704    
0.0148557110    0.0317285190    0.0009426161    
0.0150783720    0.0316744780    0.0009340294    
0.0153010330    0.0306001980    0.0009051095    
0.0155236940    0.0303167220    0.0008955502    
0.0157463550    0.0310890570    0.0008911735    
0.0159690160    0.0304225560    0.0008782235    
0.0161916770    0.0289527110    0.0008519189    
0.0164143380    0.0273317330    0.0008339980    
0.0166369990    0.0280626590    0.0008190205    
0.0168596600    0.0272650470    0.0008001845    
0.0170823210    0.0277181370    0.0007998205    
0.0173049820    0.0285551460    0.0008132103    
0.0175276430    0.0275287080    0.0008068807    
0.0177503040    0.0264574780    0.0007708605    
0.0179729650    0.0267939380    0.0007680531    
0.0181956260    0.0273014390    0.0007604297    
0.0184182870    0.0260166180    0.0007388223    
0.0186409480    0.0265594720    0.0007512153    
0.0188636090    0.0264782210    0.0007453481    
0.0190862700    0.0260608360    0.0007382940    
0.0193089310    0.0260630600    0.0007371746    
0.0195315920    0.0255462320    0.0007050087    
0.0197542530    0.0271427430    0.0007277633    
0.0199769140    0.0269281080    0.0007248803    
0.0201995750    0.0273959370    0.0007197008    
0.0204222360    0.0273297730    0.0007250016    
0.0206448970    0.0255206480    0.0006956154    
0.0208675580    0.0248259760    0.0006719547    
0.0210902190    0.0251775950    0.0006832259    
0.0213128800    0.0241381530    0.0006598967    
0.0215355410    0.0247993930    0.0006609060    
0.0217582020    0.0249226950    0.0006625472    
0.0219808630    0.0248397240    0.0006605749    
0.0222035240    0.0263753520    0.0006745195    
0.0224261850    0.0247557330    0.0006476654    
0.0226488460    0.0239513710    0.0006322727    
0.0228715070    0.0238657310    0.0006295734    
0.0230941680    0.0239986050    0.0006313237    
0.0233168290    0.0255704150    0.0006532936    
0.0235394900    0.0244051170    0.0006311903    
0.0237621510    0.0239434800    0.0006083613    
0.0239848120    0.0237200380    0.0006062165    
0.0242074730    0.0240431460    0.0006054460    
0.0244301340    0.0236243400    0.0006008346    
0.0246527950    0.0229120450    0.0005971865    
0.0248754560    0.0241991280    0.0005999374    
0.0250981170    0.0249794650    0.0006108928    
0.0253207780    0.0233273010    0.0005727186    
0.0255434390    0.0238566240    0.0005853615    
0.0257661000    0.0239244780    0.0005880896    
0.0259887610    0.0236592400    0.0005786056    
0.0262114220    0.0218097080    0.0005584894    
0.0264340830    0.0230431220    0.0005662538    
0.0266567440    0.0231440520    0.0005639860    
0.0268794050    0.0236507250    0.0005677991    
0.0271020660    0.0229593280    0.0005571733    
0.0273247270    0.0236328990    0.0005618923    
0.0275473880    0.0229534630    0.0005526545    
0.0277700490    0.0237085650    0.0005583511    
0.0279927100    0.0239685460    0.0005565058    
0.0282153710    0.0236150550    0.0005550725    
0.0284380320    0.0235612950    0.0005512262    
0.0286606930    0.0225385530    0.0005345153    
0.0288833540    0.0231459690    0.0005426990    
0.0291060150    0.0238640860    0.0005505305    
0.0293286760    0.0226973460    0.0005294224    
0.0295513370    0.0225319180    0.0005217455    
0.0297739980    0.0231542810    0.0005347252    
0.0299966590    0.0231098060    0.0005250873    
0.0302193200    0.0227566690    0.0005286534    
0.0304419810    0.0226556060    0.0005284488    
0.0306646420    0.0225820900    0.0005126999    
0.0308873030    0.0237837580    0.0005238917    
0.0311099640    0.0227590390    0.0005138122    
0.0313326250    0.0224050570    0.0005041532    
0.0315552860    0.0231175930    0.0005187439    
0.0317779470    0.0226214940    0.0005135946    
0.0320006080    0.0227634520    0.0005034979    
0.0322232690    0.0228758220    0.0005068520    
0.0324459300    0.0234648340    0.0005095035    
0.0326685910    0.0212152830    0.0004836668    
0.0328912520    0.0228212010    0.0005033000    
0.0331139130    0.0228368510    0.0004969232    
0.0333365740    0.0231377620    0.0005018105    
0.0335592350    0.0213712540    0.0004776370    
0.0337818960    0.0227867190    0.0004928082    
0.0340045570    0.0217900940    0.0004811453    
0.0342272170    0.0220085290    0.0004816436    
0.0344498780    0.0223956960    0.0004877859    
0.0346725390    0.0226382140    0.0004813374    
0.0348952000    0.0225338380    0.0004780388    
0.0351178610    0.0218194990    0.0004725537    
0.0353405220    0.0215400240    0.0004673787    
0.0355631830    0.0225254930    0.0004761505    
0.0357858440    0.0227066780    0.0004780618    
0.0360085050    0.0227934710    0.0004804218    
0.0362311660    0.0226700290    0.0004734238    
0.0364538270    0.0218795300    0.0004613635    
0.0366764880    0.0226055160    0.0004686150    
0.0368991490    0.0223974100    0.0004641016    
0.0371218100    0.0217817870    0.0004563695    
0.0373444710    0.0223076320    0.0004668749    
0.0375671320    0.0228857260    0.0004721969    
0.0377897930    0.0235281570    0.0004663844    
0.0380124540    0.0220456980    0.0004542850    
0.0382351150    0.0213061750    0.0004466007    
0.0384577760    0.0218335270    0.0004477318    
0.0386804370    0.0219070200    0.0004519073    
0.0389030980    0.0215305680    0.0004446150    
0.0391257590    0.0223895060    0.0004503190    
0.0393484200    0.0227608440    0.0004525099    
0.0395710810    0.0216495280    0.0004419191    
0.0397937420    0.0222629460    0.0004481362    
0.0400164030    0.0219442730    0.0004467274    
0.0402390640    0.0221605770    0.0004429459    
0.0404617250    0.0214624070    0.0004333409    
0.0406843860    0.0218477360    0.0004329894    
0.0409070470    0.0214204430    0.0004332006    
0.0411297080    0.0212485810    0.0004272852    
0.0413523690    0.0212546270    0.0004284476    
0.0415750300    0.0214415760    0.0004339831    
0.0417976910    0.0225557080    0.0004336033    
0.0420203520    0.0220872670    0.0004306893    
0.0422430130    0.0214847890    0.0004263829    
0.0424656740    0.0211434830    0.0004174773    
0.0426883350    0.0211540800    0.0004196544    
0.0429109960    0.0221995900    0.0004312429    
0.0431336570    0.0220425900    0.0004236610    
0.0433563180    0.0214967360    0.0004219916    
0.0435789790    0.0213964120    0.0004143915    
0.0438016400    0.0210375790    0.0004131374    
0.0440243010    0.0223855670    0.0004218439    
0.0442469620    0.0224615620    0.0004250913    
0.0444696230    0.0213183100    0.0004126468    
0.0446922840    0.0211680630    0.0004099690    
0.0449149450    0.0216183970    0.0004087683    
0.0451376060    0.0210783890    0.0004086156    
0.0453602670    0.0217168500    0.0004104099    
0.0455829280    0.0214345130    0.0004072618    
0.0458055890    0.0215129970    0.0004103860    
0.0460282500    0.0216467710    0.0004066959    
0.0462509110    0.0222310580    0.0004095847    
0.0464735720    0.0214175960    0.0004022483    
0.0466962330    0.0215060330    0.0004049102    
0.0469188940    0.0210962170    0.0003998969    
0.0471415550    0.0212598640    0.0004035067    
0.0473642160    0.0218525050    0.0004033640    
0.0475868770    0.0210388160    0.0003938169    
0.0478095380    0.0214031380    0.0003954738    
0.0480321990    0.0208585040    0.0003912651    
0.0482548600    0.0217248240    0.0003975680    
0.0484775210    0.0213272520    0.0003978245    
0.0487001820    0.0209307820    0.0003883402    
0.0489228430    0.0214337010    0.0003927668    
0.0491455040    0.0214292620    0.0003900099    
0.0493681650    0.0207521550    0.0003870970    
0.0495908260    0.0209042590    0.0003819762    
0.0498134870    0.0209200320    0.0003857579    
0.0500361480    0.0218000700    0.0003927462    
0.0502588090    0.0210898900    0.0003805079    
0.0504814700    0.0211869250    0.0003863681    
0.0507041310    0.0219931930    0.0003889708    
0.0509267920    0.0209131230    0.0003808686    
0.0511494530    0.0205940900    0.0003754322    
0.0513721140    0.0210907560    0.0003832783    
0.0515947750    0.0213286590    0.0003803236    
0.0518174360    0.0209451730    0.0003746187    
0.0520400970    0.0213693560    0.0003757694    
0.0522627580    0.0210486230    0.0003761082    
0.0524854190    0.0213376520    0.0003817606    
0.0527080800    0.0206080750    0.0003780821    
0.0529307410    0.0211871980    0.0003851581    
0.0531534020    0.0214502590    0.0003861309    
0.0533760630    0.0215288080    0.0003880482    
0.0535987240    0.0217024290    0.0003877908    
0.0538213850    0.0208326220    0.0003843422    
0.0540440460    0.0213663760    0.0003873925    
0.0542667070    0.0208073770    0.0003849260    
0.0544893680    0.0209507410    0.0003864556    
0.0547120290    0.0214170060    0.0003880555    
0.0549346900    0.0212143130    0.0003864180    
0.0551573510    0.0208376740    0.0003874807    
0.0553800120    0.0209311340    0.0003850472    
0.0556026730    0.0213283900    0.0003967429    
0.0558253340    0.0211542760    0.0003984287    
0.0560479950    0.0202913160    0.0003902176    
0.0562706560    0.0211904670    0.0004026249    
0.0564933170    0.0210775170    0.0004050374    
0.0567159780    0.0212361400    0.0004016841    
0.0569386390    0.0208415770    0.0004041768    
0.0571613000    0.0209292760    0.0003963054    
0.0573839610    0.0213728420    0.0003971577    
0.0576066220    0.0208457080    0.0003933152    
0.0578292830    0.0205900300    0.0003896023    
0.0580519440    0.0210249020    0.0003952217    
0.0582746050    0.0212301730    0.0003953950    
0.0584972660    0.0200448850    0.0003827284    
0.0587199270    0.0210366770    0.0003887026    
0.0589425880    0.0203086150    0.0003796832    
0.0591652490    0.0205555120    0.0003842320    
0.0593879100    0.0206192790    0.0003819695    
0.0596105710    0.0206393490    0.0003817522    
0.0598332320    0.0204406620    0.0003831577    
0.0600558930    0.0206488470    0.0003826486    
0.0602785540    0.0202514160    0.0003785477    
0.0605012150    0.0208003240    0.0003828353    
0.0607238760    0.0210398880    0.0003822277    
0.0609465370    0.0212102370    0.0003867932    
0.0611691980    0.0206123790    0.0003819072    
0.0613918590    0.0201509240    0.0003734856    
0.0616145200    0.0205593570    0.0003800128    
0.0618371810    0.0206877780    0.0003774539    
0.0620598420    0.0204337160    0.0003755157    
0.0622825030    0.0210279030    0.0003867620    
0.0625051640    0.0204206570    0.0003757837    
0.0627278250    0.0207154170    0.0003777068    
0.0629504860    0.0207255060    0.0003747274    
0.0631731470    0.0201096550    0.0003736847    
0.0633958080    0.0207210950    0.0003815063    
0.0636184690    0.0199375020    0.0003794351    
0.0638411300    0.0206338060    0.0003845550    
0.0640637910    0.0204090370    0.0003851447    
0.0642864520    0.0206898800    0.0003869465    
0.0645091130    0.0204281300    0.0003878603    
0.0647317740    0.0204879600    0.0003888562    
0.0649544350    0.0195444780    0.0003793793    
0.0651770960    0.0210435780    0.0003915127    
0.0653997570    0.0208798810    0.0003891412    
0.0656224180    0.0204463340    0.0003859173    
0.0658450790    0.0208888370    0.0003844644    
0.0660677400    0.0211455200    0.0003884656    
0.0662904010    0.0207326080    0.0003892461    
0.0665130620    0.0202850770    0.0003833519    
0.0667357230    0.0200897540    0.0003882848    
0.0669583840    0.0207755360    0.0003935354    
0.0671810450    0.0200675520    0.0003846364    
0.0674037060    0.0206770140    0.0003970480    
0.0676263670    0.0198870060    0.0003865382    
0.0678490280    0.0201565840    0.0003867693    
0.0680716890    0.0206340260    0.0003921940    
0.0682943500    0.0204688990    0.0003863432    
0.0685170110    0.0197609520    0.0003757351    
0.0687396720    0.0201606360    0.0003785076    
0.0689623330    0.0201036760    0.0003767747    
0.0691849940    0.0201612710    0.0003799283    
0.0694076550    0.0205474140    0.0003833446    
0.0696303160    0.0198573140    0.0003738686    
0.0698529770    0.0202017540    0.0003763068    
0.0700756380    0.0204036640    0.0003733280    
0.0702982990    0.0202920530    0.0003763600    
0.0705209600    0.0206193040    0.0003766436    
0.0707436210    0.0204712560    0.0003735656    
0.0709662820    0.0205085230    0.0003783628    
0.0711889430    0.0203210920    0.0003720040    
0.0714116040    0.0203699570    0.0003732114    
0.0716342650    0.0204897390    0.0003727872    
0.0718569260    0.0203452070    0.0003699740    
0.0720795870    0.0202863170    0.0003709326    
0.0723022480    0.0205114670    0.0003735537    
0.0725249090    0.0210724290    0.0003740930    
0.0727475700    0.0201166970    0.0003686331    
0.0729702310    0.0209272150    0.0003729873    
0.0731928920    0.0203175090    0.0003689826    
0.0734155530    0.0202899030    0.0003679961    
0.0736382140    0.0201489150    0.0003643619    
0.0738608750    0.0198694730    0.0003641639    
0.0740835360    0.0200631540    0.0003650260    
0.0743061970    0.0195924860    0.0003556397    
0.0745288580    0.0204059900    0.0003666799    
0.0747515190    0.0197788680    0.0003617144    
0.0749741800    0.0193949150    0.0003548708    
0.0751968410    0.0207295670    0.0003697584    
0.0754195020    0.0202853090    0.0003636318    
0.0756421630    0.0199165460    0.0003573660    
0.0758648240    0.0204118930    0.0003626525    
0.0760874850    0.0205274700    0.0003635031    
0.0763101460    0.0207065340    0.0003647348    
0.0765328070    0.0198538870    0.0003608009    
0.0767554680    0.0202451030    0.0003618660    
0.0769781290    0.0202049130    0.0003594293    
0.0772007900    0.0198569510    0.0003534631    
0.0774234510    0.0198162130    0.0003551087    
0.0776461120    0.0200009410    0.0003564217    
0.0778687730    0.0199888950    0.0003551372    
0.0780914340    0.0205891760    0.0003630057    
0.0783140950    0.0202695540    0.0003544625    
0.0785367560    0.0201220240    0.0003588644    
0.0787594170    0.0211836940    0.0003649108    
0.0789820780    0.0205627510    0.0003576807    
0.0792047390    0.0201525940    0.0003552531    
0.0794274000    0.0201405760    0.0003566520    
0.0796500610    0.0201456930    0.0003532159    
0.0798727220    0.0203557790    0.0003547251    
0.0800953830    0.0204283960    0.0003545400    
0.0803180440    0.0208138310    0.0003603620    
0.0805407050    0.0201274710    0.0003540410    
0.0807633660    0.0198228340    0.0003510254    
0.0809860270    0.0205713800    0.0003562711    
0.0812086880    0.0205630200    0.0003531206    
0.0814313490    0.0209223570    0.0003578171    
0.0816540100    0.0193164810    0.0003430282    
0.0818766710    0.0200656940    0.0003504156    
0.0820993320    0.0197853200    0.0003473247    
0.0823219930    0.0198935360    0.0003497097    
0.0825446540    0.0202961890    0.0003506647    
0.0827673150    0.0206460480    0.0003512981    
0.0829899760    0.0202867090    0.0003476076    
0.0832126370    0.0196515340    0.0003436549    
0.0834352980    0.0199526370    0.0003455034    
0.0836579590    0.0196911790    0.0003424682    
0.0838806200    0.0200243830    0.0003464343    
0.0841032810    0.0193799450    0.0003386985    
0.0843259420    0.0198667090    0.0003418695    
0.0845486030    0.0197902600    0.0003412114    
0.0847712640    0.0200611920    0.0003414455    
0.0849939250    0.0200553100    0.0003419899    
0.0852165860    0.0198564650    0.0003407361    
0.0854392470    0.0195911650    0.0003352470    
0.0856619080    0.0197352630    0.0003389558    
0.0858845690    0.0205076650    0.0003424132    
0.0861072300    0.0193310860    0.0003347406    
0.0863298910    0.0199675060    0.0003419876    
0.0865525520    0.0202343530    0.0003412924    
0.0867752130    0.0198921360    0.0003356635    
0.0869978740    0.0204320150    0.0003410550    
0.0872205350    0.0199030650    0.0003361831    
0.0874431960    0.0194488160    0.0003323249    
0.0876658570    0.0197987290    0.0003365885    
0.0878885180    0.0202226730    0.0003407563    
0.0881111790    0.0197183670    0.0003360489    
0.0883338400    0.0191118250    0.0003259961    
0.0885565010    0.0197136540    0.0003355789    
0.0887791620    0.0202686490    0.0003358573    
0.0890018230    0.0197219080    0.0003345100    
0.0892244840    0.0198516440    0.0003361790    
0.0894471450    0.0197746130    0.0003341088    
0.0896698060    0.0191102800    0.0003272097    
0.0898924670    0.0198533160    0.0003350562    
0.0901151280    0.0196148720    0.0003294408    
0.0903377890    0.0195057300    0.0003312724    
0.0905604500    0.0195110680    0.0003297972    
0.0907831110    0.0199299700    0.0003324896    
0.0910057720    0.0193128040    0.0003288030    
0.0912284330    0.0205530820    0.0003343401    
0.0914510940    0.0205858480    0.0003383378    
0.0916737550    0.0194435660    0.0003280009    
0.0918964160    0.0196558410    0.0003311580    
0.0921190770    0.0195923830    0.0003276336    
0.0923417380    0.0193342930    0.0003256021    
0.0925643990    0.0196708480    0.0003276200    
0.0927870600    0.0195629470    0.0003280601    
0.0930097210    0.0200910200    0.0003296268    
0.0932323820    0.0190978270    0.0003237385    
