# Diamond Light Source Ltd.
# Data extracted from: /dls/b21/data/2018/cm19678-3/processed/b21-386631_00311.dat
q(1/A)          Column          Error           
0.0035000000    2.0588591000    0.0244772940    
0.0037226610    1.8355857000    0.0226253720    
0.0039453220    1.6185790000    0.0193277810    
0.0041679830    1.2984637000    0.0142165670    
0.0043906440    0.9645202500    0.0117198170    
0.0046133050    0.7903123100    0.0101842340    
0.0048359660    0.5888765900    0.0083155087    
0.0050586270    0.4581947200    0.0072096330    
0.0052812880    0.4288664000    0.0065948236    
0.0055039490    0.3868254000    0.0059553902    
0.0057266100    0.3209263400    0.0052477068    
0.0059492710    0.2681537200    0.0047968796    
0.0061719320    0.2278847200    0.0042612027    
0.0063945930    0.2010384200    0.0040508565    
0.0066172539    0.1901421600    0.0036992358    
0.0068399149    0.1705351200    0.0034481456    
0.0070625759    0.1457461200    0.0031550031    
0.0072852369    0.1265728900    0.0028961699    
0.0075078979    0.1111583300    0.0027007557    
0.0077305589    0.1014071300    0.0025304382    
0.0079532199    0.1026074400    0.0025100977    
0.0081758809    0.0929531230    0.0024113185    
0.0083985419    0.0876636290    0.0021840958    
0.0086212029    0.0751480390    0.0020221847    
0.0088438639    0.0767300240    0.0020269463    
0.0090665249    0.0663818590    0.0018209034    
0.0092891859    0.0669857210    0.0019092078    
0.0095118469    0.0629556960    0.0017799442    
0.0097345079    0.0594312210    0.0016796256    
0.0099571689    0.0551842060    0.0015851249    
0.0101798300    0.0510863790    0.0015251364    
0.0104024910    0.0520979260    0.0015349499    
0.0106251520    0.0507221450    0.0015196900    
0.0108478130    0.0508678550    0.0014820770    
0.0110704740    0.0453254750    0.0013319505    
0.0112931350    0.0416549630    0.0012806307    
0.0115157960    0.0414040930    0.0012693239    
0.0117384570    0.0428743700    0.0012805453    
0.0119611180    0.0388125520    0.0012218745    
0.0121837790    0.0390805420    0.0012054778    
0.0124064400    0.0381782650    0.0011418138    
0.0126291010    0.0388935290    0.0011380358    
0.0128517620    0.0373812520    0.0011184775    
0.0130744230    0.0355429510    0.0010825404    
0.0132970840    0.0354573950    0.0010759496    
0.0135197450    0.0344174150    0.0010448727    
0.0137424060    0.0330956610    0.0010103485    
0.0139650670    0.0341439590    0.0010033665    
0.0141877280    0.0319257870    0.0009723715    
0.0144103890    0.0325219070    0.0009644856    
0.0146330500    0.0317713510    0.0009472387    
0.0148557110    0.0299652220    0.0009160636    
0.0150783720    0.0307389940    0.0009201477    
0.0153010330    0.0298247650    0.0008935821    
0.0155236940    0.0266933210    0.0008403439    
0.0157463550    0.0286120400    0.0008549482    
0.0159690160    0.0290037610    0.0008575142    
0.0161916770    0.0278005010    0.0008348085    
0.0164143380    0.0282996790    0.0008486510    
0.0166369990    0.0274420430    0.0008099263    
0.0168596600    0.0272894000    0.0008005545    
0.0170823210    0.0285037380    0.0008110887    
0.0173049820    0.0261011150    0.0007774941    
0.0175276430    0.0274113310    0.0008051715    
0.0177503040    0.0274914980    0.0007857922    
0.0179729650    0.0271030310    0.0007724828    
0.0181956260    0.0260314480    0.0007425443    
0.0184182870    0.0264790470    0.0007453713    
0.0186409480    0.0252641750    0.0007326798    
0.0188636090    0.0242340090    0.0007130735    
0.0190862700    0.0242837830    0.0007126893    
0.0193089310    0.0271272970    0.0007520866    
0.0195315920    0.0249049650    0.0006961149    
0.0197542530    0.0256800770    0.0007078943    
0.0199769140    0.0255630040    0.0007062789    
0.0201995750    0.0252224600    0.0006905729    
0.0204222360    0.0257150390    0.0007032690    
0.0206448970    0.0242510760    0.0006781031    
0.0208675580    0.0252269060    0.0006773697    
0.0210902190    0.0238990820    0.0006656635    
0.0213128800    0.0238322240    0.0006557121    
0.0215355410    0.0236200610    0.0006450103    
0.0217582020    0.0235320010    0.0006438069    
0.0219808630    0.0235229490    0.0006428379    
0.0222035240    0.0243406190    0.0006479897    
0.0224261850    0.0239940010    0.0006376334    
0.0226488460    0.0229339600    0.0006187079    
0.0228715070    0.0227537190    0.0006147409    
0.0230941680    0.0226374680    0.0006131686    
0.0233168290    0.0229172960    0.0006184835    
0.0235394900    0.0233774190    0.0006177675    
0.0237621510    0.0228158180    0.0005938720    
0.0239848120    0.0235658570    0.0006042527    
0.0242074730    0.0230986220    0.0005934440    
0.0244301340    0.0239612840    0.0006051138    
0.0246527950    0.0224613680    0.0005912934    
0.0248754560    0.0232777150    0.0005884142    
0.0250981170    0.0246814530    0.0006072475    
0.0253207780    0.0224843540    0.0005622846    
0.0255434390    0.0227226860    0.0005712897    
0.0257661000    0.0227687330    0.0005737182    
0.0259887610    0.0217921000    0.0005553141    
0.0262114220    0.0220249310    0.0005612472    
0.0264340830    0.0221254410    0.0005548727    
0.0266567440    0.0217978840    0.0005473470    
0.0268794050    0.0225472890    0.0005544043    
0.0271020660    0.0228654070    0.0005560414    
0.0273247270    0.0222442230    0.0005451426    
0.0275473880    0.0223686960    0.0005455780    
0.0277700490    0.0211976840    0.0005279659    
0.0279927100    0.0231681790    0.0005471442    
0.0282153710    0.0221284030    0.0005373251    
0.0284380320    0.0234072870    0.0005494305    
0.0286606930    0.0219688170    0.0005277247    
0.0288833540    0.0218105850    0.0005268196    
0.0291060150    0.0224931570    0.0005344919    
0.0293286760    0.0219571090    0.0005207260    
0.0295513370    0.0221943440    0.0005178306    
0.0297739980    0.0223029140    0.0005248108    
0.0299966590    0.0215117750    0.0005066154    
0.0302193200    0.0216520700    0.0005156717    
0.0304419810    0.0221632630    0.0005226836    
0.0306646420    0.0214420280    0.0004995984    
0.0308873030    0.0218457490    0.0005021016    
0.0311099640    0.0218085400    0.0005029765    
0.0313326250    0.0210217180    0.0004883492    
0.0315552860    0.0219426240    0.0005053973    
0.0317779470    0.0221907600    0.0005086895    
0.0320006080    0.0216616070    0.0004911689    
0.0322232690    0.0219219580    0.0004961802    
0.0324459300    0.0214520340    0.0004871689    
0.0326685910    0.0205984460    0.0004765912    
0.0328912520    0.0226554260    0.0005014767    
0.0331139130    0.0213020980    0.0004799425    
0.0333365740    0.0223766490    0.0004934958    
0.0335592350    0.0222900100    0.0004878036    
0.0337818960    0.0221372880    0.0004857426    
0.0340045570    0.0220139020    0.0004836177    
0.0342272170    0.0219776080    0.0004813128    
0.0344498780    0.0220139290    0.0004836182    
0.0346725390    0.0213289060    0.0004672182    
0.0348952000    0.0212972850    0.0004647449    
0.0351178610    0.0216257370    0.0004704583    
0.0353405220    0.0214291520    0.0004661817    
0.0355631830    0.0214794160    0.0004649704    
0.0357858440    0.0214291030    0.0004644256    
0.0360085050    0.0218828340    0.0004707347    
0.0362311660    0.0213854490    0.0004598224    
0.0364538270    0.0211894780    0.0004540371    
0.0366764880    0.0221107830    0.0004634661    
0.0368991490    0.0219942070    0.0004599125    
0.0371218100    0.0210079500    0.0004481967    
0.0373444710    0.0215559360    0.0004589487    
0.0375671320    0.0211327030    0.0004537590    
0.0377897930    0.0210419610    0.0004410624    
0.0380124540    0.0214379010    0.0004479861    
0.0382351150    0.0213349390    0.0004469091    
0.0384577760    0.0213384080    0.0004426332    
0.0386804370    0.0210220860    0.0004426929    
0.0389030980    0.0200988980    0.0004295852    
0.0391257590    0.0208051510    0.0004341006    
0.0393484200    0.0205933720    0.0004304320    
0.0395710810    0.0215870710    0.0004412882    
0.0397937420    0.0209466000    0.0004346928    
0.0400164030    0.0208809190    0.0004357763    
0.0402390640    0.0210988160    0.0004322112    
0.0404617250    0.0209556060    0.0004282008    
0.0406843860    0.0211533320    0.0004260596    
0.0409070470    0.0218153790    0.0004371828    
0.0411297080    0.0215843650    0.0004306550    
0.0413523690    0.0208148250    0.0004239984    
0.0415750300    0.0212665750    0.0004322153    
0.0417976910    0.0215061270    0.0004234015    
0.0420203520    0.0210465600    0.0004204270    
0.0422430130    0.0212316080    0.0004238699    
0.0424656740    0.0212018600    0.0004180599    
0.0426883350    0.0210298740    0.0004184273    
0.0429109960    0.0215803640    0.0004251927    
0.0431336570    0.0212615580    0.0004160942    
0.0433563180    0.0207518450    0.0004146225    
0.0435789790    0.0201209730    0.0004018573    
0.0438016400    0.0209408880    0.0004121934    
0.0440243010    0.0214323190    0.0004127710    
0.0442469620    0.0208130060    0.0004092009    
0.0444696230    0.0208636940    0.0004082297    
0.0446922840    0.0216213330    0.0004143417    
0.0449149450    0.0205060540    0.0003981195    
0.0451376060    0.0210552960    0.0004083983    
0.0453602670    0.0217097860    0.0004103497    
0.0455829280    0.0212417370    0.0004054328    
0.0458055890    0.0205898780    0.0004014911    
0.0460282500    0.0202414840    0.0003932795    
0.0462509110    0.0209186880    0.0003973176    
0.0464735720    0.0209498710    0.0003978382    
0.0466962330    0.0212627570    0.0004026200    
0.0469188940    0.0208164060    0.0003972423    
0.0471415550    0.0216664520    0.0004073534    
0.0473642160    0.0204682960    0.0003903861    
0.0475868770    0.0205381950    0.0003891094    
0.0478095380    0.0208557530    0.0003903902    
0.0480321990    0.0207417350    0.0003901746    
0.0482548600    0.0210852470    0.0003916783    
0.0484775210    0.0202593080    0.0003877424    
0.0487001820    0.0211980460    0.0003908179    
0.0489228430    0.0206354530    0.0003853897    
0.0491455040    0.0205639450    0.0003820605    
0.0493681650    0.0204639810    0.0003844060    
0.0495908260    0.0204931080    0.0003782072    
0.0498134870    0.0216107040    0.0003920803    
0.0500361480    0.0205412590    0.0003812445    
0.0502588090    0.0208777340    0.0003785952    
0.0504814700    0.0206732350    0.0003816615    
0.0507041310    0.0205698290    0.0003761795    
0.0509267920    0.0206710090    0.0003786636    
0.0511494530    0.0207658560    0.0003770006    
0.0513721140    0.0202416410    0.0003754896    
0.0515947750    0.0198779940    0.0003671679    
0.0518174360    0.0204902050    0.0003705336    
0.0520400970    0.0214823720    0.0003767678    
0.0522627580    0.0207132580    0.0003731059    
0.0524854190    0.0205801520    0.0003749290    
0.0527080800    0.0211289780    0.0003828367    
0.0529307410    0.0203196320    0.0003771961    
0.0531534020    0.0206654730    0.0003790076    
0.0533760630    0.0203124270    0.0003769324    
0.0535987240    0.0204904620    0.0003768132    
0.0538213850    0.0207694670    0.0003837653    
0.0540440460    0.0201448780    0.0003761621    
0.0542667070    0.0203380430    0.0003805661    
0.0544893680    0.0203953650    0.0003813050    
0.0547120290    0.0206231390    0.0003808016    
0.0549346900    0.0204055250    0.0003789864    
0.0551573510    0.0208239260    0.0003873590    
0.0553800120    0.0203580360    0.0003797454    
0.0556026730    0.0202367850    0.0003864629    
0.0558253340    0.0209598350    0.0003965997    
0.0560479950    0.0204495550    0.0003917424    
0.0562706560    0.0208927830    0.0003997932    
0.0564933170    0.0206890050    0.0004012935    
0.0567159780    0.0204238150    0.0003939329    
0.0569386390    0.0209911700    0.0004056312    
0.0571613000    0.0210950410    0.0003978780    
0.0573839610    0.0210045040    0.0003937268    
0.0576066220    0.0203936740    0.0003890336    
0.0578292830    0.0207012700    0.0003906595    
0.0580519440    0.0204312090    0.0003896079    
0.0582746050    0.0200378570    0.0003841378    
0.0584972660    0.0207616960    0.0003895177    
0.0587199270    0.0207356850    0.0003859180    
0.0589425880    0.0207777730    0.0003840499    
0.0591652490    0.0203694240    0.0003824949    
0.0593879100    0.0210445050    0.0003858942    
0.0596105710    0.0199550660    0.0003753765    
0.0598332320    0.0206280570    0.0003849161    
0.0600558930    0.0206849610    0.0003829892    
0.0602785540    0.0201246890    0.0003773674    
0.0605012150    0.0202936460    0.0003781498    
0.0607238760    0.0203114300    0.0003755585    
0.0609465370    0.0206395510    0.0003815602    
0.0611691980    0.0200540140    0.0003767050    
0.0613918590    0.0208576670    0.0003799848    
0.0616145200    0.0201034350    0.0003757816    
0.0618371810    0.0201856890    0.0003728513    
0.0620598420    0.0197511510    0.0003691965    
0.0622825030    0.0205021470    0.0003819024    
0.0625051640    0.0191972740    0.0003643593    
0.0627278250    0.0199998300    0.0003711317    
0.0629504860    0.0200757200    0.0003688122    
0.0631731470    0.0203186200    0.0003756272    
0.0633958080    0.0205180490    0.0003796385    
0.0636184690    0.0200681210    0.0003806821    
0.0638411300    0.0200395830    0.0003789833    
0.0640637910    0.0202643190    0.0003837829    
0.0642864520    0.0202563200    0.0003828768    
0.0645091130    0.0202667650    0.0003863316    
0.0647317740    0.0201860070    0.0003859862    
0.0649544350    0.0200311510    0.0003840798    
0.0651770960    0.0195655420    0.0003775191    
0.0653997570    0.0198071450    0.0003790190    
0.0656224180    0.0198715270    0.0003804600    
0.0658450790    0.0200686420    0.0003768468    
0.0660677400    0.0205467070    0.0003829318    
0.0662904010    0.0203020870    0.0003851896    
0.0665130620    0.0206334780    0.0003866361    
0.0667357230    0.0203905870    0.0003911874    
0.0669583840    0.0194641750    0.0003809189    
0.0671810450    0.0202451340    0.0003863406    
0.0674037060    0.0195416210    0.0003859991    
0.0676263670    0.0199627730    0.0003872800    
0.0678490280    0.0199494200    0.0003847828    
0.0680716890    0.0204408600    0.0003903601    
0.0682943500    0.0201559810    0.0003833848    
0.0685170110    0.0201759600    0.0003796661    
0.0687396720    0.0206800570    0.0003833586    
0.0689623330    0.0199842690    0.0003756601    
0.0691849940    0.0199041620    0.0003775039    
0.0694076550    0.0202691360    0.0003807460    
0.0696303160    0.0199424180    0.0003746748    
0.0698529770    0.0197677870    0.0003722490    
0.0700756380    0.0205819210    0.0003749612    
0.0702982990    0.0206975760    0.0003801081    
0.0705209600    0.0206130810    0.0003765928    
0.0707436210    0.0196061300    0.0003655926    
0.0709662820    0.0197413040    0.0003712241    
0.0711889430    0.0196270960    0.0003656024    
0.0714116040    0.0202064920    0.0003717168    
0.0716342650    0.0198596050    0.0003670161    
0.0718569260    0.0195721200    0.0003628825    
0.0720795870    0.0199478300    0.0003678308    
0.0723022480    0.0196753080    0.0003658663    
0.0725249090    0.0198245210    0.0003628529    
0.0727475700    0.0203537740    0.0003708048    
0.0729702310    0.0198376110    0.0003631533    
0.0731928920    0.0197351490    0.0003636619    
0.0734155530    0.0201103370    0.0003663699    
0.0736382140    0.0195697130    0.0003590924    
0.0738608750    0.0197833370    0.0003633795    
0.0740835360    0.0199376060    0.0003638880    
0.0743061970    0.0196318440    0.0003560024    
0.0745288580    0.0198465620    0.0003616245    
0.0747515190    0.0202624090    0.0003661150    
0.0749741800    0.0202981030    0.0003630454    
0.0751968410    0.0199717240    0.0003629423    
0.0754195020    0.0199535050    0.0003606513    
0.0756421630    0.0200390170    0.0003584688    
0.0758648240    0.0192849560    0.0003525050    
0.0760874850    0.0202835110    0.0003613424    
0.0763101460    0.0203666780    0.0003617350    
0.0765328070    0.0201954820    0.0003638973    
0.0767554680    0.0201163820    0.0003607195    
0.0769781290    0.0196620530    0.0003545735    
0.0772007900    0.0191654620    0.0003472597    
0.0774234510    0.0203259470    0.0003596527    
0.0776461120    0.0198618410    0.0003551858    
0.0778687730    0.0198380960    0.0003538007    
0.0780914340    0.0200138030    0.0003579033    
0.0783140950    0.0200098490    0.0003521900    
0.0785367560    0.0198986530    0.0003568727    
0.0787594170    0.0193802400    0.0003490377    
0.0789820780    0.0200905410    0.0003535555    
0.0792047390    0.0196334350    0.0003506530    
0.0794274000    0.0196738460    0.0003525009    
0.0796500610    0.0200100860    0.0003520306    
0.0798727220    0.0193240800    0.0003456244    
0.0800953830    0.0199921610    0.0003507397    
0.0803180440    0.0199347450    0.0003526755    
0.0805407050    0.0198291800    0.0003514133    
0.0807633660    0.0198483310    0.0003512566    
0.0809860270    0.0203313900    0.0003541925    
0.0812086880    0.0193750930    0.0003427744    
0.0814313490    0.0197664120    0.0003477976    
0.0816540100    0.0197983480    0.0003472860    
0.0818766710    0.0197052740    0.0003472598    
0.0820993320    0.0198896050    0.0003482444    
0.0823219930    0.0204659110    0.0003547106    
0.0825446540    0.0193092580    0.0003420382    
0.0827673150    0.0208320110    0.0003528822    
0.0829899760    0.0201860970    0.0003467501    
0.0832126370    0.0203372810    0.0003496051    
0.0834352980    0.0195284800    0.0003418168    
0.0836579590    0.0197096750    0.0003426345    
0.0838806200    0.0197792780    0.0003443130    
0.0841032810    0.0208012510    0.0003509042    
0.0843259420    0.0194672890    0.0003384208    
0.0845486030    0.0206086470    0.0003482005    
0.0847712640    0.0203814730    0.0003441658    
0.0849939250    0.0198576640    0.0003403060    
0.0852165860    0.0199857360    0.0003418488    
0.0854392470    0.0198499530    0.0003374593    
0.0856619080    0.0191944650    0.0003342847    
0.0858845690    0.0201081000    0.0003390665    
0.0861072300    0.0201316340    0.0003416069    
0.0863298910    0.0193355350    0.0003365375    
0.0865525520    0.0199471600    0.0003388671    
0.0867752130    0.0200683610    0.0003371525    
0.0869978740    0.0196640930    0.0003345898    
0.0872205350    0.0198014830    0.0003353295    
0.0874431960    0.0204432030    0.0003407200    
0.0876658570    0.0202228150    0.0003401796    
0.0878885180    0.0193562750    0.0003333822    
0.0881111790    0.0189744500    0.0003296541    
0.0883338400    0.0198186540    0.0003319749    
0.0885565010    0.0193543870    0.0003325123    
0.0887791620    0.0192508210    0.0003273211    
0.0890018230    0.0196998410    0.0003343281    
0.0892244840    0.0192601810    0.0003311383    
0.0894471450    0.0194083030    0.0003310051    
0.0896698060    0.0199232840    0.0003341027    
0.0898924670    0.0196334110    0.0003332007    
0.0901151280    0.0194882320    0.0003283808    
0.0903377890    0.0197764130    0.0003335684    
0.0905604500    0.0193834700    0.0003287223    
0.0907831110    0.0193481640    0.0003276058    
0.0910057720    0.0195933230    0.0003311876    
0.0912284330    0.0196671910    0.0003270605    
0.0914510940    0.0195299300    0.0003295516    
0.0916737550    0.0198425870    0.0003313547    
0.0918964160    0.0195448780    0.0003302272    
0.0921190770    0.0197190240    0.0003286961    
0.0923417380    0.0195542500    0.0003274542    
0.0925643990    0.0200479880    0.0003307511    
0.0927870600    0.0193765160    0.0003264984    
0.0930097210    0.0196265500    0.0003257996    
0.0932323820    0.0198393220    0.0003299686    
