# Diamond Light Source Ltd.
# Data extracted from: /dls/b21/data/2018/cm19678-3/processed/b21-386631_00310.dat
q(1/A)          Column          Error           
0.0035000000    2.0922623000    0.0246781210    
0.0037226610    1.9055000000    0.0230550900    
0.0039453220    1.6090544000    0.0192732230    
0.0041679830    1.2903789000    0.0141739990    
0.0043906440    0.9627656900    0.0117106060    
0.0046133050    0.7839451500    0.0101443860    
0.0048359660    0.6004157600    0.0083976285    
0.0050586270    0.4756695900    0.0073467413    
0.0052812880    0.4408409700    0.0066870887    
0.0055039490    0.3855458700    0.0059462710    
0.0057266100    0.3164570600    0.0052116857    
0.0059492710    0.2672762100    0.0047896193    
0.0061719320    0.2268255400    0.0042518164    
0.0063945930    0.2008434400    0.0040493945    
0.0066172539    0.1859421700    0.0036586064    
0.0068399149    0.1734367200    0.0034777884    
0.0070625759    0.1511791400    0.0032136692    
0.0072852369    0.1321722800    0.0029599052    
0.0075078979    0.1206374100    0.0028139038    
0.0077305589    0.1018112800    0.0025357905    
0.0079532199    0.0962452430    0.0024313349    
0.0081758809    0.0916622860    0.0023948145    
0.0083985419    0.0895904300    0.0022082422    
0.0086212029    0.0778881690    0.0020589779    
0.0088438639    0.0671085870    0.0018958438    
0.0090665249    0.0664483120    0.0018220409    
0.0092891859    0.0660770660    0.0018964500    
0.0095118469    0.0618135910    0.0017639440    
0.0097345079    0.0632919330    0.0017335377    
0.0099571689    0.0556988880    0.0015926975    
0.0101798300    0.0525564420    0.0015471166    
0.0104024910    0.0517037540    0.0015293221    
0.0106251520    0.0514178890    0.0015302672    
0.0108478130    0.0467772270    0.0014214129    
0.0110704740    0.0449843780    0.0013270941    
0.0112931350    0.0457609570    0.0013424312    
0.0115157960    0.0419593060    0.0012779649    
0.0117384570    0.0420433890    0.0012682325    
0.0119611180    0.0407459900    0.0012520939    
0.0121837790    0.0398341190    0.0012171959    
0.0124064400    0.0375387640    0.0011323511    
0.0126291010    0.0382370410    0.0011285306    
0.0128517620    0.0362189460    0.0011010884    
0.0130744230    0.0347602760    0.0010706879    
0.0132970840    0.0348457090    0.0010667609    
0.0135197450    0.0337596560    0.0010349687    
0.0137424060    0.0333198450    0.0010138906    
0.0139650670    0.0309967330    0.0009561247    
0.0141877280    0.0319337180    0.0009726131    
0.0144103890    0.0317288970    0.0009527725    
0.0146330500    0.0305928190    0.0009296196    
0.0148557110    0.0301407370    0.0009188566    
0.0150783720    0.0301405150    0.0009112594    
0.0153010330    0.0303142030    0.0009009962    
0.0155236940    0.0295313660    0.0008839983    
0.0157463550    0.0297945780    0.0008725453    
0.0159690160    0.0280219560    0.0008429801    
0.0161916770    0.0278074080    0.0008350159    
0.0164143380    0.0281285200    0.0008461858    
0.0166369990    0.0289073810    0.0008313724    
0.0168596600    0.0277190120    0.0008069316    
0.0170823210    0.0252095670    0.0007628762    
0.0173049820    0.0263160900    0.0007807863    
0.0175276430    0.0278203050    0.0008112566    
0.0177503040    0.0267794180    0.0007756450    
0.0179729650    0.0247313280    0.0007380020    
0.0181956260    0.0254658860    0.0007345250    
0.0184182870    0.0264226640    0.0007446698    
0.0186409480    0.0260780860    0.0007444807    
0.0188636090    0.0247227320    0.0007203172    
0.0190862700    0.0241642880    0.0007110220    
0.0193089310    0.0257158080    0.0007323499    
0.0195315920    0.0260010150    0.0007113561    
0.0197542530    0.0262720150    0.0007160953    
0.0199769140    0.0241835350    0.0006870433    
0.0201995750    0.0247180990    0.0006837184    
0.0204222360    0.0248172340    0.0006909689    
0.0206448970    0.0246933120    0.0006843430    
0.0208675580    0.0249420910    0.0006736187    
0.0210902190    0.0247766530    0.0006778591    
0.0213128800    0.0244697380    0.0006645069    
0.0215355410    0.0228683490    0.0006347423    
0.0217582020    0.0235378470    0.0006439669    
0.0219808630    0.0235463650    0.0006432377    
0.0222035240    0.0231560780    0.0006321043    
0.0224261850    0.0243897920    0.0006429507    
0.0226488460    0.0238913030    0.0006315679    
0.0228715070    0.0242545130    0.0006347696    
0.0230941680    0.0241216210    0.0006330284    
0.0233168290    0.0227059480    0.0006157015    
0.0235394900    0.0222401920    0.0006026289    
0.0237621510    0.0235327250    0.0006032049    
0.0239848120    0.0232927560    0.0006008159    
0.0242074730    0.0219453300    0.0005785111    
0.0244301340    0.0239366670    0.0006048780    
0.0246527950    0.0237125170    0.0006076139    
0.0248754560    0.0234620290    0.0005908126    
0.0250981170    0.0234621730    0.0005921318    
0.0253207780    0.0226305900    0.0005641802    
0.0255434390    0.0219668890    0.0005617781    
0.0257661000    0.0238010450    0.0005866528    
0.0259887610    0.0224344540    0.0005635090    
0.0262114220    0.0217442940    0.0005577294    
0.0264340830    0.0225485030    0.0005602221    
0.0266567440    0.0230680550    0.0005631382    
0.0268794050    0.0237664380    0.0005692662    
0.0271020660    0.0224518070    0.0005510579    
0.0273247270    0.0221428440    0.0005439665    
0.0275473880    0.0226670750    0.0005492729    
0.0277700490    0.0221499800    0.0005397620    
0.0279927100    0.0227344960    0.0005420663    
0.0282153710    0.0226037240    0.0005431328    
0.0284380320    0.0235034010    0.0005506258    
0.0286606930    0.0224814710    0.0005339128    
0.0288833540    0.0229615350    0.0005406082    
0.0291060150    0.0221811460    0.0005308378    
0.0293286760    0.0214931730    0.0005152594    
0.0295513370    0.0220065010    0.0005156987    
0.0297739980    0.0205914700    0.0005043355    
0.0299966590    0.0211232950    0.0005020824    
0.0302193200    0.0223576620    0.0005240717    
0.0304419810    0.0225756490    0.0005275894    
0.0306646420    0.0214007810    0.0004991796    
0.0308873030    0.0219435220    0.0005032865    
0.0311099640    0.0228698470    0.0005151337    
0.0313326250    0.0228311960    0.0005089963    
0.0315552860    0.0213775420    0.0004989091    
0.0317779470    0.0226744910    0.0005142679    
0.0320006080    0.0218340860    0.0004931817    
0.0322232690    0.0221296040    0.0004985865    
0.0324459300    0.0212581710    0.0004850229    
0.0326685910    0.0217175680    0.0004894275    
0.0328912520    0.0216617920    0.0004904173    
0.0331139130    0.0206368020    0.0004724471    
0.0333365740    0.0222406860    0.0004920554    
0.0335592350    0.0215053800    0.0004792006    
0.0337818960    0.0213645390    0.0004772486    
0.0340045570    0.0214561340    0.0004775109    
0.0342272170    0.0208549200    0.0004689164    
0.0344498780    0.0219556350    0.0004830375    
0.0346725390    0.0208837710    0.0004623745    
0.0348952000    0.0223677050    0.0004763401    
0.0351178610    0.0218768010    0.0004732401    
0.0353405220    0.0219112490    0.0004714550    
0.0355631830    0.0219881440    0.0004705028    
0.0357858440    0.0213538840    0.0004636674    
0.0360085050    0.0213008020    0.0004644899    
0.0362311660    0.0217072230    0.0004633264    
0.0364538270    0.0217105000    0.0004596424    
0.0366764880    0.0210571050    0.0004523444    
0.0368991490    0.0213840270    0.0004535444    
0.0371218100    0.0223617620    0.0004624702    
0.0373444710    0.0211801080    0.0004549867    
0.0375671320    0.0210502440    0.0004529291    
0.0377897930    0.0211489110    0.0004422369    
0.0380124540    0.0220612420    0.0004545088    
0.0382351150    0.0214619690    0.0004482933    
0.0384577760    0.0213528930    0.0004428384    
0.0386804370    0.0217080160    0.0004499131    
0.0389030980    0.0228223710    0.0004578229    
0.0391257590    0.0218703140    0.0004451295    
0.0393484200    0.0209134500    0.0004338181    
0.0395710810    0.0210149510    0.0004354554    
0.0397937420    0.0218180280    0.0004436979    
0.0400164030    0.0205677210    0.0004325496    
0.0402390640    0.0222996300    0.0004443956    
0.0404617250    0.0217397320    0.0004361927    
0.0406843860    0.0218538600    0.0004331107    
0.0409070470    0.0210233320    0.0004292264    
0.0411297080    0.0216412950    0.0004312761    
0.0413523690    0.0207768010    0.0004236636    
0.0415750300    0.0209994800    0.0004295459    
0.0417976910    0.0205276120    0.0004137085    
0.0420203520    0.0219170460    0.0004290866    
0.0422430130    0.0216770250    0.0004283462    
0.0424656740    0.0216029060    0.0004220477    
0.0426883350    0.0210600800    0.0004187797    
0.0429109960    0.0207812890    0.0004172983    
0.0431336570    0.0210550670    0.0004141202    
0.0433563180    0.0209807290    0.0004169546    
0.0435789790    0.0212498790    0.0004130280    
0.0438016400    0.0213924420    0.0004166656    
0.0440243010    0.0206901890    0.0004056120    
0.0442469620    0.0202709650    0.0004038874    
0.0444696230    0.0209248050    0.0004088779    
0.0446922840    0.0205862710    0.0004043526    
0.0449149450    0.0202869410    0.0003960360    
0.0451376060    0.0204028810    0.0004020711    
0.0453602670    0.0217617280    0.0004108913    
0.0455829280    0.0217810920    0.0004105987    
0.0458055890    0.0210335180    0.0004058438    
0.0460282500    0.0210872510    0.0004014617    
0.0462509110    0.0212560110    0.0004005580    
0.0464735720    0.0209475190    0.0003978652    
0.0466962330    0.0214968100    0.0004048801    
0.0469188940    0.0204424520    0.0003937069    
0.0471415550    0.0209517390    0.0004006281    
0.0473642160    0.0206074380    0.0003917594    
0.0475868770    0.0208603700    0.0003921981    
0.0478095380    0.0212337130    0.0003939607    
0.0480321990    0.0200274280    0.0003834449    
0.0482548600    0.0208430470    0.0003894706    
0.0484775210    0.0208062090    0.0003929899    
0.0487001820    0.0212753840    0.0003915788    
0.0489228430    0.0214325090    0.0003928110    
0.0491455040    0.0207394570    0.0003837352    
0.0493681650    0.0209963210    0.0003894222    
0.0495908260    0.0205261260    0.0003785588    
0.0498134870    0.0204420600    0.0003813791    
0.0500361480    0.0209639420    0.0003851948    
0.0502588090    0.0203404180    0.0003737381    
0.0504814700    0.0206572280    0.0003815611    
0.0507041310    0.0206506330    0.0003769644    
0.0509267920    0.0207940950    0.0003798365    
0.0511494530    0.0209216290    0.0003784590    
0.0513721140    0.0202884740    0.0003759704    
0.0515947750    0.0207173240    0.0003748859    
0.0518174360    0.0209912570    0.0003750832    
0.0520400970    0.0206549030    0.0003694861    
0.0522627580    0.0210545230    0.0003762136    
0.0524854190    0.0211659970    0.0003802752    
0.0527080800    0.0205722210    0.0003778060    
0.0529307410    0.0209410040    0.0003829675    
0.0531534020    0.0208583320    0.0003808193    
0.0533760630    0.0205063750    0.0003787747    
0.0535987240    0.0207935950    0.0003796374    
0.0538213850    0.0213207680    0.0003888735    
0.0540440460    0.0205995310    0.0003804305    
0.0542667070    0.0206849960    0.0003838461    
0.0544893680    0.0210992240    0.0003878770    
0.0547120290    0.0205297980    0.0003799860    
0.0549346900    0.0200092820    0.0003753353    
0.0551573510    0.0207570270    0.0003867844    
0.0553800120    0.0210220240    0.0003859364    
0.0556026730    0.0203377800    0.0003874742    
0.0558253340    0.0212427750    0.0003993172    
0.0560479950    0.0199141830    0.0003866285    
0.0562706560    0.0203393680    0.0003945118    
0.0564933170    0.0206630020    0.0004010910    
0.0567159780    0.0207252900    0.0003968789    
0.0569386390    0.0208003770    0.0004038337    
0.0571613000    0.0209126240    0.0003962032    
0.0573839610    0.0198728650    0.0003830213    
0.0576066220    0.0207253580    0.0003922332    
0.0578292830    0.0207727790    0.0003913823    
0.0580519440    0.0206592270    0.0003918246    
0.0582746050    0.0212729540    0.0003958487    
0.0584972660    0.0215928500    0.0003972873    
0.0587199270    0.0201732830    0.0003806957    
0.0589425880    0.0202078010    0.0003787927    
0.0591652490    0.0204535110    0.0003833312    
0.0593879100    0.0207029150    0.0003827970    
0.0596105710    0.0203272990    0.0003789085    
0.0598332320    0.0201590210    0.0003805622    
0.0600558930    0.0207042860    0.0003832156    
0.0602785540    0.0206605360    0.0003824059    
0.0605012150    0.0206651920    0.0003816431    
0.0607238760    0.0200386440    0.0003730744    
0.0609465370    0.0205247340    0.0003805447    
0.0611691980    0.0208941980    0.0003845630    
0.0613918590    0.0202812100    0.0003747436    
0.0616145200    0.0206634850    0.0003810273    
0.0618371810    0.0205695810    0.0003764268    
0.0620598420    0.0202806770    0.0003741593    
0.0622825030    0.0202653090    0.0003797373    
0.0625051640    0.0203987120    0.0003756344    
0.0627278250    0.0204456750    0.0003752922    
0.0629504860    0.0207109830    0.0003746485    
0.0631731470    0.0204209110    0.0003766183    
0.0633958080    0.0198767480    0.0003737050    
0.0636184690    0.0200008760    0.0003800909    
0.0638411300    0.0202166180    0.0003807009    
0.0640637910    0.0202039220    0.0003832582    
0.0642864520    0.0199066520    0.0003796050    
0.0645091130    0.0204191240    0.0003878292    
0.0647317740    0.0195118360    0.0003795330    
0.0649544350    0.0206917210    0.0003904098    
0.0651770960    0.0199128480    0.0003809023    
0.0653997570    0.0201022460    0.0003818795    
0.0656224180    0.0203792040    0.0003853372    
0.0658450790    0.0201798000    0.0003779360    
0.0660677400    0.0208087980    0.0003854142    
0.0662904010    0.0203875400    0.0003860473    
0.0665130620    0.0200951020    0.0003816061    
0.0667357230    0.0201028920    0.0003884662    
0.0669583840    0.0198492930    0.0003847167    
0.0671810450    0.0202944100    0.0003868586    
0.0674037060    0.0201642140    0.0003921485    
0.0676263670    0.0201405800    0.0003890493    
0.0678490280    0.0206224910    0.0003912686    
0.0680716890    0.0193945610    0.0003802855    
0.0682943500    0.0205840480    0.0003874827    
0.0685170110    0.0195735420    0.0003740016    
0.0687396720    0.0205714620    0.0003823982    
0.0689623330    0.0201093110    0.0003768803    
0.0691849940    0.0196584530    0.0003752132    
0.0694076550    0.0202741710    0.0003808405    
0.0696303160    0.0201938110    0.0003770758    
0.0698529770    0.0206842050    0.0003808271    
0.0700756380    0.0204777110    0.0003740572    
0.0702982990    0.0203536000    0.0003769832    
0.0705209600    0.0203635720    0.0003743531    
0.0707436210    0.0202997040    0.0003720491    
0.0709662820    0.0200185220    0.0003738679    
0.0711889430    0.0201564900    0.0003705463    
0.0714116040    0.0201978320    0.0003716833    
0.0716342650    0.0205022660    0.0003729535    
0.0718569260    0.0203441800    0.0003700165    
0.0720795870    0.0197221180    0.0003657893    
0.0723022480    0.0197550520    0.0003666525    
0.0725249090    0.0201283830    0.0003656685    
0.0727475700    0.0196898880    0.0003647527    
0.0729702310    0.0201417730    0.0003659722    
0.0731928920    0.0201288200    0.0003673167    
0.0734155530    0.0202221520    0.0003674327    
0.0736382140    0.0204906910    0.0003674906    
0.0738608750    0.0204825770    0.0003697915    
0.0740835360    0.0197631960    0.0003623378    
0.0743061970    0.0198691850    0.0003581924    
0.0745288580    0.0201480780    0.0003644063    
0.0747515190    0.0202806760    0.0003663255    
0.0749741800    0.0203421160    0.0003634840    
0.0751968410    0.0197919610    0.0003613501    
0.0754195020    0.0199584620    0.0003607409    
0.0756421630    0.0197040500    0.0003555043    
0.0758648240    0.0197860090    0.0003570993    
0.0760874850    0.0199730510    0.0003586109    
0.0763101460    0.0207123390    0.0003648371    
0.0765328070    0.0195118460    0.0003577296    
0.0767554680    0.0201343190    0.0003609252    
0.0769781290    0.0202425550    0.0003598143    
0.0772007900    0.0201268470    0.0003559070    
0.0774234510    0.0198408640    0.0003553793    
0.0776461120    0.0199811350    0.0003562951    
0.0778687730    0.0204930980    0.0003596387    
0.0780914340    0.0200763920    0.0003585070    
0.0783140950    0.0199900180    0.0003520592    
0.0785367560    0.0203069180    0.0003605599    
0.0787594170    0.0199069360    0.0003537928    
0.0789820780    0.0201328720    0.0003539718    
0.0792047390    0.0197197480    0.0003514666    
0.0794274000    0.0199882870    0.0003553508    
0.0796500610    0.0199221360    0.0003512998    
0.0798727220    0.0194710950    0.0003469797    
0.0800953830    0.0197878630    0.0003489863    
0.0803180440    0.0195090750    0.0003489331    
0.0805407050    0.0196285390    0.0003496744    
0.0807633660    0.0204874720    0.0003569116    
0.0809860270    0.0196513590    0.0003482620    
0.0812086880    0.0200107400    0.0003483951    
0.0814313490    0.0202793790    0.0003523254    
0.0816540100    0.0192487750    0.0003424745    
0.0818766710    0.0201998630    0.0003516345    
0.0820993320    0.0198579530    0.0003480104    
0.0823219930    0.0204832950    0.0003549053    
0.0825446540    0.0192898150    0.0003419084    
0.0827673150    0.0199463000    0.0003453419    
0.0829899760    0.0202089850    0.0003469897    
0.0832126370    0.0203303110    0.0003495886    
0.0834352980    0.0198505090    0.0003446664    
0.0836579590    0.0198575610    0.0003439603    
0.0838806200    0.0191487000    0.0003388222    
0.0841032810    0.0199419520    0.0003436225    
0.0843259420    0.0195133170    0.0003388628    
0.0845486030    0.0195545390    0.0003392207    
0.0847712640    0.0200493760    0.0003413927    
0.0849939250    0.0197167630    0.0003391386    
0.0852165860    0.0195637500    0.0003382626    
0.0854392470    0.0202910030    0.0003412301    
0.0856619080    0.0196476230    0.0003382497    
0.0858845690    0.0191466150    0.0003309019    
0.0861072300    0.0196032150    0.0003371357    
0.0863298910    0.0198793600    0.0003412797    
0.0865525520    0.0198542260    0.0003381188    
0.0867752130    0.0191951730    0.0003297770    
0.0869978740    0.0198398140    0.0003361232    
0.0872205350    0.0194883180    0.0003327086    
0.0874431960    0.0202040380    0.0003387632    
0.0876658570    0.0202564580    0.0003405048    
0.0878885180    0.0201019860    0.0003397856    
0.0881111790    0.0197067080    0.0003359966    
0.0883338400    0.0195899660    0.0003300950    
0.0885565010    0.0200334530    0.0003383373    
0.0887791620    0.0196007460    0.0003303236    
0.0890018230    0.0201701120    0.0003383371    
0.0892244840    0.0199312390    0.0003368994    
0.0894471450    0.0193961850    0.0003309428    
0.0896698060    0.0199338380    0.0003342327    
0.0898924670    0.0200115980    0.0003364363    
0.0901151280    0.0195484200    0.0003289284    
0.0903377890    0.0190834930    0.0003277132    
0.0905604500    0.0195667230    0.0003303136    
0.0907831110    0.0192142590    0.0003265107    
0.0910057720    0.0201861370    0.0003362022    
0.0912284330    0.0198244050    0.0003284059    
0.0914510940    0.0198796440    0.0003325304    
0.0916737550    0.0201629950    0.0003340608    
0.0918964160    0.0196167040    0.0003308746    
0.0921190770    0.0194005800    0.0003260717    
0.0923417380    0.0193561670    0.0003258319    
0.0925643990    0.0198018970    0.0003287556    
0.0927870600    0.0194143480    0.0003268575    
0.0930097210    0.0198045330    0.0003273141    
0.0932323820    0.0194599920    0.0003268395    
