# Diamond Light Source Ltd.
# Data extracted from: /dls/b21/data/2018/cm19678-3/processed/b21-386631_00321.dat
q(1/A)          Column          Error           
0.0035000000    2.1123396000    0.0246656910    
0.0037226610    1.8416007000    0.0225458940    
0.0039453220    1.6065466000    0.0191568030    
0.0041679830    1.2973165000    0.0141372240    
0.0043906440    0.9823940000    0.0117670960    
0.0046133050    0.7733738300    0.0100227080    
0.0048359660    0.5848124800    0.0082441582    
0.0050586270    0.4628144000    0.0072086323    
0.0052812880    0.4187466000    0.0064830466    
0.0055039490    0.3821319500    0.0058887176    
0.0057266100    0.3169553200    0.0051883257    
0.0059492710    0.2723675800    0.0048095666    
0.0061719320    0.2235758500    0.0041990240    
0.0063945930    0.2052777900    0.0040722988    
0.0066172539    0.1874084200    0.0036536646    
0.0068399149    0.1696140800    0.0034211409    
0.0070625759    0.1419529900    0.0030976681    
0.0072852369    0.1284885500    0.0029030012    
0.0075078979    0.1154736800    0.0027385277    
0.0077305589    0.1009920000    0.0025122699    
0.0079532199    0.1011903900    0.0024798885    
0.0081758809    0.0939808990    0.0024121467    
0.0083985419    0.0822404720    0.0021045831    
0.0086212029    0.0796553220    0.0020712414    
0.0088438639    0.0696895320    0.0019217844    
0.0090665249    0.0631797540    0.0017673091    
0.0092891859    0.0649522410    0.0018703397    
0.0095118469    0.0618119080    0.0017546329    
0.0097345079    0.0594324320    0.0016710069    
0.0099571689    0.0539873050    0.0015597796    
0.0101798300    0.0532662820    0.0015493290    
0.0104024910    0.0495941410    0.0014899116    
0.0106251520    0.0468220710    0.0014525893    
0.0108478130    0.0476108540    0.0014264724    
0.0110704740    0.0440083200    0.0013057067    
0.0112931350    0.0426305620    0.0012888797    
0.0115157960    0.0427896130    0.0012837526    
0.0117384570    0.0402390810    0.0012341883    
0.0119611180    0.0384906140    0.0012105403    
0.0121837790    0.0403358360    0.0012183885    
0.0124064400    0.0366375410    0.0011127861    
0.0126291010    0.0364841960    0.0010965564    
0.0128517620    0.0370309730    0.0011075012    
0.0130744230    0.0331551560    0.0010401698    
0.0132970840    0.0335426220    0.0010411141    
0.0135197450    0.0333423090    0.0010231361    
0.0137424060    0.0344352370    0.0010252943    
0.0139650670    0.0335894810    0.0009900694    
0.0141877280    0.0318328350    0.0009659628    
0.0144103890    0.0314805980    0.0009440404    
0.0146330500    0.0298802010    0.0009138916    
0.0148557110    0.0292421180    0.0009002904    
0.0150783720    0.0294150480    0.0008954861    
0.0153010330    0.0287504230    0.0008728294    
0.0155236940    0.0281214940    0.0008580967    
0.0157463550    0.0284450020    0.0008480661    
0.0159690160    0.0271756160    0.0008257815    
0.0161916770    0.0258034080    0.0008001297    
0.0164143380    0.0273545260    0.0008300692    
0.0166369990    0.0267820390    0.0007960135    
0.0168596600    0.0274278980    0.0007984570    
0.0170823210    0.0259499090    0.0007699219    
0.0173049820    0.0261084760    0.0007736057    
0.0175276430    0.0261704470    0.0007826908    
0.0177503040    0.0244085500    0.0007366154    
0.0179729650    0.0260187710    0.0007529820    
0.0181956260    0.0248630150    0.0007219572    
0.0184182870    0.0236947040    0.0007014690    
0.0186409480    0.0250260830    0.0007254699    
0.0188636090    0.0253975830    0.0007262383    
0.0190862700    0.0239105060    0.0007035545    
0.0193089310    0.0253425460    0.0007231877    
0.0195315920    0.0240140310    0.0006800359    
0.0197542530    0.0241033650    0.0006822921    
0.0199769140    0.0226934810    0.0006620369    
0.0201995750    0.0237473900    0.0006666303    
0.0204222360    0.0243091250    0.0006802583    
0.0206448970    0.0222758270    0.0006465595    
0.0208675580    0.0227359720    0.0006397523    
0.0210902190    0.0224978710    0.0006425341    
0.0213128800    0.0238020600    0.0006519278    
0.0215355410    0.0219482860    0.0006185684    
0.0217582020    0.0231163140    0.0006348145    
0.0219808630    0.0228817760    0.0006307566    
0.0222035240    0.0223494530    0.0006177277    
0.0224261850    0.0232447720    0.0006243724    
0.0226488460    0.0227317770    0.0006128077    
0.0228715070    0.0231778730    0.0006172542    
0.0230941680    0.0214847460    0.0005942818    
0.0233168290    0.0218231940    0.0006004362    
0.0235394900    0.0222166660    0.0005991389    
0.0237621510    0.0229948890    0.0005931326    
0.0239848120    0.0225114110    0.0005875430    
0.0242074730    0.0214130470    0.0005684435    
0.0244301340    0.0224148010    0.0005822517    
0.0246527950    0.0220923380    0.0005834009    
0.0248754560    0.0224206680    0.0005745113    
0.0250981170    0.0223285380    0.0005746082    
0.0253207780    0.0216413820    0.0005488072    
0.0255434390    0.0217361850    0.0005558781    
0.0257661000    0.0226067450    0.0005687344    
0.0259887610    0.0219327340    0.0005542388    
0.0262114220    0.0217707220    0.0005551300    
0.0264340830    0.0220913290    0.0005515942    
0.0266567440    0.0213430620    0.0005388219    
0.0268794050    0.0222755550    0.0005482202    
0.0271020660    0.0215067030    0.0005364953    
0.0273247270    0.0222673090    0.0005426211    
0.0275473880    0.0217441620    0.0005351421    
0.0277700490    0.0207329830    0.0005194621    
0.0279927100    0.0213830940    0.0005229406    
0.0282153710    0.0219272700    0.0005321275    
0.0284380320    0.0212908570    0.0005213089    
0.0286606930    0.0220571620    0.0005260660    
0.0288833540    0.0217002350    0.0005227834    
0.0291060150    0.0203517310    0.0005057990    
0.0293286760    0.0207785380    0.0005039536    
0.0295513370    0.0214525170    0.0005064855    
0.0297739980    0.0209007860    0.0005054341    
0.0299966590    0.0218107230    0.0005075007    
0.0302193200    0.0215393940    0.0005116838    
0.0304419810    0.0222043490    0.0005204780    
0.0306646420    0.0208764710    0.0004904311    
0.0308873030    0.0209135290    0.0004887459    
0.0311099640    0.0209304260    0.0004902129    
0.0313326250    0.0214348960    0.0004905897    
0.0315552860    0.0217751750    0.0005008766    
0.0317779470    0.0216169200    0.0004994879    
0.0320006080    0.0201828300    0.0004716696    
0.0322232690    0.0215081540    0.0004889480    
0.0324459300    0.0213962600    0.0004840337    
0.0326685910    0.0212821180    0.0004819451    
0.0328912520    0.0214342920    0.0004852667    
0.0331139130    0.0201846150    0.0004647824    
0.0333365740    0.0210914900    0.0004766515    
0.0335592350    0.0213217860    0.0004746385    
0.0337818960    0.0209291810    0.0004698740    
0.0340045570    0.0214726510    0.0004751796    
0.0342272170    0.0207819520    0.0004656308    
0.0344498780    0.0206314360    0.0004657791    
0.0346725390    0.0200566640    0.0004507400    
0.0348952000    0.0203962960    0.0004524696    
0.0351178610    0.0210088760    0.0004613159    
0.0353405220    0.0206472610    0.0004552451    
0.0355631830    0.0204820690    0.0004517127    
0.0357858440    0.0205617790    0.0004525909    
0.0360085050    0.0213777650    0.0004628784    
0.0362311660    0.0213618200    0.0004572054    
0.0364538270    0.0204906930    0.0004441921    
0.0366764880    0.0212590220    0.0004521150    
0.0368991490    0.0210832970    0.0004479728    
0.0371218100    0.0207167700    0.0004427914    
0.0373444710    0.0207352280    0.0004478127    
0.0375671320    0.0201348610    0.0004406395    
0.0377897930    0.0207254900    0.0004354825    
0.0380124540    0.0199486480    0.0004299238    
0.0382351150    0.0205231230    0.0004360704    
0.0384577760    0.0217738560    0.0004448278    
0.0386804370    0.0206680710    0.0004366927    
0.0389030980    0.0205197970    0.0004318283    
0.0391257590    0.0207979490    0.0004317939    
0.0393484200    0.0210143680    0.0004325739    
0.0395710810    0.0210531690    0.0004335564    
0.0397937420    0.0200532020    0.0004231349    
0.0400164030    0.0201806880    0.0004262046    
0.0402390640    0.0208473630    0.0004274191    
0.0404617250    0.0205674750    0.0004220357    
0.0406843860    0.0206391010    0.0004186852    
0.0409070470    0.0202389010    0.0004189252    
0.0411297080    0.0196876230    0.0004091832    
0.0413523690    0.0204902100    0.0004185163    
0.0415750300    0.0205355010    0.0004225376    
0.0417976910    0.0209885420    0.0004161249    
0.0420203520    0.0202405200    0.0004101778    
0.0422430130    0.0201176790    0.0004104794    
0.0424656740    0.0195810910    0.0003996973    
0.0426883350    0.0203857010    0.0004098508    
0.0429109960    0.0202396660    0.0004096561    
0.0431336570    0.0200521630    0.0004020093    
0.0433563180    0.0204406130    0.0004093858    
0.0435789790    0.0203435560    0.0004019963    
0.0438016400    0.0201479280    0.0004022352    
0.0440243010    0.0192375960    0.0003890553    
0.0442469620    0.0202491780    0.0004015450    
0.0444696230    0.0200409660    0.0003980427    
0.0446922840    0.0203464910    0.0003998743    
0.0449149450    0.0207470900    0.0003983936    
0.0451376060    0.0198514730    0.0003945126    
0.0453602670    0.0209190420    0.0004007362    
0.0455829280    0.0203958350    0.0003952355    
0.0458055890    0.0203012120    0.0003966170    
0.0460282500    0.0205330220    0.0003940651    
0.0462509110    0.0205024720    0.0003913227    
0.0464735720    0.0197928380    0.0003847079    
0.0466962330    0.0203278430    0.0003916449    
0.0469188940    0.0214432250    0.0004011058    
0.0471415550    0.0199509410    0.0003888843    
0.0473642160    0.0198898950    0.0003828521    
0.0475868770    0.0201159520    0.0003831089    
0.0478095380    0.0196003510    0.0003765123    
0.0480321990    0.0208776850    0.0003894386    
0.0482548600    0.0199688390    0.0003792083    
0.0484775210    0.0202865540    0.0003860081    
0.0487001820    0.0200178870    0.0003778305    
0.0489228430    0.0201459780    0.0003788338    
0.0491455040    0.0203741070    0.0003783377    
0.0493681650    0.0206900480    0.0003845362    
0.0495908260    0.0203865460    0.0003752831    
0.0498134870    0.0203541000    0.0003785540    
0.0500361480    0.0205616860    0.0003794728    
0.0502588090    0.0198617910    0.0003673702    
0.0504814700    0.0204123830    0.0003772961    
0.0507041310    0.0197051920    0.0003662953    
0.0509267920    0.0205070540    0.0003752197    
0.0511494530    0.0203970640    0.0003717169    
0.0513721140    0.0198410000    0.0003698437    
0.0515947750    0.0197278150    0.0003638976    
0.0518174360    0.0205983730    0.0003696002    
0.0520400970    0.0201632920    0.0003631405    
0.0522627580    0.0200218830    0.0003649402    
0.0524854190    0.0193888140    0.0003620442    
0.0527080800    0.0193194760    0.0003641944    
0.0529307410    0.0207002840    0.0003787553    
0.0531534020    0.0192908380    0.0003643024    
0.0533760630    0.0199033280    0.0003711990    
0.0535987240    0.0201705670    0.0003719380    
0.0538213850    0.0198405830    0.0003731569    
0.0540440460    0.0200286370    0.0003731468    
0.0542667070    0.0206651030    0.0003816415    
0.0544893680    0.0198616200    0.0003743480    
0.0547120290    0.0208082970    0.0003805405    
0.0549346900    0.0206560320    0.0003793452    
0.0551573510    0.0200897380    0.0003785130    
0.0553800120    0.0203174940    0.0003774166    
0.0556026730    0.0202702780    0.0003847939    
0.0558253340    0.0204774720    0.0003899940    
0.0560479950    0.0197050370    0.0003825680    
0.0562706560    0.0195881610    0.0003851195    
0.0564933170    0.0196447930    0.0003890249    
0.0567159780    0.0201541760    0.0003893119    
0.0569386390    0.0205586510    0.0003993665    
0.0571613000    0.0202696250    0.0003880109    
0.0573839610    0.0198321610    0.0003806143    
0.0576066220    0.0202432670    0.0003856035    
0.0578292830    0.0203722010    0.0003855496    
0.0580519440    0.0204054890    0.0003873607    
0.0582746050    0.0191180530    0.0003732884    
0.0584972660    0.0199194880    0.0003795738    
0.0587199270    0.0202955280    0.0003798370    
0.0589425880    0.0195599690    0.0003707094    
0.0591652490    0.0193358860    0.0003707487    
0.0593879100    0.0199181960    0.0003734954    
0.0596105710    0.0196455640    0.0003705391    
0.0598332320    0.0205302260    0.0003820280    
0.0600558930    0.0208026720    0.0003821026    
0.0602785540    0.0192599400    0.0003672726    
0.0605012150    0.0198902280    0.0003724475    
0.0607238760    0.0192302530    0.0003635475    
0.0609465370    0.0194434700    0.0003684352    
0.0611691980    0.0195121550    0.0003696704    
0.0613918590    0.0194721240    0.0003652593    
0.0616145200    0.0199598140    0.0003725117    
0.0618371810    0.0202990220    0.0003719742    
0.0620598420    0.0197739750    0.0003675105    
0.0622825030    0.0196018580    0.0003715033    
0.0625051640    0.0200475880    0.0003704268    
0.0627278250    0.0196174750    0.0003656771    
0.0629504860    0.0198094600    0.0003644747    
0.0631731470    0.0199452710    0.0003702467    
0.0633958080    0.0197931370    0.0003709547    
0.0636184690    0.0196764630    0.0003750109    
0.0638411300    0.0198766090    0.0003754985    
0.0640637910    0.0196320400    0.0003758060    
0.0642864520    0.0197477240    0.0003760960    
0.0645091130    0.0205326730    0.0003868584    
0.0647317740    0.0197671260    0.0003799965    
0.0649544350    0.0203432100    0.0003850699    
0.0651770960    0.0199632610    0.0003793761    
0.0653997570    0.0196757760    0.0003758178    
0.0656224180    0.0198335340    0.0003781419    
0.0658450790    0.0195476360    0.0003700107    
0.0660677400    0.0197567580    0.0003735678    
0.0662904010    0.0205278510    0.0003853340    
0.0665130620    0.0196474260    0.0003753448    
0.0667357230    0.0195426560    0.0003809984    
0.0669583840    0.0203343820    0.0003873391    
0.0671810450    0.0200010050    0.0003820298    
0.0674037060    0.0193034600    0.0003816673    
0.0676263670    0.0197208430    0.0003829470    
0.0678490280    0.0193481490    0.0003769915    
0.0680716890    0.0191613590    0.0003760022    
0.0682943500    0.0203317800    0.0003830734    
0.0685170110    0.0199124550    0.0003752395    
0.0687396720    0.0200740660    0.0003757581    
0.0689623330    0.0191922120    0.0003662476    
0.0691849940    0.0204511660    0.0003806886    
0.0694076550    0.0200400090    0.0003766413    
0.0696303160    0.0195218980    0.0003687975    
0.0698529770    0.0200576330    0.0003730402    
0.0700756380    0.0189172120    0.0003576294    
0.0702982990    0.0200845670    0.0003725117    
0.0705209600    0.0193393600    0.0003628966    
0.0707436210    0.0197558960    0.0003650995    
0.0709662820    0.0203886410    0.0003753217    
0.0711889430    0.0202548570    0.0003694936    
0.0714116040    0.0188283910    0.0003569724    
0.0716342650    0.0200922650    0.0003672616    
0.0718569260    0.0200173130    0.0003650995    
0.0720795870    0.0207837650    0.0003735285    
0.0723022480    0.0198909900    0.0003659748    
0.0725249090    0.0198775480    0.0003614697    
0.0727475700    0.0204525720    0.0003697926    
0.0729702310    0.0204763620    0.0003670566    
0.0731928920    0.0191944770    0.0003568018    
0.0734155530    0.0203136510    0.0003663240    
0.0736382140    0.0195124700    0.0003567233    
0.0738608750    0.0193426100    0.0003574617    
0.0740835360    0.0202787010    0.0003651006    
0.0743061970    0.0198841450    0.0003564406    
0.0745288580    0.0198973470    0.0003602252    
0.0747515190    0.0199891130    0.0003617680    
0.0749741800    0.0196464720    0.0003553341    
0.0751968410    0.0204131590    0.0003650449    
0.0754195020    0.0193811010    0.0003536132    
0.0756421630    0.0197065520    0.0003536550    
0.0758648240    0.0201139000    0.0003581504    
0.0760874850    0.0200691020    0.0003575795    
0.0763101460    0.0205011690    0.0003610614    
0.0765328070    0.0201246310    0.0003613907    
0.0767554680    0.0194875290    0.0003532112    
0.0769781290    0.0197198600    0.0003532687    
0.0772007900    0.0198531930    0.0003516181    
0.0774234510    0.0193679500    0.0003492698    
0.0776461120    0.0199095910    0.0003537841    
0.0778687730    0.0197407930    0.0003511174    
0.0780914340    0.0200302450    0.0003562094    
0.0783140950    0.0193137960    0.0003442312    
0.0785367560    0.0204040470    0.0003595183    
0.0787594170    0.0193059000    0.0003465765    
0.0789820780    0.0190408230    0.0003424254    
0.0792047390    0.0192213180    0.0003451694    
0.0794274000    0.0199533920    0.0003531712    
0.0796500610    0.0200622970    0.0003506773    
0.0798727220    0.0203006000    0.0003524282    
0.0800953830    0.0199210960    0.0003483156    
0.0803180440    0.0194215160    0.0003463162    
0.0805407050    0.0197922260    0.0003492806    
0.0807633660    0.0198477870    0.0003494459    
0.0809860270    0.0198724700    0.0003483719    
0.0812086880    0.0201066820    0.0003473906    
0.0814313490    0.0197635550    0.0003459844    
0.0816540100    0.0197339600    0.0003449382    
0.0818766710    0.0196000760    0.0003445510    
0.0820993320    0.0196675020    0.0003445141    
0.0823219930    0.0195623450    0.0003450090    
0.0825446540    0.0199447420    0.0003458337    
0.0827673150    0.0193285920    0.0003381626    
0.0829899760    0.0195899700    0.0003398354    
0.0832126370    0.0190342240    0.0003364807    
0.0834352980    0.0199914080    0.0003440663    
0.0836579590    0.0195193130    0.0003392227    
0.0838806200    0.0205018410    0.0003487434    
0.0841032810    0.0195626090    0.0003385467    
0.0843259420    0.0194481290    0.0003365151    
0.0845486030    0.0197684120    0.0003392750    
0.0847712640    0.0196259850    0.0003359905    
0.0849939250    0.0198271560    0.0003382962    
0.0852165860    0.0191904550    0.0003332560    
0.0854392470    0.0195895800    0.0003335152    
0.0856619080    0.0199252920    0.0003388381    
0.0858845690    0.0194491600    0.0003317501    
0.0861072300    0.0198276220    0.0003372747    
0.0863298910    0.0190618530    0.0003324292    
0.0865525520    0.0195545470    0.0003337906    
0.0867752130    0.0193075220    0.0003289993    
0.0869978740    0.0194455030    0.0003310143    
0.0872205350    0.0200873650    0.0003360050    
0.0874431960    0.0199918480    0.0003352054    
0.0876658570    0.0206327380    0.0003418435    
0.0878885180    0.0199022340    0.0003363131    
0.0881111790    0.0197264820    0.0003343952    
0.0883338400    0.0198245260    0.0003303170    
0.0885565010    0.0203601890    0.0003392894    
0.0887791620    0.0198961520    0.0003310512    
0.0890018230    0.0195539470    0.0003313752    
0.0892244840    0.0193556500    0.0003302512    
0.0894471450    0.0191142570    0.0003267991    
0.0896698060    0.0193917700    0.0003279213    
0.0898924670    0.0196167350    0.0003313467    
0.0901151280    0.0193321620    0.0003253817    
0.0903377890    0.0194399300    0.0003290181    
0.0905604500    0.0197364220    0.0003299962    
0.0907831110    0.0195724620    0.0003278051    
0.0910057720    0.0201957620    0.0003345118    
0.0912284330    0.0200091720    0.0003281957    
0.0914510940    0.0191590000    0.0003247288    
0.0916737550    0.0196609770    0.0003281390    
0.0918964160    0.0193885940    0.0003272133    
0.0921190770    0.0194028960    0.0003243743    
0.0923417380    0.0201677840    0.0003308418    
0.0925643990    0.0194427100    0.0003240452    
0.0927870600    0.0193738060    0.0003247970    
0.0930097210    0.0196928890    0.0003246718    
0.0932323820    0.0195923860    0.0003262228    
