# Diamond Light Source Ltd.
# Data extracted from: /dls/b21/data/2018/cm19678-3/processed/b21-386631_00318.dat
q(1/A)          Column          Error           
0.0035000000    2.0775750000    0.0245733540    
0.0037226610    1.8929631000    0.0229623040    
0.0039453220    1.6016288000    0.0192146270    
0.0041679830    1.3020164000    0.0142273510    
0.0043906440    0.9825498600    0.0118216590    
0.0046133050    0.7759820900    0.0100853470    
0.0048359660    0.5900375700    0.0083186433    
0.0050586270    0.4678354300    0.0072806586    
0.0052812880    0.4354354500    0.0066411006    
0.0055039490    0.3914836000    0.0059874998    
0.0057266100    0.3264500400    0.0052894589    
0.0059492710    0.2659424000    0.0047741570    
0.0061719320    0.2249020000    0.0042306514    
0.0063945930    0.1908482000    0.0039444581    
0.0066172539    0.1906299400    0.0037017268    
0.0068399149    0.1739489500    0.0034803713    
0.0070625759    0.1490479600    0.0031886019    
0.0072852369    0.1311846400    0.0029466677    
0.0075078979    0.1178393400    0.0027790441    
0.0077305589    0.1026713700    0.0025446155    
0.0079532199    0.0975763500    0.0024462987    
0.0081758809    0.0963388690    0.0024533491    
0.0083985419    0.0850570360    0.0021500723    
0.0086212029    0.0789155500    0.0020709961    
0.0088438639    0.0762089540    0.0020188245    
0.0090665249    0.0665506420    0.0018221089    
0.0092891859    0.0661434360    0.0018960137    
0.0095118469    0.0624770970    0.0017720880    
0.0097345079    0.0594538330    0.0016789242    
0.0099571689    0.0548442980    0.0015792753    
0.0101798300    0.0553445470    0.0015864615    
0.0104024910    0.0504085430    0.0015089403    
0.0106251520    0.0480228940    0.0014778024    
0.0108478130    0.0477870130    0.0014356217    
0.0110704740    0.0462477440    0.0013446157    
0.0112931350    0.0434918830    0.0013077678    
0.0115157960    0.0409262560    0.0012612112    
0.0117384570    0.0401100710    0.0012378237    
0.0119611180    0.0386501340    0.0012185743    
0.0121837790    0.0385873900    0.0011971198    
0.0124064400    0.0361877650    0.0011109745    
0.0126291010    0.0354538740    0.0010858882    
0.0128517620    0.0355977270    0.0010908059    
0.0130744230    0.0351704540    0.0010761984    
0.0132970840    0.0323815950    0.0010275989    
0.0135197450    0.0331716580    0.0010251652    
0.0137424060    0.0343185170    0.0010282197    
0.0139650670    0.0293905590    0.0009303419    
0.0141877280    0.0304375870    0.0009488609    
0.0144103890    0.0308825550    0.0009392915    
0.0146330500    0.0314788860    0.0009422958    
0.0148557110    0.0298169290    0.0009132387    
0.0150783720    0.0301239260    0.0009103419    
0.0153010330    0.0296548260    0.0008904912    
0.0155236940    0.0278499270    0.0008578350    
0.0157463550    0.0275566580    0.0008385224    
0.0159690160    0.0268161390    0.0008240400    
0.0161916770    0.0259389760    0.0008058848    
0.0164143380    0.0274010670    0.0008345610    
0.0166369990    0.0259761900    0.0007875189    
0.0168596600    0.0255908440    0.0007747690    
0.0170823210    0.0271090420    0.0007905157    
0.0173049820    0.0267633520    0.0007868172    
0.0175276430    0.0256536110    0.0007784551    
0.0177503040    0.0263140080    0.0007683127    
0.0179729650    0.0265643220    0.0007643025    
0.0181956260    0.0243920190    0.0007183450    
0.0184182870    0.0252733200    0.0007277608    
0.0186409480    0.0243421360    0.0007187485    
0.0188636090    0.0248332540    0.0007213972    
0.0190862700    0.0250063480    0.0007227751    
0.0193089310    0.0231374380    0.0006941579    
0.0195315920    0.0241168030    0.0006845952    
0.0197542530    0.0242845730    0.0006879731    
0.0199769140    0.0231931400    0.0006723355    
0.0201995750    0.0236244070    0.0006679320    
0.0204222360    0.0231672820    0.0006671161    
0.0206448970    0.0243352380    0.0006788660    
0.0208675580    0.0234704830    0.0006529663    
0.0210902190    0.0242218910    0.0006697368    
0.0213128800    0.0223617370    0.0006347747    
0.0215355410    0.0240839480    0.0006509175    
0.0217582020    0.0225182360    0.0006294038    
0.0219808630    0.0241260310    0.0006506307    
0.0222035240    0.0229154420    0.0006283512    
0.0224261850    0.0234571170    0.0006300761    
0.0226488460    0.0223392770    0.0006102625    
0.0228715070    0.0223113630    0.0006083660    
0.0230941680    0.0229085530    0.0006164542    
0.0233168290    0.0229561350    0.0006186312    
0.0235394900    0.0224359240    0.0006048320    
0.0237621510    0.0223094840    0.0005868885    
0.0239848120    0.0230884530    0.0005977374    
0.0242074730    0.0220350460    0.0005792682    
0.0244301340    0.0231690270    0.0005946644    
0.0246527950    0.0228538410    0.0005960745    
0.0248754560    0.0221352410    0.0005734442    
0.0250981170    0.0215178040    0.0005666506    
0.0253207780    0.0216845910    0.0005518583    
0.0255434390    0.0215617570    0.0005561663    
0.0257661000    0.0215426500    0.0005577181    
0.0259887610    0.0215536190    0.0005519316    
0.0262114220    0.0216839110    0.0005565468    
0.0264340830    0.0219178780    0.0005519283    
0.0266567440    0.0219223980    0.0005485745    
0.0268794050    0.0202733500    0.0005253856    
0.0271020660    0.0211899660    0.0005349569    
0.0273247270    0.0215633560    0.0005364085    
0.0275473880    0.0211719440    0.0005304602    
0.0277700490    0.0208435790    0.0005232194    
0.0279927100    0.0213461280    0.0005248695    
0.0282153710    0.0210198970    0.0005233755    
0.0284380320    0.0213951860    0.0005249661    
0.0286606930    0.0218914780    0.0005264748    
0.0288833540    0.0218476320    0.0005269464    
0.0291060150    0.0221740630    0.0005303646    
0.0293286760    0.0208203410    0.0005067592    
0.0295513370    0.0216726240    0.0005113972    
0.0297739980    0.0219797910    0.0005206786    
0.0299966590    0.0213783880    0.0005047354    
0.0302193200    0.0223372170    0.0005234487    
0.0304419810    0.0207328070    0.0005052276    
0.0306646420    0.0213694690    0.0004984493    
0.0308873030    0.0218192060    0.0005014916    
0.0311099640    0.0220601110    0.0005055618    
0.0313326250    0.0218799870    0.0004979158    
0.0315552860    0.0208695770    0.0004925853    
0.0317779470    0.0209525340    0.0004939932    
0.0320006080    0.0216241630    0.0004904460    
0.0322232690    0.0209867560    0.0004851862    
0.0324459300    0.0221221190    0.0004944185    
0.0326685910    0.0220272150    0.0004925435    
0.0328912520    0.0212309780    0.0004851607    
0.0331139130    0.0214382160    0.0004811809    
0.0333365740    0.0213928680    0.0004822325    
0.0335592350    0.0216764990    0.0004807513    
0.0337818960    0.0204177800    0.0004662128    
0.0340045570    0.0212337330    0.0004746821    
0.0342272170    0.0215508400    0.0004763271    
0.0344498780    0.0206925690    0.0004685944    
0.0346725390    0.0209452150    0.0004627153    
0.0348952000    0.0215347680    0.0004670448    
0.0351178610    0.0215892380    0.0004697755    
0.0353405220    0.0216259590    0.0004680330    
0.0355631830    0.0213628400    0.0004634251    
0.0357858440    0.0205384990    0.0004543960    
0.0360085050    0.0208448500    0.0004591555    
0.0362311660    0.0208854690    0.0004541393    
0.0364538270    0.0210374100    0.0004521300    
0.0366764880    0.0210165930    0.0004515783    
0.0368991490    0.0208532600    0.0004475526    
0.0371218100    0.0210588290    0.0004484664    
0.0373444710    0.0208953690    0.0004515873    
0.0375671320    0.0199684730    0.0004408148    
0.0377897930    0.0213395820    0.0004439008    
0.0380124540    0.0208508440    0.0004415412    
0.0382351150    0.0213464170    0.0004467577    
0.0384577760    0.0208172680    0.0004369289    
0.0386804370    0.0210989660    0.0004432321    
0.0389030980    0.0209456850    0.0004382748    
0.0391257590    0.0207798720    0.0004335731    
0.0393484200    0.0206402370    0.0004306596    
0.0395710810    0.0210833140    0.0004358439    
0.0397937420    0.0208670890    0.0004336033    
0.0400164030    0.0200743730    0.0004270177    
0.0402390640    0.0211350820    0.0004323197    
0.0404617250    0.0207204060    0.0004255323    
0.0406843860    0.0206133670    0.0004203310    
0.0409070470    0.0201875220    0.0004202998    
0.0411297080    0.0202879940    0.0004172683    
0.0413523690    0.0202029410    0.0004174660    
0.0415750300    0.0207932850    0.0004271190    
0.0417976910    0.0215299500    0.0004233785    
0.0420203520    0.0208196690    0.0004179005    
0.0422430130    0.0205043030    0.0004162935    
0.0424656740    0.0210031990    0.0004158438    
0.0426883350    0.0211706260    0.0004195701    
0.0429109960    0.0197970120    0.0004069980    
0.0431336570    0.0204630720    0.0004079581    
0.0433563180    0.0205197790    0.0004120471    
0.0435789790    0.0200404120    0.0004008082    
0.0438016400    0.0200645630    0.0004032314    
0.0440243010    0.0215491980    0.0004136435    
0.0442469620    0.0212377030    0.0004131036    
0.0444696230    0.0199527940    0.0003989761    
0.0446922840    0.0205561520    0.0004037610    
0.0449149450    0.0201260190    0.0003941734    
0.0451376060    0.0202068800    0.0003998424    
0.0453602670    0.0208622420    0.0004020155    
0.0455829280    0.0201570630    0.0003947058    
0.0458055890    0.0203224610    0.0003986329    
0.0460282500    0.0203924230    0.0003945033    
0.0462509110    0.0201998440    0.0003901940    
0.0464735720    0.0200717440    0.0003891744    
0.0466962330    0.0203460220    0.0003936056    
0.0469188940    0.0209349710    0.0003981299    
0.0471415550    0.0202632360    0.0003937022    
0.0473642160    0.0206516540    0.0003918924    
0.0475868770    0.0205942330    0.0003894031    
0.0478095380    0.0209544900    0.0003910754    
0.0480321990    0.0202473690    0.0003852625    
0.0482548600    0.0204564700    0.0003855596    
0.0484775210    0.0201309250    0.0003862770    
0.0487001820    0.0205893680    0.0003849321    
0.0489228430    0.0200640280    0.0003797854    
0.0491455040    0.0203262670    0.0003796154    
0.0493681650    0.0205905710    0.0003853588    
0.0495908260    0.0203148360    0.0003763297    
0.0498134870    0.0199503380    0.0003764885    
0.0500361480    0.0196540930    0.0003726941    
0.0502588090    0.0201186590    0.0003714232    
0.0504814700    0.0200710390    0.0003758332    
0.0507041310    0.0196309680    0.0003672710    
0.0509267920    0.0203964790    0.0003759121    
0.0511494530    0.0205970670    0.0003752371    
0.0513721140    0.0198204980    0.0003713371    
0.0515947750    0.0200773750    0.0003687804    
0.0518174360    0.0197826850    0.0003638589    
0.0520400970    0.0201890900    0.0003650287    
0.0522627580    0.0203323250    0.0003694345    
0.0524854190    0.0203573030    0.0003726669    
0.0527080800    0.0203966290    0.0003759149    
0.0529307410    0.0202529820    0.0003763481    
0.0531534020    0.0192865560    0.0003659220    
0.0533760630    0.0202318570    0.0003759555    
0.0535987240    0.0202717760    0.0003745692    
0.0538213850    0.0203263720    0.0003794189    
0.0540440460    0.0203448960    0.0003777952    
0.0542667070    0.0206831820    0.0003835484    
0.0544893680    0.0193595310    0.0003712703    
0.0547120290    0.0198115190    0.0003730064    
0.0549346900    0.0201135810    0.0003760369    
0.0551573510    0.0197982750    0.0003774697    
0.0553800120    0.0203191500    0.0003791520    
0.0556026730    0.0200057990    0.0003840175    
0.0558253340    0.0199150070    0.0003863534    
0.0560479950    0.0200574380    0.0003877327    
0.0562706560    0.0200574580    0.0003914815    
0.0564933170    0.0199875100    0.0003941919    
0.0567159780    0.0197918860    0.0003875550    
0.0569386390    0.0195564720    0.0003912860    
0.0571613000    0.0207096330    0.0003939871    
0.0573839610    0.0196889900    0.0003809662    
0.0576066220    0.0201094650    0.0003860785    
0.0578292830    0.0199324250    0.0003831034    
0.0580519440    0.0198572670    0.0003838632    
0.0582746050    0.0207710960    0.0003908653    
0.0584972660    0.0195175360    0.0003774368    
0.0587199270    0.0189242370    0.0003684521    
0.0589425880    0.0200647940    0.0003771738    
0.0591652490    0.0204451060    0.0003829719    
0.0593879100    0.0198245170    0.0003743141    
0.0596105710    0.0197686090    0.0003733916    
0.0598332320    0.0204021290    0.0003825698    
0.0600558930    0.0200790580    0.0003771089    
0.0602785540    0.0208140640    0.0003835432    
0.0605012150    0.0197059610    0.0003724077    
0.0607238760    0.0191146270    0.0003641047    
0.0609465370    0.0195435920    0.0003710660    
0.0611691980    0.0200155130    0.0003761145    
0.0613918590    0.0204243900    0.0003757888    
0.0616145200    0.0200860250    0.0003753905    
0.0618371810    0.0204019140    0.0003746151    
0.0620598420    0.0203061460    0.0003741202    
0.0622825030    0.0202072380    0.0003789153    
0.0625051640    0.0205208220    0.0003764813    
0.0627278250    0.0200168010    0.0003710634    
0.0629504860    0.0197129660    0.0003652429    
0.0631731470    0.0200997320    0.0003733714    
0.0633958080    0.0191320560    0.0003663693    
0.0636184690    0.0196470460    0.0003764382    
0.0638411300    0.0199364900    0.0003777775    
0.0640637910    0.0203631100    0.0003844835    
0.0642864520    0.0201160570    0.0003813171    
0.0645091130    0.0195580850    0.0003792863    
0.0647317740    0.0189820150    0.0003740707    
0.0649544350    0.0197125940    0.0003807820    
0.0651770960    0.0190761420    0.0003725411    
0.0653997570    0.0203843220    0.0003842680    
0.0656224180    0.0200292680    0.0003817350    
0.0658450790    0.0197968850    0.0003740592    
0.0660677400    0.0201368250    0.0003788626    
0.0662904010    0.0201898270    0.0003838897    
0.0665130620    0.0196460070    0.0003770417    
0.0667357230    0.0192114740    0.0003794778    
0.0669583840    0.0199319360    0.0003852346    
0.0671810450    0.0193000810    0.0003769864    
0.0674037060    0.0198453320    0.0003887507    
0.0676263670    0.0194507480    0.0003820488    
0.0678490280    0.0195619610    0.0003807963    
0.0680716890    0.0193587390    0.0003796561    
0.0682943500    0.0198110180    0.0003798589    
0.0685170110    0.0194450030    0.0003724987    
0.0687396720    0.0201012920    0.0003777264    
0.0689623330    0.0199458820    0.0003750710    
0.0691849940    0.0188859790    0.0003674983    
0.0694076550    0.0196087420    0.0003742644    
0.0696303160    0.0193135410    0.0003684958    
0.0698529770    0.0196037410    0.0003704759    
0.0700756380    0.0195062110    0.0003648092    
0.0702982990    0.0196335770    0.0003699841    
0.0705209600    0.0191655640    0.0003629087    
0.0707436210    0.0199704130    0.0003687492    
0.0709662820    0.0194244860    0.0003680095    
0.0711889430    0.0207663830    0.0003758352    
0.0714116040    0.0200590050    0.0003701327    
0.0716342650    0.0191715820    0.0003603834    
0.0718569260    0.0205227320    0.0003713647    
0.0720795870    0.0196864880    0.0003651913    
0.0723022480    0.0196921720    0.0003658006    
0.0725249090    0.0194356010    0.0003590576    
0.0727475700    0.0196408380    0.0003640315    
0.0729702310    0.0193420740    0.0003583709    
0.0731928920    0.0194769110    0.0003610552    
0.0734155530    0.0196659180    0.0003620789    
0.0736382140    0.0197302070    0.0003603428    
0.0738608750    0.0207192660    0.0003716498    
0.0740835360    0.0196082460    0.0003606505    
0.0743061970    0.0197047090    0.0003564457    
0.0745288580    0.0196184310    0.0003593216    
0.0747515190    0.0198347510    0.0003620107    
0.0749741800    0.0204744890    0.0003643978    
0.0751968410    0.0189395450    0.0003532243    
0.0754195020    0.0196818540    0.0003579703    
0.0756421630    0.0200338830    0.0003582051    
0.0758648240    0.0197506240    0.0003565187    
0.0760874850    0.0192623180    0.0003519149    
0.0763101460    0.0195718910    0.0003543911    
0.0765328070    0.0202298850    0.0003639858    
0.0767554680    0.0203180550    0.0003623029    
0.0769781290    0.0199510960    0.0003569532    
0.0772007900    0.0198837300    0.0003534920    
0.0774234510    0.0201423490    0.0003578071    
0.0776461120    0.0202373800    0.0003583100    
0.0778687730    0.0193665380    0.0003493580    
0.0780914340    0.0194780820    0.0003528661    
0.0783140950    0.0193849790    0.0003464366    
0.0785367560    0.0196443430    0.0003543694    
0.0787594170    0.0196141120    0.0003509240    
0.0789820780    0.0198983420    0.0003516464    
0.0792047390    0.0196346000    0.0003504503    
0.0794274000    0.0192525260    0.0003484941    
0.0796500610    0.0200167000    0.0003518749    
0.0798727220    0.0200229830    0.0003516052    
0.0800953830    0.0193717220    0.0003450445    
0.0803180440    0.0198295100    0.0003515296    
0.0805407050    0.0195189580    0.0003484417    
0.0807633660    0.0194330690    0.0003473515    
0.0809860270    0.0193699290    0.0003455062    
0.0812086880    0.0203448710    0.0003510346    
0.0814313490    0.0195040200    0.0003452715    
0.0816540100    0.0194092280    0.0003436473    
0.0818766710    0.0199686050    0.0003493600    
0.0820993320    0.0192320830    0.0003422317    
0.0823219930    0.0199006980    0.0003495657    
0.0825446540    0.0197517540    0.0003457249    
0.0827673150    0.0195051620    0.0003412518    
0.0829899760    0.0195428610    0.0003409734    
0.0832126370    0.0194662140    0.0003418283    
0.0834352980    0.0195943880    0.0003421850    
0.0836579590    0.0203996250    0.0003483681    
0.0838806200    0.0194439500    0.0003411744    
0.0841032810    0.0196821930    0.0003411274    
0.0843259420    0.0198196980    0.0003412627    
0.0845486030    0.0198314800    0.0003413644    
0.0847712640    0.0198459040    0.0003394074    
0.0849939250    0.0191345570    0.0003338495    
0.0852165860    0.0191730400    0.0003346228    
0.0854392470    0.0193903540    0.0003333270    
0.0856619080    0.0199154280    0.0003402980    
0.0858845690    0.0190614970    0.0003299239    
0.0861072300    0.0197076930    0.0003377855    
0.0863298910    0.0201193910    0.0003430826    
0.0865525520    0.0198194280    0.0003375752    
0.0867752130    0.0197611090    0.0003343582    
0.0869978740    0.0188100120    0.0003270441    
0.0872205350    0.0201971330    0.0003384572    
0.0874431960    0.0196073010    0.0003334787    
0.0876658570    0.0196952870    0.0003355094    
0.0878885180    0.0195334820    0.0003347013    
0.0881111790    0.0195863500    0.0003347238    
0.0883338400    0.0192947100    0.0003273583    
0.0885565010    0.0195533930    0.0003340143    
0.0887791620    0.0199000290    0.0003325923    
0.0890018230    0.0193018820    0.0003307328    
0.0892244840    0.0193107010    0.0003313708    
0.0894471450    0.0201853700    0.0003373612    
0.0896698060    0.0192835250    0.0003284950    
0.0898924670    0.0195474290    0.0003322683    
0.0901151280    0.0197740400    0.0003305790    
0.0903377890    0.0192747300    0.0003291101    
0.0905604500    0.0189200470    0.0003245716    
0.0907831110    0.0195850500    0.0003294048    
0.0910057720    0.0195639260    0.0003307380    
0.0912284330    0.0200615830    0.0003301228    
0.0914510940    0.0200393990    0.0003336195    
0.0916737550    0.0198295300    0.0003310444    
0.0918964160    0.0197496100    0.0003317506    
0.0921190770    0.0196458130    0.0003278859    
0.0923417380    0.0195031070    0.0003268269    
0.0925643990    0.0202797830    0.0003324555    
0.0927870600    0.0198035540    0.0003298760    
0.0930097210    0.0197917620    0.0003269691    
0.0932323820    0.0191081180    0.0003236341    
