# Diamond Light Source Ltd.
# Data extracted from: /dls/b21/data/2018/cm19678-3/processed/b21-386631_00316.dat
q(1/A)          Column          Error           
0.0035000000    2.0958247000    0.0247012460    
0.0037226610    1.8729062000    0.0228590250    
0.0039453220    1.6109475000    0.0192862160    
0.0041679830    1.3095987000    0.0142803950    
0.0043906440    0.9766081200    0.0117955070    
0.0046133050    0.7843426100    0.0101478300    
0.0048359660    0.5985220200    0.0083850961    
0.0050586270    0.4608842000    0.0072322815    
0.0052812880    0.4403080900    0.0066836208    
0.0055039490    0.3850618500    0.0059430485    
0.0057266100    0.3222631400    0.0052597305    
0.0059492710    0.2823451200    0.0049232098    
0.0061719320    0.2286182600    0.0042689527    
0.0063945930    0.2008779900    0.0040500912    
0.0066172539    0.1770462500    0.0035703226    
0.0068399149    0.1695605900    0.0034390022    
0.0070625759    0.1463540200    0.0031622406    
0.0072852369    0.1241068600    0.0028684208    
0.0075078979    0.1125180000    0.0027177945    
0.0077305589    0.1027131600    0.0025472164    
0.0079532199    0.1022820000    0.0025066408    
0.0081758809    0.0939934750    0.0024252848    
0.0083985419    0.0849241290    0.0021501502    
0.0086212029    0.0777926920    0.0020578925    
0.0088438639    0.0723161850    0.0019681973    
0.0090665249    0.0694079580    0.0018623365    
0.0092891859    0.0689736790    0.0019377381    
0.0095118469    0.0598607530    0.0017360061    
0.0097345079    0.0570817640    0.0016464371    
0.0099571689    0.0568016870    0.0016085257    
0.0101798300    0.0541142070    0.0015700124    
0.0104024910    0.0500386610    0.0015046245    
0.0106251520    0.0484659400    0.0014858187    
0.0108478130    0.0467420750    0.0014210009    
0.0110704740    0.0455011670    0.0013348101    
0.0112931350    0.0432873870    0.0013057575    
0.0115157960    0.0416940150    0.0012740280    
0.0117384570    0.0374973700    0.0011978096    
0.0119611180    0.0394445940    0.0012320421    
0.0121837790    0.0392085760    0.0012077047    
0.0124064400    0.0399366380    0.0011680576    
0.0126291010    0.0344459080    0.0010712168    
0.0128517620    0.0341159480    0.0010687358    
0.0130744230    0.0365144650    0.0010974661    
0.0132970840    0.0344270810    0.0010604249    
0.0135197450    0.0309728320    0.0009914162    
0.0137424060    0.0327084370    0.0010046317    
0.0139650670    0.0329194150    0.0009854169    
0.0141877280    0.0305763150    0.0009517991    
0.0144103890    0.0317915860    0.0009537953    
0.0146330500    0.0293266940    0.0009102579    
0.0148557110    0.0300618730    0.0009177326    
0.0150783720    0.0286577050    0.0008886377    
0.0153010330    0.0282302710    0.0008695504    
0.0155236940    0.0282925280    0.0008653323    
0.0157463550    0.0291863310    0.0008636673    
0.0159690160    0.0279506870    0.0008419798    
0.0161916770    0.0270598330    0.0008237860    
0.0164143380    0.0276496180    0.0008390237    
0.0166369990    0.0276927260    0.0008137883    
0.0168596600    0.0264550660    0.0007883874    
0.0170823210    0.0267840000    0.0007864053    
0.0173049820    0.0260889220    0.0007774759    
0.0175276430    0.0257666030    0.0007808061    
0.0177503040    0.0261998100    0.0007672711    
0.0179729650    0.0261012170    0.0007582311    
0.0181956260    0.0252795590    0.0007318958    
0.0184182870    0.0243911190    0.0007155313    
0.0186409480    0.0242119400    0.0007174105    
0.0188636090    0.0250838260    0.0007256210    
0.0190862700    0.0248380470    0.0007209283    
0.0193089310    0.0242391810    0.0007110741    
0.0195315920    0.0245066690    0.0006906713    
0.0197542530    0.0238753360    0.0006827100    
0.0199769140    0.0235629930    0.0006782297    
0.0201995750    0.0247223520    0.0006838360    
0.0204222360    0.0236092910    0.0006740012    
0.0206448970    0.0245647780    0.0006826183    
0.0208675580    0.0237454620    0.0006573178    
0.0210902190    0.0245583330    0.0006749240    
0.0213128800    0.0236256630    0.0006530015    
0.0215355410    0.0230132530    0.0006368049    
0.0217582020    0.0231013680    0.0006380230    
0.0219808630    0.0235328410    0.0006431082    
0.0222035240    0.0234189300    0.0006357365    
0.0224261850    0.0238345700    0.0006356451    
0.0226488460    0.0233109690    0.0006239038    
0.0228715070    0.0223478990    0.0006093623    
0.0230941680    0.0233282250    0.0006225843    
0.0233168290    0.0222256000    0.0006092064    
0.0235394900    0.0230606120    0.0006136963    
0.0237621510    0.0235677020    0.0006037050    
0.0239848120    0.0225062550    0.0005906360    
0.0242074730    0.0231998540    0.0005948680    
0.0244301340    0.0221979690    0.0005825456    
0.0246527950    0.0216299100    0.0005803682    
0.0248754560    0.0218292450    0.0005699328    
0.0250981170    0.0220163860    0.0005736469    
0.0253207780    0.0218889100    0.0005549059    
0.0255434390    0.0219419300    0.0005615072    
0.0257661000    0.0216791640    0.0005599403    
0.0259887610    0.0217304810    0.0005546451    
0.0262114220    0.0221343490    0.0005627579    
0.0264340830    0.0210349690    0.0005411400    
0.0266567440    0.0220957940    0.0005511904    
0.0268794050    0.0222294650    0.0005505987    
0.0271020660    0.0228885500    0.0005564397    
0.0273247270    0.0219862670    0.0005420865    
0.0275473880    0.0224047280    0.0005461320    
0.0277700490    0.0203251820    0.0005170949    
0.0279927100    0.0221179170    0.0005347111    
0.0282153710    0.0217852800    0.0005332551    
0.0284380320    0.0225526960    0.0005394209    
0.0286606930    0.0219400090    0.0005274894    
0.0288833540    0.0220616330    0.0005299542    
0.0291060150    0.0220197820    0.0005289489    
0.0293286760    0.0225470060    0.0005277855    
0.0295513370    0.0216718530    0.0005118066    
0.0297739980    0.0209038760    0.0005081906    
0.0299966590    0.0220460110    0.0005129754    
0.0302193200    0.0215260240    0.0005142766    
0.0304419810    0.0208037530    0.0005065055    
0.0306646420    0.0215907910    0.0005014339    
0.0308873030    0.0221551090    0.0005057506    
0.0311099640    0.0220846300    0.0005062566    
0.0313326250    0.0213823920    0.0004926243    
0.0315552860    0.0222662810    0.0005092180    
0.0317779470    0.0213718180    0.0004993197    
0.0320006080    0.0215147310    0.0004896038    
0.0322232690    0.0210548280    0.0004863702    
0.0324459300    0.0214610550    0.0004873738    
0.0326685910    0.0218205890    0.0004906291    
0.0328912520    0.0216099950    0.0004898727    
0.0331139130    0.0217004960    0.0004845116    
0.0333365740    0.0215476700    0.0004843702    
0.0335592350    0.0219042320    0.0004836656    
0.0337818960    0.0224771440    0.0004895599    
0.0340045570    0.0210346680    0.0004728384    
0.0342272170    0.0211959560    0.0004727755    
0.0344498780    0.0210665810    0.0004731973    
0.0346725390    0.0209180810    0.0004627939    
0.0348952000    0.0210018670    0.0004616074    
0.0351178610    0.0211638410    0.0004655049    
0.0353405220    0.0207989760    0.0004593725    
0.0355631830    0.0202498930    0.0004515613    
0.0357858440    0.0214381150    0.0004646209    
0.0360085050    0.0211423780    0.0004627992    
0.0362311660    0.0213054230    0.0004590577    
0.0364538270    0.0212762520    0.0004550614    
0.0366764880    0.0207788820    0.0004493847    
0.0368991490    0.0203967330    0.0004429887    
0.0371218100    0.0211220130    0.0004495063    
0.0373444710    0.0211739770    0.0004549600    
0.0375671320    0.0202935870    0.0004447526    
0.0377897930    0.0209305730    0.0004399860    
0.0380124540    0.0209318160    0.0004427598    
0.0382351150    0.0209505610    0.0004429581    
0.0384577760    0.0211636690    0.0004409098    
0.0386804370    0.0214226340    0.0004469844    
0.0389030980    0.0210259130    0.0004394728    
0.0391257590    0.0202974040    0.0004288609    
0.0393484200    0.0198639960    0.0004228297    
0.0395710810    0.0209012460    0.0004343131    
0.0397937420    0.0213163980    0.0004386053    
0.0400164030    0.0206258490    0.0004331976    
0.0402390640    0.0205673740    0.0004268229    
0.0404617250    0.0209031450    0.0004277544    
0.0406843860    0.0203466450    0.0004179445    
0.0409070470    0.0210181840    0.0004292108    
0.0411297080    0.0208971570    0.0004238330    
0.0413523690    0.0210136690    0.0004261084    
0.0415750300    0.0210382450    0.0004299792    
0.0417976910    0.0209814620    0.0004182928    
0.0420203520    0.0210638130    0.0004206877    
0.0422430130    0.0203347020    0.0004149075    
0.0424656740    0.0211777890    0.0004179103    
0.0426883350    0.0206555890    0.0004147742    
0.0429109960    0.0198713360    0.0004080950    
0.0431336570    0.0201870150    0.0004055286    
0.0433563180    0.0201472860    0.0004086242    
0.0435789790    0.0204345470    0.0004050617    
0.0438016400    0.0203571610    0.0004064933    
0.0440243010    0.0203279100    0.0004020798    
0.0442469620    0.0197834880    0.0003990359    
0.0444696230    0.0204729180    0.0004044736    
0.0446922840    0.0206454190    0.0004049679    
0.0449149450    0.0201899070    0.0003951217    
0.0451376060    0.0205411130    0.0004034656    
0.0453602670    0.0205549870    0.0003993707    
0.0455829280    0.0209564890    0.0004027860    
0.0458055890    0.0205828720    0.0004015072    
0.0460282500    0.0200053750    0.0003910613    
0.0462509110    0.0203159680    0.0003916343    
0.0464735720    0.0209964720    0.0003983641    
0.0466962330    0.0206767920    0.0003971169    
0.0469188940    0.0205976460    0.0003952325    
0.0471415550    0.0203117420    0.0003944957    
0.0473642160    0.0211026080    0.0003964723    
0.0475868770    0.0207975830    0.0003916412    
0.0478095380    0.0200676660    0.0003830237    
0.0480321990    0.0201043000    0.0003842132    
0.0482548600    0.0204099020    0.0003854357    
0.0484775210    0.0198595020    0.0003839781    
0.0487001820    0.0203347500    0.0003828576    
0.0489228430    0.0211841760    0.0003905622    
0.0491455040    0.0204092620    0.0003807009    
0.0493681650    0.0201908540    0.0003819124    
0.0495908260    0.0202014630    0.0003755853    
0.0498134870    0.0213351340    0.0003896544    
0.0500361480    0.0210454170    0.0003859758    
0.0502588090    0.0202958390    0.0003733604    
0.0504814700    0.0207171740    0.0003821472    
0.0507041310    0.0208537760    0.0003788466    
0.0509267920    0.0200065700    0.0003726064    
0.0511494530    0.0200145430    0.0003701956    
0.0513721140    0.0203546800    0.0003766158    
0.0515947750    0.0202730890    0.0003708768    
0.0518174360    0.0205323380    0.0003709923    
0.0520400970    0.0196536300    0.0003604502    
0.0522627580    0.0203387260    0.0003697950    
0.0524854190    0.0207938060    0.0003769494    
0.0527080800    0.0202565410    0.0003749283    
0.0529307410    0.0205313190    0.0003792355    
0.0531534020    0.0198883650    0.0003718913    
0.0533760630    0.0202300000    0.0003762460    
0.0535987240    0.0200900680    0.0003731919    
0.0538213850    0.0204305970    0.0003807017    
0.0540440460    0.0208841540    0.0003830826    
0.0542667070    0.0216859370    0.0003930573    
0.0544893680    0.0202042530    0.0003795942    
0.0547120290    0.0201394050    0.0003763882    
0.0549346900    0.0200831430    0.0003760598    
0.0551573510    0.0206452610    0.0003857748    
0.0553800120    0.0207917870    0.0003838502    
0.0556026730    0.0196324720    0.0003807289    
0.0558253340    0.0202854600    0.0003902494    
0.0560479950    0.0211038060    0.0003980434    
0.0562706560    0.0203046000    0.0003942083    
0.0564933170    0.0202849970    0.0003974395    
0.0567159780    0.0201207490    0.0003910814    
0.0569386390    0.0197218050    0.0003932581    
0.0571613000    0.0201579520    0.0003890221    
0.0573839610    0.0198541340    0.0003828737    
0.0576066220    0.0201201230    0.0003864969    
0.0578292830    0.0197733060    0.0003818835    
0.0580519440    0.0197114010    0.0003827637    
0.0582746050    0.0199947130    0.0003838047    
0.0584972660    0.0208800910    0.0003907089    
0.0587199270    0.0201049000    0.0003800827    
0.0589425880    0.0196999590    0.0003740349    
0.0591652490    0.0198318940    0.0003774937    
0.0593879100    0.0198782180    0.0003751275    
0.0596105710    0.0202389620    0.0003781168    
0.0598332320    0.0197098040    0.0003763305    
0.0600558930    0.0199345850    0.0003760573    
0.0602785540    0.0199703320    0.0003759964    
0.0605012150    0.0201964390    0.0003773223    
0.0607238760    0.0202643950    0.0003752023    
0.0609465370    0.0198437540    0.0003742107    
0.0611691980    0.0198713090    0.0003750639    
0.0613918590    0.0200284570    0.0003724332    
0.0616145200    0.0199291820    0.0003742281    
0.0618371810    0.0203802040    0.0003747222    
0.0620598420    0.0200632360    0.0003721801    
0.0622825030    0.0208452610    0.0003851657    
0.0625051640    0.0198349170    0.0003704389    
0.0627278250    0.0196224060    0.0003676904    
0.0629504860    0.0198875920    0.0003671573    
0.0631731470    0.0199520220    0.0003723014    
0.0633958080    0.0195428590    0.0003705848    
0.0636184690    0.0196358730    0.0003766392    
0.0638411300    0.0197683710    0.0003764892    
0.0640637910    0.0206509570    0.0003875083    
0.0642864520    0.0202865580    0.0003832431    
0.0645091130    0.0203563290    0.0003872657    
0.0647317740    0.0196407160    0.0003808171    
0.0649544350    0.0203784790    0.0003874768    
0.0651770960    0.0202442040    0.0003840914    
0.0653997570    0.0203378890    0.0003841442    
0.0656224180    0.0200693550    0.0003824296    
0.0658450790    0.0202611450    0.0003787295    
0.0660677400    0.0202697570    0.0003804222    
0.0662904010    0.0204641600    0.0003868054    
0.0665130620    0.0197868970    0.0003787009    
0.0667357230    0.0194156170    0.0003818009    
0.0669583840    0.0204791650    0.0003908067    
0.0671810450    0.0195603330    0.0003798302    
0.0674037060    0.0202210780    0.0003927349    
0.0676263670    0.0200388150    0.0003880985    
0.0678490280    0.0202993490    0.0003882244    
0.0680716890    0.0202480940    0.0003885968    
0.0682943500    0.0199528910    0.0003815287    
0.0685170110    0.0200986750    0.0003790179    
0.0687396720    0.0200631140    0.0003776764    
0.0689623330    0.0202540620    0.0003782669    
0.0691849940    0.0195543930    0.0003742510    
0.0694076550    0.0197553350    0.0003759683    
0.0696303160    0.0196268600    0.0003717768    
0.0698529770    0.0196919460    0.0003716123    
0.0700756380    0.0202283790    0.0003718050    
0.0702982990    0.0200847420    0.0003745173    
0.0705209600    0.0200366860    0.0003713683    
0.0707436210    0.0204054970    0.0003730494    
0.0709662820    0.0195400980    0.0003694051    
0.0711889430    0.0195127140    0.0003646122    
0.0714116040    0.0200166020    0.0003700438    
0.0716342650    0.0203768690    0.0003718432    
0.0718569260    0.0195601580    0.0003628478    
0.0720795870    0.0191962410    0.0003609107    
0.0723022480    0.0198673500    0.0003677248    
0.0725249090    0.0192681030    0.0003577997    
0.0727475700    0.0190580080    0.0003588831    
0.0729702310    0.0204578260    0.0003688640    
0.0731928920    0.0200183140    0.0003663385    
0.0734155530    0.0195311890    0.0003611318    
0.0736382140    0.0199075380    0.0003622547    
0.0738608750    0.0197649480    0.0003632870    
0.0740835360    0.0201386730    0.0003657951    
0.0743061970    0.0199630220    0.0003590681    
0.0745288580    0.0199801540    0.0003629158    
0.0747515190    0.0192848480    0.0003572493    
0.0749741800    0.0195530980    0.0003563956    
0.0751968410    0.0200263120    0.0003635144    
0.0754195020    0.0195184440    0.0003567729    
0.0756421630    0.0197010240    0.0003555076    
0.0758648240    0.0199956870    0.0003590174    
0.0760874850    0.0201181650    0.0003599423    
0.0763101460    0.0195396660    0.0003543891    
0.0765328070    0.0198628690    0.0003609641    
0.0767554680    0.0198336460    0.0003582509    
0.0769781290    0.0201884670    0.0003593642    
0.0772007900    0.0198407550    0.0003533988    
0.0774234510    0.0196087180    0.0003533246    
0.0776461120    0.0199591550    0.0003561297    
0.0778687730    0.0199790000    0.0003551296    
0.0780914340    0.0200158160    0.0003579965    
0.0783140950    0.0207872420    0.0003590417    
0.0785367560    0.0195548540    0.0003538507    
0.0787594170    0.0201744910    0.0003561930    
0.0789820780    0.0198562330    0.0003515617    
0.0792047390    0.0199862830    0.0003538642    
0.0794274000    0.0191892760    0.0003482060    
0.0796500610    0.0196529500    0.0003489484    
0.0798727220    0.0195053670    0.0003473148    
0.0800953830    0.0203083640    0.0003535768    
0.0803180440    0.0196747230    0.0003504415    
0.0805407050    0.0196942200    0.0003502890    
0.0807633660    0.0194835490    0.0003480870    
0.0809860270    0.0198584480    0.0003501223    
0.0812086880    0.0200748500    0.0003489827    
0.0814313490    0.0197992140    0.0003481592    
0.0816540100    0.0191180110    0.0003413386    
0.0818766710    0.0197870270    0.0003480526    
0.0820993320    0.0198918700    0.0003483375    
0.0823219930    0.0195396650    0.0003466638    
0.0825446540    0.0199598770    0.0003478260    
0.0827673150    0.0195371020    0.0003418106    
0.0829899760    0.0193186330    0.0003392891    
0.0832126370    0.0195161280    0.0003425464    
0.0834352980    0.0204824020    0.0003501393    
0.0836579590    0.0196107040    0.0003418450    
0.0838806200    0.0200874080    0.0003470575    
0.0841032810    0.0193413370    0.0003384374    
0.0843259420    0.0194401620    0.0003382561    
0.0845486030    0.0194755040    0.0003385637    
0.0847712640    0.0195411850    0.0003370673    
0.0849939250    0.0197318240    0.0003392973    
0.0852165860    0.0196022130    0.0003386241    
0.0854392470    0.0195368940    0.0003348581    
0.0856619080    0.0195985850    0.0003378564    
0.0858845690    0.0200993970    0.0003390644    
0.0861072300    0.0193108360    0.0003346409    
0.0863298910    0.0199296600    0.0003417406    
0.0865525520    0.0195581650    0.0003356172    
0.0867752130    0.0195781380    0.0003330791    
0.0869978740    0.0198603140    0.0003363258    
0.0872205350    0.0196507400    0.0003341209    
0.0874431960    0.0198041600    0.0003354229    
0.0876658570    0.0187085320    0.0003272643    
0.0878885180    0.0199273680    0.0003383357    
0.0881111790    0.0198304220    0.0003370786    
0.0883338400    0.0192762390    0.0003274694    
0.0885565010    0.0194596820    0.0003334857    
0.0887791620    0.0194704920    0.0003292525    
0.0890018230    0.0195775700    0.0003333590    
0.0892244840    0.0194676270    0.0003329868    
0.0894471450    0.0193148080    0.0003302762    
0.0896698060    0.0195785420    0.0003312692    
0.0898924670    0.0193531530    0.0003308836    
0.0901151280    0.0198783840    0.0003317213    
0.0903377890    0.0200042470    0.0003355548    
0.0905604500    0.0192968110    0.0003280556    
0.0907831110    0.0191898180    0.0003263310    
0.0910057720    0.0197191730    0.0003323194    
0.0912284330    0.0197244320    0.0003276050    
0.0914510940    0.0196049020    0.0003302530    
0.0916737550    0.0198343240    0.0003313554    
0.0918964160    0.0197707880    0.0003322001    
0.0921190770    0.0195135450    0.0003270477    
0.0923417380    0.0194362990    0.0003265337    
0.0925643990    0.0198544360    0.0003292198    
0.0927870600    0.0196488510    0.0003288539    
0.0930097210    0.0197213720    0.0003266543    
0.0932323820    0.0190350920    0.0003232794    
