# Diamond Light Source Ltd.
# Data extracted from: /dls/b21/data/2018/cm19678-3/processed/b21-386631_00323.dat
q(1/A)          Column          Error           
0.0035000000    2.0623370000    0.0243760760    
0.0037226610    1.8615440000    0.0226714310    
0.0039453220    1.6239930000    0.0192637570    
0.0041679830    1.3100788000    0.0142089640    
0.0043906440    0.9674950500    0.0116794770    
0.0046133050    0.8088446400    0.0102516890    
0.0048359660    0.5965174200    0.0083276434    
0.0050586270    0.4667878400    0.0072407201    
0.0052812880    0.4374613200    0.0066274412    
0.0055039490    0.3855276100    0.0059158118    
0.0057266100    0.3233481000    0.0052412626    
0.0059492710    0.2712692000    0.0048006609    
0.0061719320    0.2255439000    0.0042181694    
0.0063945930    0.1988005200    0.0040082054    
0.0066172539    0.1844071000    0.0036248956    
0.0068399149    0.1634582500    0.0033590462    
0.0070625759    0.1466661500    0.0031491991    
0.0072852369    0.1281378300    0.0028995208    
0.0075078979    0.1110295100    0.0026857612    
0.0077305589    0.0987751770    0.0024849593    
0.0079532199    0.1038992000    0.0025132818    
0.0081758809    0.0943838970    0.0024177168    
0.0083985419    0.0858237420    0.0021503025    
0.0086212029    0.0772575420    0.0020401698    
0.0088438639    0.0747491080    0.0019906571    
0.0090665249    0.0681956160    0.0018364298    
0.0092891859    0.0613642830    0.0018182509    
0.0095118469    0.0621813390    0.0017601626    
0.0097345079    0.0561154450    0.0016239784    
0.0099571689    0.0539602680    0.0015596495    
0.0101798300    0.0509399440    0.0015153719    
0.0104024910    0.0508644150    0.0015091239    
0.0106251520    0.0457558070    0.0014361943    
0.0108478130    0.0447623190    0.0013833728    
0.0110704740    0.0433642320    0.0012963331    
0.0112931350    0.0423719440    0.0012851790    
0.0115157960    0.0391052850    0.0012274461    
0.0117384570    0.0402146610    0.0012340199    
0.0119611180    0.0381607160    0.0012055429    
0.0121837790    0.0370727750    0.0011682623    
0.0124064400    0.0394559960    0.0011549883    
0.0126291010    0.0342874830    0.0010632097    
0.0128517620    0.0359499400    0.0010913984    
0.0130744230    0.0353860240    0.0010747739    
0.0132970840    0.0340063880    0.0010484618    
0.0135197450    0.0338245460    0.0010306806    
0.0137424060    0.0320037140    0.0009885980    
0.0139650670    0.0317907630    0.0009633565    
0.0141877280    0.0296736600    0.0009327835    
0.0144103890    0.0287441420    0.0009022280    
0.0146330500    0.0298901870    0.0009141970    
0.0148557110    0.0287250790    0.0008924448    
0.0150783720    0.0297793940    0.0009011655    
0.0153010330    0.0272491350    0.0008498772    
0.0155236940    0.0291000190    0.0008730442    
0.0157463550    0.0278980650    0.0008400136    
0.0159690160    0.0273604070    0.0008287228    
0.0161916770    0.0274004640    0.0008246571    
0.0164143380    0.0261290270    0.0008113979    
0.0166369990    0.0257023090    0.0007799329    
0.0168596600    0.0261814690    0.0007802339    
0.0170823210    0.0259128790    0.0007695009    
0.0173049820    0.0253146530    0.0007618815    
0.0175276430    0.0252191330    0.0007684618    
0.0177503040    0.0246168440    0.0007398753    
0.0179729650    0.0245887620    0.0007321197    
0.0181956260    0.0241373470    0.0007114623    
0.0184182870    0.0260708070    0.0007359234    
0.0186409480    0.0241088030    0.0007121694    
0.0188636090    0.0258838630    0.0007332804    
0.0190862700    0.0247261340    0.0007155732    
0.0193089310    0.0236994830    0.0006994681    
0.0195315920    0.0244458610    0.0006862376    
0.0197542530    0.0240534600    0.0006816993    
0.0199769140    0.0245944300    0.0006893227    
0.0201995750    0.0233247720    0.0006607823    
0.0204222360    0.0232889550    0.0006659426    
0.0206448970    0.0235410470    0.0006647786    
0.0208675580    0.0232477820    0.0006470210    
0.0210902190    0.0236251520    0.0006585448    
0.0213128800    0.0237385670    0.0006511664    
0.0215355410    0.0236820760    0.0006426431    
0.0217582020    0.0237518410    0.0006435892    
0.0219808630    0.0222284820    0.0006217909    
0.0222035240    0.0224252400    0.0006188776    
0.0224261850    0.0218265190    0.0006051260    
0.0226488460    0.0228550540    0.0006145697    
0.0228715070    0.0229554070    0.0006143874    
0.0230941680    0.0220674560    0.0006023876    
0.0233168290    0.0210372520    0.0005896235    
0.0235394900    0.0234363130    0.0006154677    
0.0237621510    0.0215945650    0.0005748850    
0.0239848120    0.0216445620    0.0005762160    
0.0242074730    0.0215711560    0.0005706336    
0.0244301340    0.0223466430    0.0005814629    
0.0246527950    0.0216990280    0.0005782810    
0.0248754560    0.0231350240    0.0005836895    
0.0250981170    0.0219366140    0.0005696381    
0.0253207780    0.0221358820    0.0005551346    
0.0255434390    0.0219567590    0.0005587848    
0.0257661000    0.0223996080    0.0005662174    
0.0259887610    0.0211414790    0.0005442403    
0.0262114220    0.0219903970    0.0005580169    
0.0264340830    0.0213547400    0.0005424109    
0.0266567440    0.0212821580    0.0005381425    
0.0268794050    0.0212707500    0.0005358024    
0.0271020660    0.0217147050    0.0005391735    
0.0273247270    0.0220102050    0.0005395695    
0.0275473880    0.0210268200    0.0005263288    
0.0277700490    0.0212997470    0.0005266023    
0.0279927100    0.0208657180    0.0005166618    
0.0282153710    0.0212111950    0.0005234541    
0.0284380320    0.0209021470    0.0005166145    
0.0286606930    0.0219766760    0.0005251930    
0.0288833540    0.0208885740    0.0005129990    
0.0291060150    0.0207106260    0.0005103245    
0.0293286760    0.0211889640    0.0005089914    
0.0295513370    0.0200122940    0.0004892703    
0.0297739980    0.0201619380    0.0004965031    
0.0299966590    0.0218062000    0.0005075328    
0.0302193200    0.0215101140    0.0005114213    
0.0304419810    0.0208082790    0.0005039344    
0.0306646420    0.0207220960    0.0004886961    
0.0308873030    0.0215260820    0.0004959347    
0.0311099640    0.0214542520    0.0004963922    
0.0313326250    0.0211387920    0.0004872708    
0.0315552860    0.0214366990    0.0004970515    
0.0317779470    0.0205966220    0.0004876392    
0.0320006080    0.0211488830    0.0004829066    
0.0322232690    0.0208037230    0.0004809547    
0.0324459300    0.0208776360    0.0004782113    
0.0326685910    0.0199791240    0.0004670366    
0.0328912520    0.0202435470    0.0004716739    
0.0331139130    0.0206945390    0.0004706953    
0.0333365740    0.0203119230    0.0004678379    
0.0335592350    0.0207158900    0.0004679243    
0.0337818960    0.0209572800    0.0004702679    
0.0340045570    0.0206803820    0.0004664089    
0.0342272170    0.0207575890    0.0004654355    
0.0344498780    0.0203858740    0.0004630762    
0.0346725390    0.0211476000    0.0004629135    
0.0348952000    0.0210858930    0.0004601319    
0.0351178610    0.0204180480    0.0004548589    
0.0353405220    0.0206240380    0.0004550651    
0.0355631830    0.0204291210    0.0004512038    
0.0357858440    0.0203394450    0.0004502125    
0.0360085050    0.0204725670    0.0004530482    
0.0362311660    0.0211046610    0.0004545211    
0.0364538270    0.0206709220    0.0004462158    
0.0366764880    0.0212949810    0.0004525728    
0.0368991490    0.0204333520    0.0004410875    
0.0371218100    0.0208657010    0.0004444544    
0.0373444710    0.0198617770    0.0004383526    
0.0375671320    0.0204116880    0.0004437324    
0.0377897930    0.0204669690    0.0004328303    
0.0380124540    0.0206319230    0.0004372976    
0.0382351150    0.0212622030    0.0004439270    
0.0384577760    0.0205720800    0.0004324500    
0.0386804370    0.0205826790    0.0004358625    
0.0389030980    0.0202266640    0.0004288044    
0.0391257590    0.0203834210    0.0004275406    
0.0393484200    0.0206650960    0.0004290357    
0.0395710810    0.0205957720    0.0004288925    
0.0397937420    0.0203278450    0.0004260938    
0.0400164030    0.0209798030    0.0004346337    
0.0402390640    0.0201793480    0.0004205857    
0.0404617250    0.0200805640    0.0004170798    
0.0406843860    0.0204250950    0.0004165785    
0.0409070470    0.0206620280    0.0004233524    
0.0411297080    0.0203152290    0.0004157235    
0.0413523690    0.0203345860    0.0004169936    
0.0415750300    0.0196987530    0.0004139088    
0.0417976910    0.0209295320    0.0004156089    
0.0420203520    0.0204801070    0.0004126673    
0.0422430130    0.0196300890    0.0004055423    
0.0424656740    0.0194488890    0.0003984124    
0.0426883350    0.0209118060    0.0004151751    
0.0429109960    0.0198648910    0.0004059134    
0.0431336570    0.0197283120    0.0003988163    
0.0433563180    0.0200045390    0.0004050631    
0.0435789790    0.0194206430    0.0003928376    
0.0438016400    0.0204036830    0.0004048477    
0.0440243010    0.0205033470    0.0004017176    
0.0442469620    0.0208613130    0.0004076373    
0.0444696230    0.0203165470    0.0004008370    
0.0446922840    0.0204869350    0.0004013191    
0.0449149450    0.0196443870    0.0003877265    
0.0451376060    0.0201875070    0.0003979041    
0.0453602670    0.0199814820    0.0003917185    
0.0455829280    0.0207933890    0.0003991355    
0.0458055890    0.0199591950    0.0003933276    
0.0460282500    0.0203053580    0.0003919398    
0.0462509110    0.0203823080    0.0003902395    
0.0464735720    0.0195376540    0.0003822838    
0.0466962330    0.0202214140    0.0003906836    
0.0469188940    0.0208799820    0.0003958690    
0.0471415550    0.0199348610    0.0003887925    
0.0473642160    0.0203978260    0.0003877745    
0.0475868770    0.0206627820    0.0003883460    
0.0478095380    0.0202074080    0.0003823624    
0.0480321990    0.0196129790    0.0003775219    
0.0482548600    0.0198674590    0.0003783077    
0.0484775210    0.0200508720    0.0003838234    
0.0487001820    0.0208092940    0.0003852912    
0.0489228430    0.0198605390    0.0003762033    
0.0491455040    0.0209993710    0.0003841634    
0.0493681650    0.0200892790    0.0003789756    
0.0495908260    0.0199441660    0.0003712511    
0.0498134870    0.0196566160    0.0003720736    
0.0500361480    0.0194196320    0.0003688454    
0.0502588090    0.0200315630    0.0003689986    
0.0504814700    0.0203215380    0.0003765185    
0.0507041310    0.0193099130    0.0003626634    
0.0509267920    0.0199370180    0.0003700298    
0.0511494530    0.0198211060    0.0003664924    
0.0513721140    0.0200200390    0.0003715706    
0.0515947750    0.0197276930    0.0003639573    
0.0518174360    0.0202536540    0.0003665557    
0.0520400970    0.0197905750    0.0003598286    
0.0522627580    0.0195228690    0.0003604239    
0.0524854190    0.0201594730    0.0003692310    
0.0527080800    0.0195663050    0.0003665748    
0.0529307410    0.0199584980    0.0003719692    
0.0531534020    0.0198409680    0.0003695222    
0.0533760630    0.0196329710    0.0003687309    
0.0535987240    0.0202664970    0.0003728837    
0.0538213850    0.0198893370    0.0003736776    
0.0540440460    0.0195693930    0.0003689056    
0.0542667070    0.0193183160    0.0003690575    
0.0544893680    0.0203905500    0.0003793632    
0.0547120290    0.0194786190    0.0003682428    
0.0549346900    0.0203632700    0.0003767102    
0.0551573510    0.0204602860    0.0003820517    
0.0553800120    0.0198123190    0.0003727573    
0.0556026730    0.0196194180    0.0003786291    
0.0558253340    0.0202614170    0.0003879960    
0.0560479950    0.0195704530    0.0003813230    
0.0562706560    0.0199961450    0.0003891744    
0.0564933170    0.0192120920    0.0003847809    
0.0567159780    0.0200330250    0.0003882048    
0.0569386390    0.0201076470    0.0003950277    
0.0571613000    0.0199569100    0.0003850705    
0.0573839610    0.0200433870    0.0003826998    
0.0576066220    0.0206394560    0.0003894237    
0.0578292830    0.0198169800    0.0003803230    
0.0580519440    0.0196840860    0.0003805154    
0.0582746050    0.0200576980    0.0003824158    
0.0584972660    0.0196439660    0.0003770025    
0.0587199270    0.0205512010    0.0003822859    
0.0589425880    0.0197492390    0.0003725608    
0.0591652490    0.0198685730    0.0003758837    
0.0593879100    0.0203031720    0.0003771505    
0.0596105710    0.0193025720    0.0003673516    
0.0598332320    0.0192499640    0.0003699864    
0.0600558930    0.0201075450    0.0003757271    
0.0602785540    0.0202331990    0.0003765008    
0.0605012150    0.0204549920    0.0003777612    
0.0607238760    0.0196148130    0.0003672259    
0.0609465370    0.0195477410    0.0003694836    
0.0611691980    0.0199110100    0.0003734920    
0.0613918590    0.0202188470    0.0003722591    
0.0616145200    0.0196048480    0.0003692461    
0.0618371810    0.0198898710    0.0003682678    
0.0620598420    0.0201700460    0.0003712348    
0.0622825030    0.0198197060    0.0003736243    
0.0625051640    0.0201432960    0.0003713720    
0.0627278250    0.0201831600    0.0003709739    
0.0629504860    0.0197691220    0.0003641643    
0.0631731470    0.0197456800    0.0003684511    
0.0633958080    0.0197719330    0.0003708179    
0.0636184690    0.0192826570    0.0003713012    
0.0638411300    0.0200038850    0.0003767618    
0.0640637910    0.0201495360    0.0003807904    
0.0642864520    0.0190736350    0.0003696830    
0.0645091130    0.0197229110    0.0003792166    
0.0647317740    0.0195472040    0.0003779399    
0.0649544350    0.0197229570    0.0003792175    
0.0651770960    0.0197752090    0.0003776481    
0.0653997570    0.0198977730    0.0003779951    
0.0656224180    0.0197536190    0.0003774424    
0.0658450790    0.0200375930    0.0003746817    
0.0660677400    0.0197986900    0.0003740265    
0.0662904010    0.0191961200    0.0003726875    
0.0665130620    0.0192738240    0.0003718211    
0.0667357230    0.0196903630    0.0003824994    
0.0669583840    0.0195883470    0.0003802308    
0.0671810450    0.0194091370    0.0003763978    
0.0674037060    0.0200723430    0.0003892592    
0.0676263670    0.0200398590    0.0003860965    
0.0678490280    0.0200820660    0.0003841392    
0.0680716890    0.0198541710    0.0003828033    
0.0682943500    0.0202663750    0.0003825206    
0.0685170110    0.0203505960    0.0003794086    
0.0687396720    0.0202285310    0.0003772641    
0.0689623330    0.0197509530    0.0003716027    
0.0691849940    0.0196144450    0.0003728820    
0.0694076550    0.0193315110    0.0003699853    
0.0696303160    0.0197862920    0.0003713485    
0.0698529770    0.0192245620    0.0003652722    
0.0700756380    0.0200259410    0.0003680220    
0.0702982990    0.0196005730    0.0003680575    
0.0705209600    0.0191482770    0.0003611597    
0.0707436210    0.0198704900    0.0003662180    
0.0709662820    0.0195799130    0.0003678642    
0.0711889430    0.0196278180    0.0003637901    
0.0714116040    0.0206829460    0.0003742026    
0.0716342650    0.0190446730    0.0003576188    
0.0718569260    0.0196176600    0.0003614969    
0.0720795870    0.0201326070    0.0003676920    
0.0723022480    0.0193587700    0.0003611057    
0.0725249090    0.0195619930    0.0003586490    
0.0727475700    0.0199310340    0.0003651083    
0.0729702310    0.0196472900    0.0003596089    
0.0731928920    0.0199174410    0.0003635199    
0.0734155530    0.0191772080    0.0003559891    
0.0736382140    0.0197016550    0.0003585083    
0.0738608750    0.0202345850    0.0003656720    
0.0740835360    0.0198383430    0.0003611751    
0.0743061970    0.0189000850    0.0003475667    
0.0745288580    0.0202236600    0.0003632277    
0.0747515190    0.0201660810    0.0003634266    
0.0749741800    0.0196401800    0.0003553365    
0.0751968410    0.0200477590    0.0003618234    
0.0754195020    0.0193940320    0.0003537903    
0.0756421630    0.0197956730    0.0003545131    
0.0758648240    0.0195528550    0.0003531791    
0.0760874850    0.0194767210    0.0003523215    
0.0763101460    0.0199546090    0.0003562755    
0.0765328070    0.0196055130    0.0003567588    
0.0767554680    0.0196285280    0.0003545459    
0.0769781290    0.0200809700    0.0003565481    
0.0772007900    0.0197788430    0.0003510177    
0.0774234510    0.0193933240    0.0003495570    
0.0776461120    0.0201615020    0.0003560747    
0.0778687730    0.0194662660    0.0003487257    
0.0780914340    0.0198911920    0.0003550301    
0.0783140950    0.0201978860    0.0003520805    
0.0785367560    0.0196884700    0.0003532168    
0.0787594170    0.0193061280    0.0003466365    
0.0789820780    0.0192504710    0.0003443629    
0.0792047390    0.0196741780    0.0003492702    
0.0794274000    0.0195285930    0.0003494499    
0.0796500610    0.0196029930    0.0003466978    
0.0798727220    0.0197014680    0.0003472467    
0.0800953830    0.0196840630    0.0003462950    
0.0803180440    0.0198727810    0.0003503750    
0.0805407050    0.0198050070    0.0003494518    
0.0807633660    0.0196513210    0.0003477701    
0.0809860270    0.0193170710    0.0003435266    
0.0812086880    0.0202454890    0.0003486458    
0.0814313490    0.0195035680    0.0003437586    
0.0816540100    0.0197948370    0.0003455275    
0.0818766710    0.0190673830    0.0003398934    
0.0820993320    0.0190643540    0.0003392470    
0.0823219930    0.0191123770    0.0003410750    
0.0825446540    0.0194415250    0.0003415001    
0.0827673150    0.0198854520    0.0003430566    
0.0829899760    0.0199031730    0.0003425985    
0.0832126370    0.0199390620    0.0003444431    
0.0834352980    0.0194471930    0.0003394075    
0.0836579590    0.0195258370    0.0003393361    
0.0838806200    0.0198618620    0.0003433145    
0.0841032810    0.0197332480    0.0003400768    
0.0843259420    0.0192682370    0.0003350111    
0.0845486030    0.0193148630    0.0003354165    
0.0847712640    0.0190283770    0.0003308908    
0.0849939250    0.0193429900    0.0003341960    
0.0852165860    0.0196947360    0.0003376626    
0.0854392470    0.0195052460    0.0003328521    
0.0856619080    0.0193613140    0.0003340641    
0.0858845690    0.0195745330    0.0003328733    
0.0861072300    0.0201728540    0.0003402551    
0.0863298910    0.0201700970    0.0003420135    
0.0865525520    0.0200968460    0.0003384440    
0.0867752130    0.0190784380    0.0003270963    
0.0869978740    0.0202298560    0.0003376806    
0.0872205350    0.0198017180    0.0003336631    
0.0874431960    0.0194419220    0.0003306182    
0.0876658570    0.0193025620    0.0003306960    
0.0878885180    0.0192721650    0.0003310020    
0.0881111790    0.0194949170    0.0003324822    
0.0883338400    0.0190934020    0.0003242230    
0.0885565010    0.0203160890    0.0003389783    
0.0887791620    0.0198476990    0.0003307031    
0.0890018230    0.0197121560    0.0003327687    
0.0892244840    0.0204669150    0.0003396560    
0.0894471450    0.0196851540    0.0003316990    
0.0896698060    0.0190709710    0.0003252519    
0.0898924670    0.0201327680    0.0003357327    
0.0901151280    0.0194043630    0.0003260432    
0.0903377890    0.0199254850    0.0003331574    
0.0905604500    0.0194725660    0.0003278377    
0.0907831110    0.0195240830    0.0003274544    
0.0910057720    0.0188224220    0.0003229919    
0.0912284330    0.0198004600    0.0003265340    
0.0914510940    0.0194517010    0.0003272546    
0.0916737550    0.0198319000    0.0003296173    
0.0918964160    0.0196712770    0.0003296451    
0.0921190770    0.0196426400    0.0003264266    
0.0923417380    0.0198596370    0.0003283594    
0.0925643990    0.0189251590    0.0003197566    
0.0927870600    0.0196471810    0.0003271351    
0.0930097210    0.0193996140    0.0003222990    
0.0932323820    0.0195065630    0.0003255619    
