# Diamond Light Source Ltd.
# Data extracted from: /dls/b21/data/2018/cm19678-3/processed/b21-386631_00320.dat
q(1/A)          Column          Error           
0.0035000000    2.1435889000    0.0248717050    
0.0037226610    1.9273327000    0.0230872100    
0.0039453220    1.6410380000    0.0193802360    
0.0041679830    1.3078751000    0.0142084820    
0.0043906440    0.9498533700    0.0115818550    
0.0046133050    0.7781368400    0.0100633300    
0.0048359660    0.5956188300    0.0083280936    
0.0050586270    0.4578677600    0.0071769986    
0.0052812880    0.4268046500    0.0065515107    
0.0055039490    0.3844234500    0.0059121083    
0.0057266100    0.3217435700    0.0052324674    
0.0059492710    0.2704314100    0.0047971156    
0.0061719320    0.2263036800    0.0042286828    
0.0063945930    0.1996076400    0.0040195794    
0.0066172539    0.1827782900    0.0036117678    
0.0068399149    0.1747848800    0.0034762847    
0.0070625759    0.1446682600    0.0031302040    
0.0072852369    0.1290021900    0.0029116350    
0.0075078979    0.1153086100    0.0027392388    
0.0077305589    0.1034433200    0.0025450564    
0.0079532199    0.1026666500    0.0025003489    
0.0081758809    0.0926135250    0.0023968702    
0.0083985419    0.0825089050    0.0021100710    
0.0086212029    0.0759794350    0.0020248587    
0.0088438639    0.0690290540    0.0019145215    
0.0090665249    0.0690488780    0.0018493761    
0.0092891859    0.0623808720    0.0018347315    
0.0095118469    0.0628807470    0.0017714644    
0.0097345079    0.0593130560    0.0016709560    
0.0099571689    0.0537314520    0.0015575970    
0.0101798300    0.0538669190    0.0015595594    
0.0104024910    0.0481661210    0.0014697367    
0.0106251520    0.0489001630    0.0014859222    
0.0108478130    0.0446205870    0.0013822972    
0.0110704740    0.0468500980    0.0013485184    
0.0112931350    0.0448221210    0.0013228831    
0.0115157960    0.0417926140    0.0012699462    
0.0117384570    0.0378902140    0.0011987933    
0.0119611180    0.0399389960    0.0012343087    
0.0121837790    0.0379808350    0.0011834391    
0.0124064400    0.0382668100    0.0011383689    
0.0126291010    0.0339796820    0.0010592821    
0.0128517620    0.0352779520    0.0010820236    
0.0130744230    0.0345277330    0.0010625175    
0.0132970840    0.0329281540    0.0010325400    
0.0135197450    0.0322120150    0.0010066255    
0.0137424060    0.0339518730    0.0010190659    
0.0139650670    0.0318421680    0.0009649142    
0.0141877280    0.0298391180    0.0009361364    
0.0144103890    0.0298684950    0.0009204478    
0.0146330500    0.0294624140    0.0009083651    
0.0148557110    0.0276051130    0.0008755810    
0.0150783720    0.0291446810    0.0008922306    
0.0153010330    0.0300012750    0.0008924841    
0.0155236940    0.0270745080    0.0008427926    
0.0157463550    0.0287031880    0.0008527372    
0.0159690160    0.0268263840    0.0008212586    
0.0161916770    0.0275442070    0.0008274855    
0.0164143380    0.0260703260    0.0008111409    
0.0166369990    0.0276639920    0.0008098031    
0.0168596600    0.0261306460    0.0007801062    
0.0170823210    0.0261378820    0.0007734591    
0.0173049820    0.0258149260    0.0007699947    
0.0175276430    0.0258462600    0.0007785866    
0.0177503040    0.0244339140    0.0007377169    
0.0179729650    0.0250433630    0.0007394536    
0.0181956260    0.0256887120    0.0007345631    
0.0184182870    0.0257800480    0.0007323996    
0.0186409480    0.0249484980    0.0007250510    
0.0188636090    0.0246148650    0.0007156573    
0.0190862700    0.0250979890    0.0007215165    
0.0193089310    0.0228900250    0.0006879747    
0.0195315920    0.0232312120    0.0006695124    
0.0197542530    0.0236859760    0.0006770186    
0.0199769140    0.0222346370    0.0006559489    
0.0201995750    0.0227062370    0.0006524889    
0.0204222360    0.0230023660    0.0006623673    
0.0206448970    0.0235791120    0.0006658535    
0.0208675580    0.0236821800    0.0006535658    
0.0210902190    0.0222292100    0.0006393091    
0.0213128800    0.0239200780    0.0006541794    
0.0215355410    0.0228994130    0.0006324454    
0.0217582020    0.0216592550    0.0006150815    
0.0219808630    0.0230483830    0.0006336662    
0.0222035240    0.0224101790    0.0006191697    
0.0224261850    0.0228868460    0.0006201509    
0.0226488460    0.0218988640    0.0006020626    
0.0228715070    0.0229431140    0.0006147192    
0.0230941680    0.0212960930    0.0005922440    
0.0233168290    0.0210547160    0.0005903449    
0.0235394900    0.0222276470    0.0005998715    
0.0237621510    0.0219513950    0.0005800836    
0.0239848120    0.0221251350    0.0005830485    
0.0242074730    0.0210768470    0.0005645134    
0.0244301340    0.0222918510    0.0005812190    
0.0246527950    0.0226139760    0.0005908240    
0.0248754560    0.0218596710    0.0005678316    
0.0250981170    0.0223128520    0.0005749666    
0.0253207780    0.0215720640    0.0005484620    
0.0255434390    0.0216504140    0.0005553214    
0.0257661000    0.0199270280    0.0005344845    
0.0259887610    0.0222421650    0.0005586791    
0.0262114220    0.0212033490    0.0005483829    
0.0264340830    0.0218446540    0.0005490409    
0.0266567440    0.0218753800    0.0005460320    
0.0268794050    0.0215214390    0.0005393861    
0.0271020660    0.0212670830    0.0005340186    
0.0273247270    0.0212641230    0.0005307744    
0.0275473880    0.0217206200    0.0005353740    
0.0277700490    0.0211516210    0.0005251922    
0.0279927100    0.0211813630    0.0005209757    
0.0282153710    0.0214783910    0.0005271664    
0.0284380320    0.0211022040    0.0005195004    
0.0286606930    0.0211196550    0.0005152668    
0.0288833540    0.0213513970    0.0005190702    
0.0291060150    0.0214620340    0.0005199195    
0.0293286760    0.0205741600    0.0005019581    
0.0295513370    0.0215183480    0.0005077568    
0.0297739980    0.0218723150    0.0005175520    
0.0299966590    0.0206464500    0.0004942511    
0.0302193200    0.0206923550    0.0005020110    
0.0304419810    0.0213553330    0.0005109282    
0.0306646420    0.0206863400    0.0004886689    
0.0308873030    0.0205766870    0.0004852668    
0.0311099640    0.0213393950    0.0004954618    
0.0313326250    0.0205429590    0.0004807426    
0.0315552860    0.0210442430    0.0004928786    
0.0317779470    0.0216822370    0.0005007298    
0.0320006080    0.0207744380    0.0004789993    
0.0322232690    0.0210378280    0.0004840441    
0.0324459300    0.0207468240    0.0004770961    
0.0326685910    0.0203176150    0.0004713569    
0.0328912520    0.0208266680    0.0004788056    
0.0331139130    0.0208245100    0.0004725526    
0.0333365740    0.0202584230    0.0004675989    
0.0335592350    0.0214480910    0.0004765066    
0.0337818960    0.0203569930    0.0004638585    
0.0340045570    0.0214197340    0.0004750566    
0.0342272170    0.0206552630    0.0004646621    
0.0344498780    0.0213038640    0.0004737703    
0.0346725390    0.0209382090    0.0004609883    
0.0348952000    0.0204964460    0.0004540216    
0.0351178610    0.0203089710    0.0004540089    
0.0353405220    0.0213211580    0.0004630660    
0.0355631830    0.0204521730    0.0004518231    
0.0357858440    0.0209911890    0.0004577385    
0.0360085050    0.0209575580    0.0004587536    
0.0362311660    0.0207269920    0.0004507999    
0.0364538270    0.0213218100    0.0004535529    
0.0366764880    0.0210500310    0.0004503260    
0.0368991490    0.0201325970    0.0004381832    
0.0371218100    0.0202356650    0.0004380466    
0.0373444710    0.0203008790    0.0004435298    
0.0375671320    0.0210920440    0.0004514314    
0.0377897930    0.0209584720    0.0004383505    
0.0380124540    0.0213522700    0.0004452256    
0.0382351150    0.0206560140    0.0004379066    
0.0384577760    0.0197858650    0.0004244487    
0.0386804370    0.0218547670    0.0004494925    
0.0389030980    0.0194398890    0.0004207216    
0.0391257590    0.0214942350    0.0004393905    
0.0393484200    0.0215460790    0.0004384395    
0.0395710810    0.0200923250    0.0004239604    
0.0397937420    0.0209779770    0.0004332037    
0.0400164030    0.0203192810    0.0004280828    
0.0402390640    0.0205368440    0.0004246377    
0.0404617250    0.0210067530    0.0004269348    
0.0406843860    0.0205857720    0.0004185518    
0.0409070470    0.0203044660    0.0004200125    
0.0411297080    0.0202202640    0.0004150859    
0.0413523690    0.0210098370    0.0004242032    
0.0415750300    0.0209762900    0.0004274649    
0.0417976910    0.0212857610    0.0004194697    
0.0420203520    0.0203383230    0.0004115687    
0.0422430130    0.0207359720    0.0004171459    
0.0424656740    0.0204776520    0.0004091441    
0.0426883350    0.0204420000    0.0004108167    
0.0429109960    0.0197723960    0.0004052946    
0.0431336570    0.0204789120    0.0004066608    
0.0433563180    0.0200204550    0.0004055517    
0.0435789790    0.0206299920    0.0004052113    
0.0438016400    0.0207746040    0.0004088412    
0.0440243010    0.0197639180    0.0003947261    
0.0442469620    0.0201929590    0.0004013783    
0.0444696230    0.0201434480    0.0003994484    
0.0446922840    0.0204728160    0.0004015050    
0.0449149450    0.0198447820    0.0003900141    
0.0451376060    0.0196781170    0.0003931694    
0.0453602670    0.0207214270    0.0003992279    
0.0455829280    0.0206581850    0.0003981573    
0.0458055890    0.0208144180    0.0004019906    
0.0460282500    0.0200957090    0.0003902263    
0.0462509110    0.0204751340    0.0003914432    
0.0464735720    0.0208803550    0.0003955209    
0.0466962330    0.0207908950    0.0003964668    
0.0469188940    0.0196282480    0.0003841299    
0.0471415550    0.0202784870    0.0003924460    
0.0473642160    0.0207556930    0.0003914775    
0.0475868770    0.0199943790    0.0003823220    
0.0478095380    0.0198849930    0.0003796063    
0.0480321990    0.0206782410    0.0003879520    
0.0482548600    0.0199645210    0.0003795372    
0.0484775210    0.0214447480    0.0003972612    
0.0487001820    0.0208429420    0.0003859142    
0.0489228430    0.0204208390    0.0003817813    
0.0491455040    0.0202801250    0.0003778322    
0.0493681650    0.0209667340    0.0003874764    
0.0495908260    0.0205370830    0.0003770335    
0.0498134870    0.0199423530    0.0003750710    
0.0500361480    0.0200123910    0.0003747350    
0.0502588090    0.0207379710    0.0003757520    
0.0504814700    0.0206059450    0.0003794505    
0.0507041310    0.0197572950    0.0003671370    
0.0509267920    0.0196872230    0.0003680015    
0.0511494530    0.0203486370    0.0003716375    
0.0513721140    0.0206326380    0.0003775176    
0.0515947750    0.0204590460    0.0003709418    
0.0518174360    0.0210571930    0.0003740584    
0.0520400970    0.0196849640    0.0003591573    
0.0522627580    0.0195411080    0.0003608836    
0.0524854190    0.0200565980    0.0003685854    
0.0527080800    0.0194810020    0.0003660704    
0.0529307410    0.0204004450    0.0003763689    
0.0531534020    0.0198592630    0.0003699913    
0.0533760630    0.0203930400    0.0003761043    
0.0535987240    0.0203817280    0.0003742445    
0.0538213850    0.0198652420    0.0003737529    
0.0540440460    0.0205413830    0.0003782616    
0.0542667070    0.0209526000    0.0003846619    
0.0544893680    0.0199922860    0.0003759437    
0.0547120290    0.0199703250    0.0003731630    
0.0549346900    0.0199494630    0.0003731643    
0.0551573510    0.0202146930    0.0003800587    
0.0553800120    0.0203782210    0.0003783488    
0.0556026730    0.0201780990    0.0003842925    
0.0558253340    0.0202197600    0.0003879102    
0.0560479950    0.0198997760    0.0003848287    
0.0562706560    0.0200588240    0.0003900989    
0.0564933170    0.0207174620    0.0003998944    
0.0567159780    0.0195229050    0.0003835401    
0.0569386390    0.0195027640    0.0003893551    
0.0571613000    0.0196989420    0.0003828829    
0.0573839610    0.0199367370    0.0003819887    
0.0576066220    0.0195247470    0.0003790677    
0.0578292830    0.0199148210    0.0003815688    
0.0580519440    0.0207252860    0.0003907650    
0.0582746050    0.0201704620    0.0003837991    
0.0584972660    0.0195380360    0.0003762885    
0.0587199270    0.0201428280    0.0003787745    
0.0589425880    0.0193658380    0.0003692249    
0.0591652490    0.0202995690    0.0003802458    
0.0593879100    0.0191992060    0.0003670500    
0.0596105710    0.0199429970    0.0003736977    
0.0598332320    0.0203494920    0.0003807136    
0.0600558930    0.0200697370    0.0003756771    
0.0602785540    0.0200132930    0.0003747519    
0.0605012150    0.0195027950    0.0003691620    
0.0607238760    0.0198393450    0.0003696202    
0.0609465370    0.0195443730    0.0003697503    
0.0611691980    0.0197186520    0.0003719838    
0.0613918590    0.0197778590    0.0003684747    
0.0616145200    0.0198942820    0.0003722624    
0.0618371810    0.0208098840    0.0003769931    
0.0620598420    0.0199562860    0.0003695609    
0.0622825030    0.0195201860    0.0003710901    
0.0625051640    0.0203610290    0.0003736755    
0.0627278250    0.0193894060    0.0003638998    
0.0629504860    0.0194651350    0.0003616456    
0.0631731470    0.0196261080    0.0003676307    
0.0633958080    0.0199641180    0.0003729169    
0.0636184690    0.0203020860    0.0003812977    
0.0638411300    0.0199082940    0.0003761642    
0.0640637910    0.0195406140    0.0003752956    
0.0642864520    0.0204106420    0.0003827294    
0.0645091130    0.0191121320    0.0003736004    
0.0647317740    0.0202960900    0.0003854228    
0.0649544350    0.0202441550    0.0003845059    
0.0651770960    0.0195976990    0.0003762532    
0.0653997570    0.0201888700    0.0003810578    
0.0656224180    0.0198289010    0.0003784665    
0.0658450790    0.0200629750    0.0003752220    
0.0660677400    0.0202482660    0.0003785549    
0.0662904010    0.0201910540    0.0003825326    
0.0665130620    0.0203754920    0.0003826088    
0.0667357230    0.0197147590    0.0003830456    
0.0669583840    0.0197530880    0.0003821350    
0.0671810450    0.0202666880    0.0003849339    
0.0674037060    0.0205357780    0.0003940454    
0.0676263670    0.0200946140    0.0003869361    
0.0678490280    0.0196582260    0.0003803710    
0.0680716890    0.0199675940    0.0003842054    
0.0682943500    0.0204654720    0.0003847056    
0.0685170110    0.0200434230    0.0003768386    
0.0687396720    0.0200991500    0.0003763595    
0.0689623330    0.0201680430    0.0003758093    
0.0691849940    0.0199869680    0.0003767105    
0.0694076550    0.0192989360    0.0003699722    
0.0696303160    0.0195949020    0.0003698468    
0.0698529770    0.0193390650    0.0003666544    
0.0700756380    0.0203157410    0.0003709748    
0.0702982990    0.0190646200    0.0003632839    
0.0705209600    0.0202367920    0.0003715832    
0.0707436210    0.0204840140    0.0003721292    
0.0709662820    0.0199230870    0.0003713738    
0.0711889430    0.0196122810    0.0003639400    
0.0714116040    0.0198212790    0.0003666209    
0.0716342650    0.0194857640    0.0003620289    
0.0718569260    0.0193558080    0.0003593664    
0.0720795870    0.0206225430    0.0003724398    
0.0723022480    0.0199500500    0.0003668752    
0.0725249090    0.0201007530    0.0003638481    
0.0727475700    0.0202848180    0.0003686321    
0.0729702310    0.0193955750    0.0003575867    
0.0731928920    0.0193914290    0.0003589775    
0.0734155530    0.0204327250    0.0003677545    
0.0736382140    0.0200471570    0.0003619304    
0.0738608750    0.0193274090    0.0003576698    
0.0740835360    0.0202063140    0.0003648039    
0.0743061970    0.0198973440    0.0003569066    
0.0745288580    0.0194265040    0.0003562847    
0.0747515190    0.0194901940    0.0003575731    
0.0749741800    0.0198779940    0.0003577703    
0.0751968410    0.0192822010    0.0003551345    
0.0754195020    0.0199296110    0.0003589319    
0.0756421630    0.0195097270    0.0003522277    
0.0758648240    0.0199550750    0.0003570815    
0.0760874850    0.0190166790    0.0003484171    
0.0763101460    0.0199486470    0.0003565102    
0.0765328070    0.0205865630    0.0003658713    
0.0767554680    0.0194421750    0.0003531440    
0.0769781290    0.0199232120    0.0003554318    
0.0772007900    0.0200479310    0.0003536830    
0.0774234510    0.0195004120    0.0003508040    
0.0776461120    0.0198035740    0.0003531851    
0.0778687730    0.0201359860    0.0003549604    
0.0780914340    0.0193013460    0.0003500091    
0.0783140950    0.0203411950    0.0003536129    
0.0785367560    0.0196124050    0.0003528187    
0.0787594170    0.0199981310    0.0003530793    
0.0789820780    0.0199479700    0.0003508293    
0.0792047390    0.0193085170    0.0003462889    
0.0794274000    0.0194975370    0.0003494541    
0.0796500610    0.0199479110    0.0003500172    
0.0798727220    0.0198743200    0.0003490485    
0.0800953830    0.0201125280    0.0003503266    
0.0803180440    0.0201276610    0.0003528997    
0.0805407050    0.0195220590    0.0003472269    
0.0807633660    0.0198187140    0.0003495304    
0.0809860270    0.0199969210    0.0003498019    
0.0812086880    0.0196708410    0.0003439400    
0.0814313490    0.0192013270    0.0003413603    
0.0816540100    0.0196818580    0.0003448185    
0.0818766710    0.0193652370    0.0003428147    
0.0820993320    0.0197663530    0.0003457157    
0.0823219930    0.0191554740    0.0003417353    
0.0825446540    0.0196291770    0.0003434215    
0.0827673150    0.0194848720    0.0003398582    
0.0829899760    0.0197581530    0.0003416239    
0.0832126370    0.0198342270    0.0003438141    
0.0834352980    0.0193125090    0.0003385035    
0.0836579590    0.0201953430    0.0003453836    
0.0838806200    0.0201673940    0.0003462245    
0.0841032810    0.0200704090    0.0003432470    
0.0843259420    0.0195210900    0.0003374746    
0.0845486030    0.0194977830    0.0003372733    
0.0847712640    0.0193300190    0.0003337726    
0.0849939250    0.0194725840    0.0003355846    
0.0852165860    0.0195816180    0.0003369637    
0.0854392470    0.0189166600    0.0003280565    
0.0856619080    0.0193810740    0.0003345047    
0.0858845690    0.0194814490    0.0003323492    
0.0861072300    0.0200157770    0.0003392017    
0.0863298910    0.0189538380    0.0003318093    
0.0865525520    0.0197297230    0.0003356094    
0.0867752130    0.0198619750    0.0003340152    
0.0869978740    0.0199464050    0.0003355775    
0.0872205350    0.0196929520    0.0003330144    
0.0874431960    0.0196479310    0.0003326338    
0.0876658570    0.0195607620    0.0003331694    
0.0878885180    0.0195310950    0.0003334875    
0.0881111790    0.0201852720    0.0003385914    
0.0883338400    0.0198356450    0.0003307319    
0.0885565010    0.0195558300    0.0003328441    
0.0887791620    0.0195596840    0.0003285602    
0.0890018230    0.0192882690    0.0003294373    
0.0892244840    0.0193313220    0.0003303655    
0.0894471450    0.0190619900    0.0003266703    
0.0896698060    0.0191073630    0.0003258252    
0.0898924670    0.0199522290    0.0003344941    
0.0901151280    0.0192875840    0.0003253233    
0.0903377890    0.0196117770    0.0003307914    
0.0905604500    0.0199684340    0.0003322539    
0.0907831110    0.0195281480    0.0003277532    
0.0910057720    0.0193691460    0.0003279140    
0.0912284330    0.0192122070    0.0003219069    
0.0914510940    0.0196265330    0.0003289876    
0.0916737550    0.0191231840    0.0003239357    
0.0918964160    0.0195924250    0.0003292496    
0.0921190770    0.0193212290    0.0003240066    
0.0923417380    0.0191521980    0.0003227186    
0.0925643990    0.0195564140    0.0003253083    
0.0927870600    0.0195316440    0.0003264354    
0.0930097210    0.0194846150    0.0003232653    
0.0932323820    0.0197394710    0.0003277644    
