# Diamond Light Source Ltd.
# Data extracted from: /dls/b21/data/2018/cm19678-3/processed/b21-386631_00317.dat
q(1/A)          Column          Error           
0.0035000000    2.0742413000    0.0245752140    
0.0037226610    1.8912700000    0.0229722090    
0.0039453220    1.6129899000    0.0192996060    
0.0041679830    1.2789211000    0.0141129980    
0.0043906440    0.9671799600    0.0117391420    
0.0046133050    0.7841749600    0.0101473600    
0.0048359660    0.5917802700    0.0083382422    
0.0050586270    0.4642316200    0.0072589376    
0.0052812880    0.4327514700    0.0066264212    
0.0055039490    0.3840076400    0.0059352669    
0.0057266100    0.3205850400    0.0052463360    
0.0059492710    0.2745664400    0.0048552122    
0.0061719320    0.2259353600    0.0042440870    
0.0063945930    0.1993506300    0.0040349088    
0.0066172539    0.1833323800    0.0036333730    
0.0068399149    0.1667908100    0.0034110049    
0.0070625759    0.1540935000    0.0032449726    
0.0072852369    0.1251164500    0.0028802387    
0.0075078979    0.1187688000    0.0027924350    
0.0077305589    0.0970396820    0.0024760178    
0.0079532199    0.0970107140    0.0024413421    
0.0081758809    0.0945681340    0.0024328346    
0.0083985419    0.0867311010    0.0021730363    
0.0086212029    0.0788910140    0.0020724943    
0.0088438639    0.0724320890    0.0019698931    
0.0090665249    0.0690665320    0.0018578627    
0.0092891859    0.0618497130    0.0018350526    
0.0095118469    0.0613785470    0.0017579833    
0.0097345079    0.0575636230    0.0016534719    
0.0099571689    0.0555785470    0.0015912092    
0.0101798300    0.0512962750    0.0015286802    
0.0104024910    0.0516284140    0.0015284314    
0.0106251520    0.0470595660    0.0014641911    
0.0108478130    0.0454515870    0.0014013325    
0.0110704740    0.0455850010    0.0013361200    
0.0112931350    0.0426229520    0.0012957759    
0.0115157960    0.0404531530    0.0012550025    
0.0117384570    0.0433185330    0.0012875098    
0.0119611180    0.0411043190    0.0012577717    
0.0121837790    0.0364602060    0.0011646786    
0.0124064400    0.0353972340    0.0010997385    
0.0126291010    0.0373153660    0.0011150098    
0.0128517620    0.0335843370    0.0010604405    
0.0130744230    0.0344735650    0.0010664194    
0.0132970840    0.0334512330    0.0010453510    
0.0135197450    0.0330078340    0.0010235295    
0.0137424060    0.0321260430    0.0009957077    
0.0139650670    0.0338969420    0.0010000012    
0.0141877280    0.0306096490    0.0009523754    
0.0144103890    0.0310513480    0.0009426828    
0.0146330500    0.0300931710    0.0009221321    
0.0148557110    0.0288326310    0.0008988280    
0.0150783720    0.0291847920    0.0008968269    
0.0153010330    0.0283944130    0.0008721275    
0.0155236940    0.0300694140    0.0008921457    
0.0157463550    0.0279374100    0.0008450377    
0.0159690160    0.0272691710    0.0008317019    
0.0161916770    0.0271634370    0.0008254115    
0.0164143380    0.0274747240    0.0008364165    
0.0166369990    0.0266676410    0.0007986329    
0.0168596600    0.0277036410    0.0008068261    
0.0170823210    0.0272260000    0.0007929156    
0.0173049820    0.0269726310    0.0007905818    
0.0175276430    0.0262903230    0.0007887491    
0.0177503040    0.0258658940    0.0007624122    
0.0179729650    0.0265669860    0.0007650127    
0.0181956260    0.0263634360    0.0007474667    
0.0184182870    0.0256746560    0.0007341612    
0.0186409480    0.0252566000    0.0007327683    
0.0188636090    0.0252967950    0.0007287390    
0.0190862700    0.0231459190    0.0006959802    
0.0193089310    0.0239083180    0.0007062471    
0.0195315920    0.0256971570    0.0007072909    
0.0197542530    0.0236244110    0.0006791541    
0.0199769140    0.0245225380    0.0006919434    
0.0201995750    0.0246875100    0.0006833954    
0.0204222360    0.0237276120    0.0006757289    
0.0206448970    0.0241314140    0.0006766112    
0.0208675580    0.0243488700    0.0006656574    
0.0210902190    0.0233926040    0.0006587506    
0.0213128800    0.0235924220    0.0006525815    
0.0215355410    0.0237914650    0.0006475217    
0.0217582020    0.0228926850    0.0006351732    
0.0219808630    0.0224986440    0.0006288562    
0.0222035240    0.0226105480    0.0006247057    
0.0224261850    0.0218877360    0.0006091689    
0.0226488460    0.0221614620    0.0006083632    
0.0228715070    0.0221511940    0.0006067113    
0.0230941680    0.0228657580    0.0006164195    
0.0233168290    0.0227460050    0.0006163346    
0.0235394900    0.0218546990    0.0005974709    
0.0237621510    0.0214826130    0.0005764159    
0.0239848120    0.0220904240    0.0005851896    
0.0242074730    0.0220738020    0.0005802870    
0.0244301340    0.0226287690    0.0005882068    
0.0246527950    0.0211808780    0.0005743472    
0.0248754560    0.0232903230    0.0005887330    
0.0250981170    0.0224974020    0.0005799147    
0.0253207780    0.0223558420    0.0005608272    
0.0255434390    0.0221457810    0.0005641436    
0.0257661000    0.0225496390    0.0005711058    
0.0259887610    0.0228091490    0.0005682786    
0.0262114220    0.0220797910    0.0005620979    
0.0264340830    0.0227500340    0.0005628025    
0.0266567440    0.0231573260    0.0005643095    
0.0268794050    0.0222321570    0.0005506654    
0.0271020660    0.0213895860    0.0005379432    
0.0273247270    0.0217750550    0.0005395090    
0.0275473880    0.0219680790    0.0005408167    
0.0277700490    0.0224722430    0.0005437540    
0.0279927100    0.0218103120    0.0005310120    
0.0282153710    0.0222970430    0.0005395148    
0.0284380320    0.0220779950    0.0005337460    
0.0286606930    0.0219553490    0.0005277057    
0.0288833540    0.0220515730    0.0005298655    
0.0291060150    0.0215395550    0.0005231809    
0.0293286760    0.0205851290    0.0005043315    
0.0295513370    0.0217953610    0.0005132940    
0.0297739980    0.0225003360    0.0005272712    
0.0299966590    0.0217979920    0.0005101126    
0.0302193200    0.0206684680    0.0005039591    
0.0304419810    0.0215586030    0.0005156439    
0.0306646420    0.0215118770    0.0005005470    
0.0308873030    0.0217190240    0.0005007788    
0.0311099640    0.0203231060    0.0004856764    
0.0313326250    0.0208174390    0.0004861023    
0.0315552860    0.0208480490    0.0004927639    
0.0317779470    0.0207093720    0.0004915501    
0.0320006080    0.0216510540    0.0004911822    
0.0322232690    0.0219675420    0.0004968303    
0.0324459300    0.0208769730    0.0004807250    
0.0326685910    0.0217018690    0.0004893222    
0.0328912520    0.0208796040    0.0004815521    
0.0331139130    0.0203831930    0.0004696040    
0.0333365740    0.0218442950    0.0004877222    
0.0335592350    0.0209776300    0.0004733536    
0.0337818960    0.0211681850    0.0004751201    
0.0340045570    0.0202824690    0.0004643352    
0.0342272170    0.0207028360    0.0004672719    
0.0344498780    0.0211541730    0.0004742087    
0.0346725390    0.0206543700    0.0004598953    
0.0348952000    0.0224249980    0.0004770197    
0.0351178610    0.0214531280    0.0004687039    
0.0353405220    0.0217350250    0.0004696241    
0.0355631830    0.0210882200    0.0004608415    
0.0357858440    0.0212493660    0.0004625991    
0.0360085050    0.0207903280    0.0004589577    
0.0362311660    0.0208727420    0.0004543999    
0.0364538270    0.0217168650    0.0004597771    
0.0366764880    0.0206064370    0.0004475432    
0.0368991490    0.0208899380    0.0004483397    
0.0371218100    0.0206749080    0.0004447502    
0.0373444710    0.0208441300    0.0004514297    
0.0375671320    0.0206079910    0.0004482117    
0.0377897930    0.0214141150    0.0004450662    
0.0380124540    0.0209437170    0.0004429124    
0.0382351150    0.0210561300    0.0004440996    
0.0384577760    0.0209457500    0.0004386605    
0.0386804370    0.0207629760    0.0004400753    
0.0389030980    0.0208630980    0.0004377944    
0.0391257590    0.0197923650    0.0004235175    
0.0393484200    0.0211086140    0.0004359014    
0.0395710810    0.0213279900    0.0004387509    
0.0397937420    0.0205066550    0.0004302201    
0.0400164030    0.0211925100    0.0004391346    
0.0402390640    0.0214025810    0.0004354293    
0.0404617250    0.0211683100    0.0004304850    
0.0406843860    0.0205036590    0.0004195794    
0.0409070470    0.0201529010    0.0004203084    
0.0411297080    0.0205558000    0.0004203825    
0.0413523690    0.0207137590    0.0004230823    
0.0415750300    0.0212253600    0.0004319132    
0.0417976910    0.0198413920    0.0004067943    
0.0420203520    0.0202092560    0.0004120907    
0.0422430130    0.0211330400    0.0004229993    
0.0424656740    0.0206112550    0.0004123076    
0.0426883350    0.0204498440    0.0004127283    
0.0429109960    0.0200832920    0.0004102905    
0.0431336570    0.0208982900    0.0004126360    
0.0433563180    0.0206221790    0.0004134370    
0.0435789790    0.0198267220    0.0003990160    
0.0438016400    0.0198887890    0.0004018142    
0.0440243010    0.0205371750    0.0004041686    
0.0442469620    0.0211140650    0.0004122614    
0.0444696230    0.0208350350    0.0004080597    
0.0446922840    0.0200997440    0.0003996044    
0.0449149450    0.0207491690    0.0004005810    
0.0451376060    0.0204247140    0.0004023452    
0.0453602670    0.0209920620    0.0004036189    
0.0455829280    0.0208274040    0.0004015679    
0.0458055890    0.0204757010    0.0004004848    
0.0460282500    0.0201148320    0.0003921534    
0.0462509110    0.0203259790    0.0003917545    
0.0464735720    0.0208024790    0.0003965435    
0.0466962330    0.0199165040    0.0003897711    
0.0469188940    0.0204105220    0.0003934570    
0.0471415550    0.0207816350    0.0003990570    
0.0473642160    0.0206358280    0.0003920866    
0.0475868770    0.0209328680    0.0003929366    
0.0478095380    0.0198434390    0.0003809009    
0.0480321990    0.0206575030    0.0003894870    
0.0482548600    0.0204050930    0.0003854136    
0.0484775210    0.0203816570    0.0003890168    
0.0487001820    0.0203876770    0.0003833788    
0.0489228430    0.0202073400    0.0003814743    
0.0491455040    0.0204472440    0.0003810781    
0.0493681650    0.0206629100    0.0003863745    
0.0495908260    0.0203924690    0.0003773796    
0.0498134870    0.0198288460    0.0003756703    
0.0500361480    0.0202054800    0.0003782180    
0.0502588090    0.0203189040    0.0003735951    
0.0504814700    0.0201697900    0.0003770878    
0.0507041310    0.0201129090    0.0003720787    
0.0509267920    0.0201408590    0.0003738775    
0.0511494530    0.0204826360    0.0003745223    
0.0513721140    0.0200017130    0.0003733587    
0.0515947750    0.0200855460    0.0003691797    
0.0518174360    0.0206554990    0.0003721259    
0.0520400970    0.0204427790    0.0003676378    
0.0522627580    0.0204218810    0.0003705726    
0.0524854190    0.0199488890    0.0003692340    
0.0527080800    0.0199952590    0.0003725250    
0.0529307410    0.0195600080    0.0003701786    
0.0531534020    0.0203219710    0.0003759462    
0.0533760630    0.0202464470    0.0003764217    
0.0535987240    0.0202311650    0.0003745228    
0.0538213850    0.0203621230    0.0003800862    
0.0540440460    0.0199379270    0.0003743263    
0.0542667070    0.0199286830    0.0003768186    
0.0544893680    0.0200997100    0.0003786337    
0.0547120290    0.0201277730    0.0003763022    
0.0549346900    0.0199869770    0.0003751811    
0.0551573510    0.0200349610    0.0003800531    
0.0553800120    0.0203052770    0.0003793557    
0.0556026730    0.0199080690    0.0003834151    
0.0558253340    0.0203329670    0.0003907297    
0.0560479950    0.0199800880    0.0003873245    
0.0562706560    0.0200621180    0.0003918711    
0.0564933170    0.0198746950    0.0003934234    
0.0567159780    0.0201079800    0.0003909810    
0.0569386390    0.0196457670    0.0003925230    
0.0571613000    0.0205733620    0.0003930339    
0.0573839610    0.0203660580    0.0003878018    
0.0576066220    0.0201448350    0.0003867576    
0.0578292830    0.0209042650    0.0003926766    
0.0580519440    0.0202713040    0.0003881853    
0.0582746050    0.0204539580    0.0003882108    
0.0584972660    0.0198516500    0.0003809883    
0.0587199270    0.0204019730    0.0003829036    
0.0589425880    0.0200574700    0.0003774364    
0.0591652490    0.0201576810    0.0003806047    
0.0593879100    0.0199868250    0.0003761736    
0.0596105710    0.0196479470    0.0003725775    
0.0598332320    0.0197840540    0.0003770615    
0.0600558930    0.0205046000    0.0003814190    
0.0602785540    0.0199231890    0.0003755751    
0.0605012150    0.0191061010    0.0003670181    
0.0607238760    0.0195720650    0.0003687595    
0.0609465370    0.0198602720    0.0003743891    
0.0611691980    0.0206171210    0.0003820607    
0.0613918590    0.0207027340    0.0003786733    
0.0616145200    0.0200581000    0.0003754593    
0.0618371810    0.0196246960    0.0003677333    
0.0620598420    0.0196789910    0.0003686213    
0.0622825030    0.0195167720    0.0003727128    
0.0625051640    0.0196159050    0.0003684104    
0.0627278250    0.0204241060    0.0003751491    
0.0629504860    0.0201882820    0.0003699449    
0.0631731470    0.0198085320    0.0003709827    
0.0633958080    0.0194538600    0.0003697624    
0.0636184690    0.0199706130    0.0003798590    
0.0638411300    0.0195843150    0.0003747551    
0.0640637910    0.0199044060    0.0003804625    
0.0642864520    0.0196011290    0.0003767359    
0.0645091130    0.0203661630    0.0003873827    
0.0647317740    0.0201230950    0.0003854886    
0.0649544350    0.0200788430    0.0003846409    
0.0651770960    0.0205527600    0.0003870309    
0.0653997570    0.0198033610    0.0003790855    
0.0656224180    0.0199041550    0.0003808754    
0.0658450790    0.0201432340    0.0003776488    
0.0660677400    0.0192439630    0.0003706936    
0.0662904010    0.0198231720    0.0003807224    
0.0665130620    0.0190789080    0.0003718866    
0.0667357230    0.0201913830    0.0003893773    
0.0669583840    0.0195642220    0.0003820001    
0.0671810450    0.0201675810    0.0003857044    
0.0674037060    0.0192852030    0.0003835621    
0.0676263670    0.0205824910    0.0003933519    
0.0678490280    0.0197523060    0.0003829808    
0.0680716890    0.0194151640    0.0003805432    
0.0682943500    0.0200282690    0.0003822718    
0.0685170110    0.0195578350    0.0003739063    
0.0687396720    0.0198024590    0.0003752377    
0.0689623330    0.0197548710    0.0003735989    
0.0691849940    0.0198934520    0.0003775046    
0.0694076550    0.0195716710    0.0003742392    
0.0696303160    0.0203828520    0.0003788922    
0.0698529770    0.0196873170    0.0003715911    
0.0700756380    0.0196157010    0.0003661533    
0.0702982990    0.0197938290    0.0003718176    
0.0705209600    0.0200184610    0.0003712218    
0.0707436210    0.0191870370    0.0003617621    
0.0709662820    0.0196891370    0.0003708336    
0.0711889430    0.0198557720    0.0003678257    
0.0714116040    0.0193622150    0.0003639668    
0.0716342650    0.0194971140    0.0003637496    
0.0718569260    0.0201549220    0.0003683454    
0.0720795870    0.0204811840    0.0003728168    
0.0723022480    0.0194953680    0.0003642881    
0.0725249090    0.0195362350    0.0003603024    
0.0727475700    0.0201147160    0.0003687206    
0.0729702310    0.0198350530    0.0003632282    
0.0731928920    0.0195648070    0.0003621871    
0.0734155530    0.0202681490    0.0003679042    
0.0736382140    0.0197978720    0.0003612775    
0.0738608750    0.0202414890    0.0003676626    
0.0740835360    0.0190845510    0.0003561146    
0.0743061970    0.0198362540    0.0003579479    
0.0745288580    0.0203253960    0.0003660600    
0.0747515190    0.0199623000    0.0003634920    
0.0749741800    0.0200882060    0.0003612613    
0.0751968410    0.0200683330    0.0003639176    
0.0754195020    0.0201143230    0.0003621998    
0.0756421630    0.0197804020    0.0003562446    
0.0758648240    0.0198498310    0.0003577272    
0.0760874850    0.0197985680    0.0003570934    
0.0763101460    0.0201462920    0.0003598700    
0.0765328070    0.0194585210    0.0003572928    
0.0767554680    0.0201919960    0.0003614947    
0.0769781290    0.0197622700    0.0003555723    
0.0772007900    0.0199438840    0.0003543375    
0.0774234510    0.0200058610    0.0003569063    
0.0776461120    0.0192625030    0.0003498805    
0.0778687730    0.0198740940    0.0003542175    
0.0780914340    0.0197428770    0.0003555688    
0.0783140950    0.0204052230    0.0003557488    
0.0785367560    0.0202936590    0.0003604950    
0.0787594170    0.0198624550    0.0003534491    
0.0789820780    0.0199644670    0.0003525399    
0.0792047390    0.0199511070    0.0003535741    
0.0794274000    0.0196339480    0.0003522387    
0.0796500610    0.0203059640    0.0003547198    
0.0798727220    0.0197736870    0.0003497167    
0.0800953830    0.0197136270    0.0003483821    
0.0803180440    0.0202888930    0.0003558907    
0.0805407050    0.0200704730    0.0003536407    
0.0807633660    0.0205432350    0.0003574494    
0.0809860270    0.0194533870    0.0003465541    
0.0812086880    0.0199195270    0.0003476511    
0.0814313490    0.0192872830    0.0003436495    
0.0816540100    0.0199431640    0.0003486482    
0.0818766710    0.0198139150    0.0003483101    
0.0820993320    0.0194062250    0.0003440798    
0.0823219930    0.0197511680    0.0003485560    
0.0825446540    0.0202653960    0.0003504991    
0.0827673150    0.0188456890    0.0003357282    
0.0829899760    0.0197262240    0.0003428704    
0.0832126370    0.0199213680    0.0003461055    
0.0834352980    0.0200538740    0.0003464782    
0.0836579590    0.0200123730    0.0003453490    
0.0838806200    0.0198499610    0.0003450211    
0.0841032810    0.0201136350    0.0003451491    
0.0843259420    0.0195543550    0.0003392686    
0.0845486030    0.0194543180    0.0003383999    
0.0847712640    0.0195202920    0.0003369075    
0.0849939250    0.0196758630    0.0003388363    
0.0852165860    0.0198503030    0.0003407809    
0.0854392470    0.0192809560    0.0003326776    
0.0856619080    0.0193388360    0.0003356304    
0.0858845690    0.0194954570    0.0003339517    
0.0861072300    0.0196263610    0.0003373841    
0.0863298910    0.0196214580    0.0003391084    
0.0865525520    0.0195662930    0.0003357073    
0.0867752130    0.0200112230    0.0003367633    
0.0869978740    0.0193899330    0.0003323392    
0.0872205350    0.0190167660    0.0003287069    
0.0874431960    0.0195565610    0.0003333397    
0.0876658570    0.0197757320    0.0003364894    
0.0878885180    0.0193667600    0.0003335628    
0.0881111790    0.0200906890    0.0003393039    
0.0883338400    0.0193063920    0.0003277452    
0.0885565010    0.0195191950    0.0003340154    
0.0887791620    0.0196733130    0.0003309830    
0.0890018230    0.0193869240    0.0003317520    
0.0892244840    0.0202731640    0.0003398267    
0.0894471450    0.0195769670    0.0003325302    
0.0896698060    0.0197098450    0.0003323983    
0.0898924670    0.0200174640    0.0003365349    
0.0901151280    0.0193326990    0.0003271564    
0.0903377890    0.0195563220    0.0003317969    
0.0905604500    0.0193214580    0.0003282849    
0.0907831110    0.0194918450    0.0003289090    
0.0910057720    0.0193014760    0.0003288008    
0.0912284330    0.0198247740    0.0003284571    
0.0914510940    0.0196629150    0.0003307612    
0.0916737550    0.0193716730    0.0003274878    
0.0918964160    0.0192707580    0.0003279921    
0.0921190770    0.0194117500    0.0003262133    
0.0923417380    0.0198391670    0.0003299204    
0.0925643990    0.0189505330    0.0003216578    
0.0927870600    0.0197172840    0.0003294461    
0.0930097210    0.0193774440    0.0003238130    
0.0932323820    0.0200697100    0.0003319689    
