# Diamond Light Source Ltd.
# Data extracted from: /dls/b21/data/2018/cm19678-3/processed/b21-386631_00330.dat
q(1/A)          Column          Error           
0.0035000000    2.1198714000    0.0247182760    
0.0037226610    1.8768644000    0.0227686970    
0.0039453220    1.5998995000    0.0191238230    
0.0041679830    1.2797252000    0.0140459620    
0.0043906440    0.9586811700    0.0116282820    
0.0046133050    0.7834041000    0.0100910240    
0.0048359660    0.5938282000    0.0083103710    
0.0050586270    0.4568464500    0.0071645113    
0.0052812880    0.4369183200    0.0066245384    
0.0055039490    0.3858503000    0.0059193699    
0.0057266100    0.3254211600    0.0052589992    
0.0059492710    0.2655042600    0.0047502446    
0.0061719320    0.2291777400    0.0042527919    
0.0063945930    0.1989541100    0.0040104870    
0.0066172539    0.1898919200    0.0036790812    
0.0068399149    0.1650372300    0.0033758487    
0.0070625759    0.1423229600    0.0031027880    
0.0072852369    0.1254280500    0.0028692233    
0.0075078979    0.1143847000    0.0027265382    
0.0077305589    0.0996243260    0.0024960743    
0.0079532199    0.1013828900    0.0024831151    
0.0081758809    0.0875415010    0.0023288575    
0.0083985419    0.0839149180    0.0021266444    
0.0086212029    0.0757767460    0.0020208929    
0.0088438639    0.0737158020    0.0019772118    
0.0090665249    0.0676269180    0.0018290911    
0.0092891859    0.0639198170    0.0018560650    
0.0095118469    0.0621542500    0.0017601011    
0.0097345079    0.0588628530    0.0016635626    
0.0099571689    0.0545211660    0.0015680214    
0.0101798300    0.0499664710    0.0015010971    
0.0104024910    0.0477476300    0.0014624237    
0.0106251520    0.0487939900    0.0014833810    
0.0108478130    0.0438377900    0.0013692625    
0.0110704740    0.0449695410    0.0013203512    
0.0112931350    0.0409056430    0.0012629771    
0.0115157960    0.0398133410    0.0012387352    
0.0117384570    0.0397369270    0.0012268926    
0.0119611180    0.0392033390    0.0012221243    
0.0121837790    0.0395538530    0.0012069427    
0.0124064400    0.0374749280    0.0011258251    
0.0126291010    0.0357841660    0.0010863657    
0.0128517620    0.0323502130    0.0010355051    
0.0130744230    0.0336682110    0.0010485538    
0.0132970840    0.0319815820    0.0010169552    
0.0135197450    0.0330514790    0.0010190208    
0.0137424060    0.0345204490    0.0010269214    
0.0139650670    0.0302838250    0.0009404189    
0.0141877280    0.0300951740    0.0009395571    
0.0144103890    0.0298028590    0.0009188615    
0.0146330500    0.0300409800    0.0009166678    
0.0148557110    0.0298728100    0.0009102658    
0.0150783720    0.0299266940    0.0009035567    
0.0153010330    0.0282137050    0.0008649466    
0.0155236940    0.0274075230    0.0008474302    
0.0157463550    0.0269467920    0.0008257190    
0.0159690160    0.0269435410    0.0008225358    
0.0161916770    0.0280808560    0.0008349857    
0.0164143380    0.0268947670    0.0008233521    
0.0166369990    0.0254749580    0.0007766178    
0.0168596600    0.0253304200    0.0007675885    
0.0170823210    0.0265624200    0.0007792280    
0.0173049820    0.0256450530    0.0007669776    
0.0175276430    0.0232606900    0.0007381557    
0.0177503040    0.0247593250    0.0007421492    
0.0179729650    0.0247504060    0.0007346566    
0.0181956260    0.0232021500    0.0006976710    
0.0184182870    0.0238152020    0.0007034965    
0.0186409480    0.0241386700    0.0007127408    
0.0188636090    0.0234619380    0.0006982596    
0.0190862700    0.0236579380    0.0007000738    
0.0193089310    0.0235635930    0.0006975875    
0.0195315920    0.0240308460    0.0006805121    
0.0197542530    0.0233664850    0.0006720170    
0.0199769140    0.0228833150    0.0006650329    
0.0201995750    0.0232022210    0.0006591647    
0.0204222360    0.0224593010    0.0006540928    
0.0206448970    0.0231177300    0.0006588949    
0.0208675580    0.0241389830    0.0006594268    
0.0210902190    0.0224952610    0.0006427217    
0.0213128800    0.0212456620    0.0006161399    
0.0215355410    0.0222427800    0.0006229224    
0.0217582020    0.0223997970    0.0006251174    
0.0219808630    0.0215754340    0.0006127011    
0.0222035240    0.0228605870    0.0006249702    
0.0224261850    0.0209114480    0.0005924137    
0.0226488460    0.0214416870    0.0005953727    
0.0228715070    0.0215984800    0.0005960612    
0.0230941680    0.0217629860    0.0005983270    
0.0233168290    0.0209457600    0.0005884476    
0.0235394900    0.0220867030    0.0005975931    
0.0237621510    0.0216483970    0.0005757064    
0.0239848120    0.0222663010    0.0005845402    
0.0242074730    0.0216243520    0.0005714413    
0.0244301340    0.0215980560    0.0005717454    
0.0246527950    0.0231253220    0.0005970932    
0.0248754560    0.0215819300    0.0005638602    
0.0250981170    0.0215451100    0.0005646353    
0.0253207780    0.0212944330    0.0005445808    
0.0255434390    0.0201438780    0.0005353175    
0.0257661000    0.0225366670    0.0005680510    
0.0259887610    0.0217658920    0.0005523200    
0.0262114220    0.0216301500    0.0005535285    
0.0264340830    0.0213763360    0.0005427844    
0.0266567440    0.0209768580    0.0005343664    
0.0268794050    0.0214135490    0.0005376963    
0.0271020660    0.0211869510    0.0005326786    
0.0273247270    0.0218330090    0.0005374915    
0.0275473880    0.0204941540    0.0005197145    
0.0277700490    0.0202265350    0.0005132580    
0.0279927100    0.0215132480    0.0005247134    
0.0282153710    0.0201334560    0.0005100757    
0.0284380320    0.0218039220    0.0005277374    
0.0286606930    0.0212188320    0.0005161526    
0.0288833540    0.0211986960    0.0005168876    
0.0291060150    0.0214855450    0.0005198792    
0.0293286760    0.0209765560    0.0005065265    
0.0295513370    0.0208213590    0.0004991539    
0.0297739980    0.0210010410    0.0005068222    
0.0299966590    0.0211406100    0.0004998185    
0.0302193200    0.0203867400    0.0004979787    
0.0304419810    0.0201322040    0.0004957709    
0.0306646420    0.0214560250    0.0004973660    
0.0308873030    0.0209167440    0.0004889546    
0.0311099640    0.0209106140    0.0004901524    
0.0313326250    0.0207307880    0.0004826337    
0.0315552860    0.0209026650    0.0004909110    
0.0317779470    0.0213779700    0.0004968934    
0.0320006080    0.0203182990    0.0004734156    
0.0322232690    0.0209893060    0.0004831835    
0.0324459300    0.0203264350    0.0004719427    
0.0326685910    0.0195058870    0.0004615566    
0.0328912520    0.0207236970    0.0004773221    
0.0331139130    0.0206057230    0.0004697701    
0.0333365740    0.0201576640    0.0004661432    
0.0335592350    0.0212098380    0.0004735566    
0.0337818960    0.0204160180    0.0004642403    
0.0340045570    0.0208668380    0.0004685924    
0.0342272170    0.0204937450    0.0004625526    
0.0344498780    0.0202144450    0.0004612094    
0.0346725390    0.0201619390    0.0004520796    
0.0348952000    0.0216561060    0.0004663972    
0.0351178610    0.0203646990    0.0004543474    
0.0353405220    0.0205914060    0.0004547881    
0.0355631830    0.0204465660    0.0004514790    
0.0357858440    0.0201774140    0.0004484977    
0.0360085050    0.0200688520    0.0004486410    
0.0362311660    0.0203975400    0.0004469235    
0.0364538270    0.0207652090    0.0004473142    
0.0366764880    0.0193206720    0.0004311619    
0.0368991490    0.0196788230    0.0004329462    
0.0371218100    0.0202103900    0.0004374994    
0.0373444710    0.0201884200    0.0004420233    
0.0375671320    0.0202358100    0.0004418973    
0.0377897930    0.0198060160    0.0004258620    
0.0380124540    0.0204169450    0.0004350930    
0.0382351150    0.0198977260    0.0004295251    
0.0384577760    0.0202067560    0.0004286715    
0.0386804370    0.0196945820    0.0004264335    
0.0389030980    0.0205796360    0.0004326089    
0.0391257590    0.0203280830    0.0004270380    
0.0393484200    0.0199241650    0.0004213512    
0.0395710810    0.0202905960    0.0004257810    
0.0397937420    0.0196562500    0.0004190726    
0.0400164030    0.0196904000    0.0004211429    
0.0402390640    0.0203270390    0.0004221992    
0.0404617250    0.0202352350    0.0004187596    
0.0406843860    0.0203900720    0.0004162973    
0.0409070470    0.0197671380    0.0004141588    
0.0411297080    0.0203056420    0.0004157014    
0.0413523690    0.0200169650    0.0004137998    
0.0415750300    0.0202540740    0.0004197792    
0.0417976910    0.0199960080    0.0004063088    
0.0420203520    0.0205125560    0.0004130696    
0.0422430130    0.0196791790    0.0004061233    
0.0424656740    0.0200111930    0.0004042047    
0.0426883350    0.0203999760    0.0004101378    
0.0429109960    0.0199385390    0.0004067396    
0.0431336570    0.0202436390    0.0004040654    
0.0433563180    0.0204713370    0.0004098368    
0.0435789790    0.0203101060    0.0004018063    
0.0438016400    0.0195432730    0.0003962922    
0.0440243010    0.0200384310    0.0003972097    
0.0442469620    0.0203271030    0.0004024577    
0.0444696230    0.0202369580    0.0004001243    
0.0446922840    0.0203292810    0.0003998451    
0.0449149450    0.0201798020    0.0003930468    
0.0451376060    0.0204067280    0.0004001319    
0.0453602670    0.0196891920    0.0003889140    
0.0455829280    0.0198352920    0.0003899029    
0.0458055890    0.0198036650    0.0003918638    
0.0460282500    0.0203430610    0.0003923753    
0.0462509110    0.0199936310    0.0003865714    
0.0464735720    0.0197917330    0.0003848318    
0.0466962330    0.0195114800    0.0003838345    
0.0469188940    0.0202569390    0.0003899894    
0.0471415550    0.0197297630    0.0003868581    
0.0473642160    0.0203315450    0.0003872148    
0.0475868770    0.0200789280    0.0003828901    
0.0478095380    0.0204825960    0.0003850275    
0.0480321990    0.0195692700    0.0003771700    
0.0482548600    0.0195288310    0.0003751385    
0.0484775210    0.0197054080    0.0003805722    
0.0487001820    0.0205528620    0.0003829800    
0.0489228430    0.0202385010    0.0003798356    
0.0491455040    0.0198189060    0.0003732778    
0.0493681650    0.0197104320    0.0003754538    
0.0495908260    0.0202487310    0.0003741434    
0.0498134870    0.0202838070    0.0003780321    
0.0500361480    0.0199453460    0.0003738730    
0.0502588090    0.0197465030    0.0003664307    
0.0504814700    0.0203917830    0.0003772377    
0.0507041310    0.0200801190    0.0003698931    
0.0509267920    0.0199580540    0.0003702927    
0.0511494530    0.0196860020    0.0003653080    
0.0513721140    0.0202412290    0.0003736860    
0.0515947750    0.0201379390    0.0003677894    
0.0518174360    0.0199756980    0.0003640984    
0.0520400970    0.0194247670    0.0003565528    
0.0522627580    0.0202289400    0.0003669507    
0.0524854190    0.0200856680    0.0003686220    
0.0527080800    0.0196971300    0.0003678655    
0.0529307410    0.0195705080    0.0003684034    
0.0531534020    0.0194695760    0.0003661144    
0.0533760630    0.0196401550    0.0003688658    
0.0535987240    0.0200748800    0.0003711847    
0.0538213850    0.0197421060    0.0003723600    
0.0540440460    0.0195278560    0.0003685813    
0.0542667070    0.0196004550    0.0003718107    
0.0544893680    0.0200026190    0.0003758059    
0.0547120290    0.0195275320    0.0003687724    
0.0549346900    0.0196875150    0.0003704747    
0.0551573510    0.0187407150    0.0003657117    
0.0553800120    0.0197213490    0.0003719685    
0.0556026730    0.0200944190    0.0003832552    
0.0558253340    0.0195701630    0.0003813897    
0.0560479950    0.0196668060    0.0003823305    
0.0562706560    0.0205187030    0.0003942989    
0.0564933170    0.0200979750    0.0003936242    
0.0567159780    0.0204768330    0.0003925532    
0.0569386390    0.0197035440    0.0003911097    
0.0571613000    0.0196669050    0.0003823324    
0.0573839610    0.0201384390    0.0003836763    
0.0576066220    0.0198825770    0.0003822866    
0.0578292830    0.0196781970    0.0003790582    
0.0580519440    0.0201695900    0.0003852499    
0.0582746050    0.0195763580    0.0003778685    
0.0584972660    0.0194412530    0.0003751209    
0.0587199270    0.0191715410    0.0003692986    
0.0589425880    0.0195596040    0.0003708357    
0.0591652490    0.0195130420    0.0003725736    
0.0593879100    0.0193854810    0.0003685959    
0.0596105710    0.0197292580    0.0003714576    
0.0598332320    0.0193708280    0.0003712140    
0.0600558930    0.0198480150    0.0003733628    
0.0602785540    0.0204088070    0.0003782004    
0.0605012150    0.0194993730    0.0003688990    
0.0607238760    0.0192918620    0.0003642568    
0.0609465370    0.0193802350    0.0003679644    
0.0611691980    0.0197360740    0.0003719156    
0.0613918590    0.0196297430    0.0003668630    
0.0616145200    0.0198137780    0.0003712764    
0.0618371810    0.0194128510    0.0003638915    
0.0620598420    0.0199723720    0.0003694788    
0.0622825030    0.0201792500    0.0003770670    
0.0625051640    0.0203355990    0.0003732088    
0.0627278250    0.0200745860    0.0003700424    
0.0629504860    0.0196756960    0.0003633692    
0.0631731470    0.0194158950    0.0003654281    
0.0633958080    0.0193756540    0.0003671502    
0.0636184690    0.0196330230    0.0003747279    
0.0638411300    0.0199686130    0.0003764983    
0.0640637910    0.0197105780    0.0003766887    
0.0642864520    0.0202848000    0.0003813094    
0.0645091130    0.0196207190    0.0003783021    
0.0647317740    0.0196640070    0.0003791368    
0.0649544350    0.0193290060    0.0003754798    
0.0651770960    0.0196309390    0.0003763369    
0.0653997570    0.0198475870    0.0003775872    
0.0656224180    0.0200133590    0.0003799853    
0.0658450790    0.0205845960    0.0003798310    
0.0660677400    0.0196009490    0.0003722221    
0.0662904010    0.0195722960    0.0003763903    
0.0665130620    0.0194172130    0.0003732699    
0.0667357230    0.0202104480    0.0003875889    
0.0669583840    0.0197431830    0.0003818005    
0.0671810450    0.0193578220    0.0003759687    
0.0674037060    0.0195435250    0.0003841676    
0.0676263670    0.0204787940    0.0003903734    
0.0678490280    0.0194131520    0.0003777564    
0.0680716890    0.0195144150    0.0003795832    
0.0682943500    0.0202521230    0.0003824561    
0.0685170110    0.0198627140    0.0003749017    
0.0687396720    0.0198910430    0.0003741722    
0.0689623330    0.0199819900    0.0003738381    
0.0691849940    0.0198343610    0.0003750352    
0.0694076550    0.0193810870    0.0003705272    
0.0696303160    0.0194797920    0.0003685285    
0.0698529770    0.0194607100    0.0003675760    
0.0700756380    0.0200062070    0.0003679079    
0.0702982990    0.0202369080    0.0003740527    
0.0705209600    0.0197413220    0.0003667769    
0.0707436210    0.0195469150    0.0003632904    
0.0709662820    0.0193381780    0.0003656531    
0.0711889430    0.0194528830    0.0003622316    
0.0714116040    0.0197626590    0.0003658497    
0.0716342650    0.0197570090    0.0003643122    
0.0718569260    0.0200779760    0.0003657804    
0.0720795870    0.0190315370    0.0003575614    
0.0723022480    0.0195882180    0.0003633059    
0.0725249090    0.0202729830    0.0003651753    
0.0727475700    0.0198647300    0.0003645672    
0.0729702310    0.0198915190    0.0003619033    
0.0731928920    0.0194203060    0.0003590202    
0.0734155530    0.0195742570    0.0003597212    
0.0736382140    0.0198132820    0.0003595883    
0.0738608750    0.0201163860    0.0003646691    
0.0740835360    0.0201810770    0.0003643482    
0.0743061970    0.0195463990    0.0003535241    
0.0745288580    0.0190628800    0.0003527140    
0.0747515190    0.0200424220    0.0003623769    
0.0749741800    0.0194865870    0.0003540091    
0.0751968410    0.0196370080    0.0003581631    
0.0754195020    0.0194140420    0.0003540375    
0.0756421630    0.0197394050    0.0003540736    
0.0758648240    0.0198918600    0.0003562928    
0.0760874850    0.0194455950    0.0003521043    
0.0763101460    0.0193255740    0.0003506792    
0.0765328070    0.0192165370    0.0003532667    
0.0767554680    0.0195203950    0.0003536327    
0.0769781290    0.0193030240    0.0003496374    
0.0772007900    0.0196302850    0.0003497610    
0.0774234510    0.0189403070    0.0003455133    
0.0776461120    0.0193070160    0.0003485112    
0.0778687730    0.0194233930    0.0003484052    
0.0780914340    0.0202724790    0.0003584822    
0.0783140950    0.0195483450    0.0003464363    
0.0785367560    0.0195435350    0.0003519787    
0.0787594170    0.0194626180    0.0003481022    
0.0789820780    0.0200586280    0.0003515813    
0.0792047390    0.0196875800    0.0003494531    
0.0794274000    0.0201425160    0.0003549652    
0.0796500610    0.0193586750    0.0003445935    
0.0798727220    0.0196413280    0.0003467797    
0.0800953830    0.0199411400    0.0003486128    
0.0803180440    0.0196699430    0.0003486461    
0.0805407050    0.0202687010    0.0003535836    
0.0807633660    0.0195846310    0.0003472431    
0.0809860270    0.0199352770    0.0003490441    
0.0812086880    0.0197183460    0.0003441399    
0.0814313490    0.0205532160    0.0003529522    
0.0816540100    0.0191263240    0.0003397050    
0.0818766710    0.0193107440    0.0003421182    
0.0820993320    0.0195302980    0.0003434305    
0.0823219930    0.0197404460    0.0003466973    
0.0825446540    0.0196526670    0.0003434123    
0.0827673150    0.0203900470    0.0003474455    
0.0829899760    0.0195623920    0.0003397150    
0.0832126370    0.0195654080    0.0003412629    
0.0834352980    0.0191639470    0.0003369884    
0.0836579590    0.0191849160    0.0003364222    
0.0838806200    0.0192636180    0.0003381664    
0.0841032810    0.0196525260    0.0003394426    
0.0843259420    0.0191470960    0.0003340174    
0.0845486030    0.0196482360    0.0003383606    
0.0847712640    0.0196109480    0.0003359793    
0.0849939250    0.0190670370    0.0003318642    
0.0852165860    0.0187290070    0.0003293402    
0.0854392470    0.0201430990    0.0003383126    
0.0856619080    0.0201122280    0.0003405430    
0.0858845690    0.0196553110    0.0003336204    
0.0861072300    0.0195601880    0.0003351097    
0.0863298910    0.0194058840    0.0003355331    
0.0865525520    0.0198077120    0.0003360620    
0.0867752130    0.0193154320    0.0003291819    
0.0869978740    0.0197184990    0.0003334464    
0.0872205350    0.0193983870    0.0003303079    
0.0874431960    0.0194771580    0.0003309782    
0.0876658570    0.0196496830    0.0003337172    
0.0878885180    0.0196033810    0.0003338953    
0.0881111790    0.0196211730    0.0003336182    
0.0883338400    0.0191114040    0.0003244351    
0.0885565010    0.0197124600    0.0003339656    
0.0887791620    0.0199211080    0.0003313748    
0.0890018230    0.0189663350    0.0003264725    
0.0892244840    0.0194988960    0.0003315870    
0.0894471450    0.0193289260    0.0003287442    
0.0896698060    0.0198270830    0.0003316976    
0.0898924670    0.0190199950    0.0003263823    
0.0901151280    0.0193511800    0.0003256556    
0.0903377890    0.0195928540    0.0003304253    
0.0905604500    0.0196950280    0.0003297654    
0.0907831110    0.0193773950    0.0003262816    
0.0910057720    0.0201267360    0.0003340566    
0.0912284330    0.0194198480    0.0003234396    
0.0914510940    0.0198663910    0.0003307851    
0.0916737550    0.0193294770    0.0003254748    
0.0918964160    0.0197337360    0.0003302284    
0.0921190770    0.0188032740    0.0003194345    
0.0923417380    0.0193509510    0.0003241861    
0.0925643990    0.0193914700    0.0003237312    
0.0927870600    0.0198941240    0.0003292448    
0.0930097210    0.0194174260    0.0003225059    
0.0932323820    0.0189918860    0.0003212970    
