# Diamond Light Source Ltd.
# Data extracted from: /dls/b21/data/2018/cm19678-3/processed/b21-386631_00333.dat
q(1/A)          Column          Error           
0.0035000000    2.1304355000    0.0247808840    
0.0037226610    1.8521689000    0.0226194060    
0.0039453220    1.6357040000    0.0193374810    
0.0041679830    1.3046610000    0.0141827730    
0.0043906440    0.9700504200    0.0116975470    
0.0046133050    0.7894530100    0.0101303540    
0.0048359660    0.5905076400    0.0082874695    
0.0050586270    0.4666627800    0.0072413944    
0.0052812880    0.4215880800    0.0065075698    
0.0055039490    0.3952386000    0.0059912151    
0.0057266100    0.3260448700    0.0052642690    
0.0059492710    0.2702024900    0.0047923009    
0.0061719320    0.2239889400    0.0042045583    
0.0063945930    0.2044694800    0.0040658755    
0.0066172539    0.1843483000    0.0036251407    
0.0068399149    0.1685047700    0.0034112794    
0.0070625759    0.1526183300    0.0032131954    
0.0072852369    0.1293119300    0.0029134359    
0.0075078979    0.1077001000    0.0026457869    
0.0077305589    0.1014469100    0.0025189143    
0.0079532199    0.0978032860    0.0024389923    
0.0081758809    0.0904613440    0.0023674816    
0.0083985419    0.0812812280    0.0020930981    
0.0086212029    0.0768614390    0.0020353952    
0.0088438639    0.0696914520    0.0019225685    
0.0090665249    0.0662970540    0.0018110975    
0.0092891859    0.0637637620    0.0018538797    
0.0095118469    0.0627579080    0.0017687058    
0.0097345079    0.0582097820    0.0016543815    
0.0099571689    0.0545259810    0.0015681599    
0.0101798300    0.0544357910    0.0015668626    
0.0104024910    0.0479310280    0.0014652943    
0.0106251520    0.0458667930    0.0014382617    
0.0108478130    0.0474345390    0.0014243900    
0.0110704740    0.0431125390    0.0012928591    
0.0112931350    0.0407532630    0.0012606782    
0.0115157960    0.0426306330    0.0012818707    
0.0117384570    0.0387554500    0.0012116996    
0.0119611180    0.0371493010    0.0011897298    
0.0121837790    0.0362424850    0.0011553682    
0.0124064400    0.0354825550    0.0010955372    
0.0126291010    0.0354574890    0.0010814433    
0.0128517620    0.0350712580    0.0010782228    
0.0130744230    0.0337365020    0.0010496630    
0.0132970840    0.0325018490    0.0010252388    
0.0135197450    0.0290954110    0.0009561345    
0.0137424060    0.0321710110    0.0009914037    
0.0139650670    0.0307830000    0.0009481796    
0.0141877280    0.0298044810    0.0009350497    
0.0144103890    0.0314487600    0.0009439349    
0.0146330500    0.0276379050    0.0008792789    
0.0148557110    0.0278227250    0.0008785150    
0.0150783720    0.0273920280    0.0008644847    
0.0153010330    0.0269432860    0.0008452861    
0.0155236940    0.0278816250    0.0008547661    
0.0157463550    0.0281384780    0.0008438169    
0.0159690160    0.0271217090    0.0008252873    
0.0161916770    0.0263700290    0.0008091860    
0.0164143380    0.0266450600    0.0008195571    
0.0166369990    0.0243643560    0.0007595341    
0.0168596600    0.0249604600    0.0007619961    
0.0170823210    0.0266104880    0.0007799672    
0.0173049820    0.0245461810    0.0007503986    
0.0175276430    0.0257694040    0.0007769768    
0.0177503040    0.0236268870    0.0007250104    
0.0179729650    0.0243164220    0.0007282194    
0.0181956260    0.0239385090    0.0007086867    
0.0184182870    0.0249188030    0.0007196438    
0.0186409480    0.0231095030    0.0006974121    
0.0188636090    0.0246486410    0.0007157323    
0.0190862700    0.0228520230    0.0006880768    
0.0193089310    0.0249494610    0.0007178401    
0.0195315920    0.0243027860    0.0006843819    
0.0197542530    0.0234458640    0.0006731872    
0.0199769140    0.0236198320    0.0006756802    
0.0201995750    0.0227735210    0.0006530755    
0.0204222360    0.0227280010    0.0006580229    
0.0206448970    0.0220116750    0.0006429679    
0.0208675580    0.0233484220    0.0006485673    
0.0210902190    0.0223503270    0.0006406762    
0.0213128800    0.0214798490    0.0006195538    
0.0215355410    0.0224017670    0.0006251723    
0.0217582020    0.0230996500    0.0006348358    
0.0219808630    0.0222037780    0.0006215864    
0.0222035240    0.0221278590    0.0006149000    
0.0224261850    0.0227763570    0.0006182930    
0.0226488460    0.0225017060    0.0006099390    
0.0228715070    0.0222090810    0.0006044546    
0.0230941680    0.0216991040    0.0005974745    
0.0233168290    0.0216750720    0.0005986310    
0.0235394900    0.0221533350    0.0005985202    
0.0237621510    0.0216043750    0.0005751461    
0.0239848120    0.0217004350    0.0005770902    
0.0242074730    0.0219585090    0.0005758649    
0.0244301340    0.0215242800    0.0005707933    
0.0246527950    0.0206758630    0.0005646109    
0.0248754560    0.0215985690    0.0005641025    
0.0250981170    0.0209106660    0.0005562843    
0.0253207780    0.0219648710    0.0005531117    
0.0255434390    0.0214972380    0.0005530322    
0.0257661000    0.0217797320    0.0005584547    
0.0259887610    0.0211510830    0.0005444876    
0.0262114220    0.0220428850    0.0005588093    
0.0264340830    0.0207166160    0.0005343666    
0.0266567440    0.0208970280    0.0005333722    
0.0268794050    0.0207808090    0.0005297161    
0.0271020660    0.0210682790    0.0005312081    
0.0273247270    0.0209880070    0.0005270109    
0.0275473880    0.0202587120    0.0005167434    
0.0277700490    0.0203325240    0.0005146238    
0.0279927100    0.0207856040    0.0005157861    
0.0282153710    0.0203420150    0.0005127334    
0.0284380320    0.0210521600    0.0005185827    
0.0286606930    0.0206179870    0.0005088147    
0.0288833540    0.0210871290    0.0005155484    
0.0291060150    0.0200281080    0.0005019592    
0.0293286760    0.0205625100    0.0005015246    
0.0295513370    0.0206436870    0.0004970416    
0.0297739980    0.0213331680    0.0005108367    
0.0299966590    0.0205988470    0.0004933944    
0.0302193200    0.0203642110    0.0004977255    
0.0304419810    0.0208543610    0.0005046066    
0.0306646420    0.0202818270    0.0004835865    
0.0308873030    0.0211129160    0.0004912638    
0.0311099640    0.0213376040    0.0004951533    
0.0313326250    0.0209910750    0.0004856755    
0.0315552860    0.0201435090    0.0004819352    
0.0317779470    0.0198436500    0.0004787513    
0.0320006080    0.0208827020    0.0004799670    
0.0322232690    0.0200011150    0.0004716929    
0.0324459300    0.0209967060    0.0004796820    
0.0326685910    0.0210258390    0.0004792233    
0.0328912520    0.0201647830    0.0004708623    
0.0331139130    0.0202862200    0.0004661344    
0.0333365740    0.0209679780    0.0004754411    
0.0335592350    0.0203657800    0.0004640587    
0.0337818960    0.0204917220    0.0004651207    
0.0340045570    0.0209633950    0.0004696961    
0.0342272170    0.0201510040    0.0004586887    
0.0344498780    0.0204267060    0.0004636450    
0.0346725390    0.0196568390    0.0004464006    
0.0348952000    0.0198498350    0.0004465431    
0.0351178610    0.0199609930    0.0004498413    
0.0353405220    0.0193978130    0.0004414298    
0.0355631830    0.0209967190    0.0004575328    
0.0357858440    0.0201791960    0.0004485373    
0.0360085050    0.0203615030    0.0004519203    
0.0362311660    0.0200076110    0.0004426506    
0.0364538270    0.0203141190    0.0004424485    
0.0366764880    0.0204097440    0.0004431668    
0.0368991490    0.0205855240    0.0004428275    
0.0371218100    0.0202405900    0.0004378455    
0.0373444710    0.0201418090    0.0004415322    
0.0375671320    0.0203148030    0.0004427785    
0.0377897930    0.0201374370    0.0004294292    
0.0380124540    0.0202240190    0.0004330516    
0.0382351150    0.0196120260    0.0004264492    
0.0384577760    0.0208724570    0.0004356947    
0.0386804370    0.0205827950    0.0004359627    
0.0389030980    0.0207633490    0.0004345547    
0.0391257590    0.0205541710    0.0004294251    
0.0393484200    0.0198457220    0.0004205395    
0.0395710810    0.0198456160    0.0004211049    
0.0397937420    0.0204264340    0.0004272228    
0.0400164030    0.0203137110    0.0004277756    
0.0402390640    0.0207410240    0.0004264957    
0.0404617250    0.0204970270    0.0004214784    
0.0406843860    0.0200008660    0.0004123233    
0.0409070470    0.0205759540    0.0004225657    
0.0411297080    0.0207074560    0.0004198128    
0.0413523690    0.0199331830    0.0004129511    
0.0415750300    0.0201514510    0.0004187329    
0.0417976910    0.0206252850    0.0004126708    
0.0420203520    0.0202564830    0.0004105013    
0.0422430130    0.0200329600    0.0004097757    
0.0424656740    0.0198904810    0.0004030015    
0.0426883350    0.0191483140    0.0003973740    
0.0429109960    0.0196083770    0.0004033758    
0.0431336570    0.0203502830    0.0004051463    
0.0433563180    0.0197264290    0.0004023289    
0.0435789790    0.0200098050    0.0003988423    
0.0438016400    0.0197941340    0.0003988451    
0.0440243010    0.0204496670    0.0004012825    
0.0442469620    0.0201774880    0.0004009916    
0.0444696230    0.0207055500    0.0004047482    
0.0446922840    0.0200479360    0.0003970861    
0.0449149450    0.0200514300    0.0003918119    
0.0451376060    0.0194041890    0.0003901966    
0.0453602670    0.0198522690    0.0003905385    
0.0455829280    0.0197450640    0.0003890323    
0.0458055890    0.0198829610    0.0003926649    
0.0460282500    0.0198680250    0.0003877841    
0.0462509110    0.0194347780    0.0003811473    
0.0464735720    0.0197036800    0.0003839918    
0.0466962330    0.0201550850    0.0003901309    
0.0469188940    0.0200334640    0.0003878494    
0.0471415550    0.0199818470    0.0003893388    
0.0473642160    0.0200014580    0.0003840757    
0.0475868770    0.0193797020    0.0003761808    
0.0478095380    0.0196520000    0.0003771567    
0.0480321990    0.0199708520    0.0003810371    
0.0482548600    0.0203665500    0.0003831170    
0.0484775210    0.0201775910    0.0003851218    
0.0487001820    0.0196197250    0.0003742015    
0.0489228430    0.0203187120    0.0003806043    
0.0491455040    0.0199261220    0.0003743026    
0.0493681650    0.0201055580    0.0003792152    
0.0495908260    0.0197942090    0.0003699367    
0.0498134870    0.0203067370    0.0003782624    
0.0500361480    0.0196597460    0.0003712030    
0.0502588090    0.0190546100    0.0003599698    
0.0504814700    0.0195490860    0.0003693770    
0.0507041310    0.0197752460    0.0003670906    
0.0509267920    0.0196712410    0.0003676386    
0.0511494530    0.0200809530    0.0003689706    
0.0513721140    0.0196772610    0.0003684596    
0.0515947750    0.0195485590    0.0003623834    
0.0518174360    0.0192009290    0.0003569834    
0.0520400970    0.0194068460    0.0003564040    
0.0522627580    0.0194119120    0.0003594798    
0.0524854190    0.0199385960    0.0003672861    
0.0527080800    0.0195270970    0.0003662905    
0.0529307410    0.0201964390    0.0003742649    
0.0531534020    0.0202080100    0.0003730092    
0.0533760630    0.0193024000    0.0003656965    
0.0535987240    0.0192529950    0.0003635230    
0.0538213850    0.0201161100    0.0003758872    
0.0540440460    0.0194113030    0.0003674960    
0.0542667070    0.0199901390    0.0003755051    
0.0544893680    0.0197007540    0.0003729759    
0.0547120290    0.0191392290    0.0003651036    
0.0549346900    0.0200308870    0.0003737080    
0.0551573510    0.0203625210    0.0003812244    
0.0553800120    0.0194354180    0.0003692785    
0.0556026730    0.0195479160    0.0003780243    
0.0558253340    0.0191184590    0.0003769792    
0.0560479950    0.0199881760    0.0003854586    
0.0562706560    0.0194975200    0.0003843789    
0.0564933170    0.0194906670    0.0003876486    
0.0567159780    0.0190863050    0.0003790070    
0.0569386390    0.0194645970    0.0003887481    
0.0571613000    0.0195571420    0.0003812808    
0.0573839610    0.0194164860    0.0003767529    
0.0576066220    0.0201416160    0.0003847858    
0.0578292830    0.0194973750    0.0003773293    
0.0580519440    0.0195826410    0.0003796198    
0.0582746050    0.0202710520    0.0003845316    
0.0584972660    0.0190738000    0.0003715754    
0.0587199270    0.0190238320    0.0003678894    
0.0589425880    0.0199199330    0.0003742524    
0.0591652490    0.0204182920    0.0003811347    
0.0593879100    0.0193030840    0.0003678279    
0.0596105710    0.0199618130    0.0003736569    
0.0598332320    0.0198847770    0.0003761229    
0.0600558930    0.0196039290    0.0003710763    
0.0602785540    0.0195765220    0.0003704248    
0.0605012150    0.0191381540    0.0003654823    
0.0607238760    0.0195411840    0.0003666192    
0.0609465370    0.0197662320    0.0003716271    
0.0611691980    0.0201653770    0.0003759555    
0.0613918590    0.0193777690    0.0003645169    
0.0616145200    0.0195024310    0.0003683640    
0.0618371810    0.0201308440    0.0003705761    
0.0620598420    0.0192085290    0.0003623606    
0.0622825030    0.0194059230    0.0003697876    
0.0625051640    0.0203031450    0.0003729273    
0.0627278250    0.0200900020    0.0003702008    
0.0629504860    0.0201472230    0.0003677137    
0.0631731470    0.0196996230    0.0003681047    
0.0633958080    0.0192242940    0.0003657295    
0.0636184690    0.0188693950    0.0003673843    
0.0638411300    0.0195799140    0.0003728324    
0.0640637910    0.0196187240    0.0003758266    
0.0642864520    0.0201718970    0.0003802636    
0.0645091130    0.0194036140    0.0003762200    
0.0647317740    0.0200824530    0.0003831664    
0.0649544350    0.0192504720    0.0003747328    
0.0651770960    0.0195749500    0.0003758164    
0.0653997570    0.0194542210    0.0003738432    
0.0656224180    0.0200439870    0.0003802927    
0.0658450790    0.0201027700    0.0003753759    
0.0660677400    0.0199137210    0.0003751967    
0.0662904010    0.0195161130    0.0003758663    
0.0665130620    0.0195050430    0.0003741297    
0.0667357230    0.0199594870    0.0003851920    
0.0669583840    0.0192797320    0.0003773093    
0.0671810450    0.0204987580    0.0003869068    
0.0674037060    0.0195074900    0.0003838302    
0.0676263670    0.0199819840    0.0003856261    
0.0678490280    0.0189296790    0.0003730393    
0.0680716890    0.0194349140    0.0003788259    
0.0682943500    0.0196977240    0.0003772016    
0.0685170110    0.0188100310    0.0003648480    
0.0687396720    0.0202377200    0.0003774354    
0.0689623330    0.0195011230    0.0003693289    
0.0691849940    0.0196091710    0.0003729166    
0.0694076550    0.0192977860    0.0003697464    
0.0696303160    0.0202694180    0.0003759402    
0.0698529770    0.0202331490    0.0003748165    
0.0700756380    0.0202989250    0.0003706060    
0.0702982990    0.0196924510    0.0003690029    
0.0705209600    0.0198589210    0.0003678840    
0.0707436210    0.0192987970    0.0003609933    
0.0709662820    0.0195749790    0.0003679013    
0.0711889430    0.0198188690    0.0003656394    
0.0714116040    0.0199811490    0.0003678828    
0.0716342650    0.0192347210    0.0003594804    
0.0718569260    0.0197265380    0.0003625810    
0.0720795870    0.0191608670    0.0003587901    
0.0723022480    0.0198595040    0.0003658292    
0.0725249090    0.0195445660    0.0003585706    
0.0727475700    0.0203148010    0.0003686903    
0.0729702310    0.0192479450    0.0003560164    
0.0731928920    0.0198335610    0.0003628360    
0.0734155530    0.0199594400    0.0003632593    
0.0736382140    0.0197301860    0.0003588493    
0.0738608750    0.0184587280    0.0003493366    
0.0740835360    0.0198341980    0.0003612193    
0.0743061970    0.0198422750    0.0003562055    
0.0745288580    0.0200305190    0.0003615711    
0.0747515190    0.0193758340    0.0003563155    
0.0749741800    0.0202729850    0.0003610976    
0.0751968410    0.0197563400    0.0003592656    
0.0754195020    0.0199775020    0.0003591543    
0.0756421630    0.0202111760    0.0003582956    
0.0758648240    0.0198744700    0.0003561527    
0.0760874850    0.0202953420    0.0003597312    
0.0763101460    0.0194036480    0.0003514024    
0.0765328070    0.0197183370    0.0003578651    
0.0767554680    0.0196246300    0.0003545912    
0.0769781290    0.0193743980    0.0003502987    
0.0772007900    0.0194512790    0.0003481780    
0.0774234510    0.0194777760    0.0003503968    
0.0776461120    0.0197365450    0.0003523821    
0.0778687730    0.0199251110    0.0003528918    
0.0780914340    0.0192155440    0.0003490275    
0.0783140950    0.0199491770    0.0003499856    
0.0785367560    0.0195706200    0.0003522381    
0.0787594170    0.0192214990    0.0003459545    
0.0789820780    0.0192407270    0.0003443539    
0.0792047390    0.0194101690    0.0003469977    
0.0794274000    0.0196750960    0.0003508379    
0.0796500610    0.0198143360    0.0003486408    
0.0798727220    0.0200839300    0.0003506806    
0.0800953830    0.0195893900    0.0003455397    
0.0803180440    0.0197767440    0.0003496068    
0.0805407050    0.0200545840    0.0003517266    
0.0807633660    0.0198449670    0.0003495588    
0.0809860270    0.0193197350    0.0003436283    
0.0812086880    0.0188070650    0.0003361085    
0.0814313490    0.0200276680    0.0003484258    
0.0816540100    0.0194779900    0.0003428289    
0.0818766710    0.0200822810    0.0003489011    
0.0820993320    0.0192240040    0.0003407419    
0.0823219930    0.0193707290    0.0003434505    
0.0825446540    0.0187061900    0.0003350556    
0.0827673150    0.0189944970    0.0003353595    
0.0829899760    0.0197234170    0.0003411253    
0.0832126370    0.0197159580    0.0003425884    
0.0834352980    0.0190885980    0.0003363401    
0.0836579590    0.0195583060    0.0003396953    
0.0838806200    0.0195087330    0.0003403261    
0.0841032810    0.0196542610    0.0003394726    
0.0843259420    0.0193002990    0.0003353659    
0.0845486030    0.0196849360    0.0003386914    
0.0847712640    0.0193881730    0.0003340803    
0.0849939250    0.0196752690    0.0003371307    
0.0852165860    0.0199816890    0.0003401909    
0.0854392470    0.0202244340    0.0003390099    
0.0856619080    0.0201774370    0.0003411097    
0.0858845690    0.0188358800    0.0003266065    
0.0861072300    0.0192920570    0.0003328196    
0.0863298910    0.0195700530    0.0003369643    
0.0865525520    0.0198037580    0.0003360433    
0.0867752130    0.0191656520    0.0003279176    
0.0869978740    0.0200191180    0.0003359934    
0.0872205350    0.0194675980    0.0003309113    
0.0874431960    0.0197826210    0.0003335782    
0.0876658570    0.0189485700    0.0003277240    
0.0878885180    0.0194458590    0.0003325658    
0.0881111790    0.0190896440    0.0003290829    
0.0883338400    0.0193995130    0.0003268859    
0.0885565010    0.0192445460    0.0003299927    
0.0887791620    0.0190242990    0.0003238442    
0.0890018230    0.0198840950    0.0003342927    
0.0892244840    0.0196415990    0.0003328129    
0.0894471450    0.0198059310    0.0003327905    
0.0896698060    0.0196512460    0.0003302381    
0.0898924670    0.0194529670    0.0003300908    
0.0901151280    0.0191281740    0.0003237880    
0.0903377890    0.0193270820    0.0003281911    
0.0905604500    0.0200556940    0.0003327858    
0.0907831110    0.0198736110    0.0003304476    
0.0910057720    0.0198900770    0.0003321014    
0.0912284330    0.0193030400    0.0003224796    
0.0914510940    0.0199562760    0.0003315472    
0.0916737550    0.0193750320    0.0003258725    
0.0918964160    0.0195199420    0.0003284492    
0.0921190770    0.0193150820    0.0003237670    
0.0923417380    0.0192657550    0.0003234860    
0.0925643990    0.0194742580    0.0003244358    
0.0927870600    0.0195253200    0.0003261931    
0.0930097210    0.0192959300    0.0003215095    
0.0932323820    0.0194121390    0.0003248467    
