# Diamond Light Source Ltd.
# Data extracted from: /dls/b21/data/2018/cm19678-3/processed/b21-386631_00332.dat
q(1/A)          Column          Error           
0.0035000000    2.1069322000    0.0246445890    
0.0037226610    1.8660985000    0.0227050200    
0.0039453220    1.6710154000    0.0195457110    
0.0041679830    1.2925624000    0.0141173050    
0.0043906440    0.9756132200    0.0117314090    
0.0046133050    0.7804026800    0.0100724380    
0.0048359660    0.5985708300    0.0083441223    
0.0050586270    0.4620848700    0.0072060156    
0.0052812880    0.4392949800    0.0066430343    
0.0055039490    0.3847280300    0.0059112027    
0.0057266100    0.3124652200    0.0051536383    
0.0059492710    0.2707295500    0.0047971240    
0.0061719320    0.2139000500    0.0041089063    
0.0063945930    0.1972862800    0.0039939441    
0.0066172539    0.1854293100    0.0036358687    
0.0068399149    0.1705873200    0.0034324029    
0.0070625759    0.1497864800    0.0031833458    
0.0072852369    0.1266943000    0.0028838882    
0.0075078979    0.1166120600    0.0027531650    
0.0077305589    0.1030795700    0.0025391829    
0.0079532199    0.0978702850    0.0024399045    
0.0081758809    0.0873688670    0.0023267362    
0.0083985419    0.0809629370    0.0020890618    
0.0086212029    0.0757882210    0.0020211989    
0.0088438639    0.0733026380    0.0019718123    
0.0090665249    0.0645694900    0.0017874014    
0.0092891859    0.0664090560    0.0018920036    
0.0095118469    0.0584747200    0.0017073366    
0.0097345079    0.0560504360    0.0016234573    
0.0099571689    0.0564688480    0.0015959040    
0.0101798300    0.0499740380    0.0015013245    
0.0104024910    0.0491436040    0.0014837601    
0.0106251520    0.0477189080    0.0014670593    
0.0108478130    0.0462398320    0.0014063823    
0.0110704740    0.0445498510    0.0013142750    
0.0112931350    0.0414968500    0.0012721676    
0.0115157960    0.0394724450    0.0012335139    
0.0117384570    0.0390231010    0.0012159149    
0.0119611180    0.0389806500    0.0012187406    
0.0121837790    0.0391178340    0.0012003628    
0.0124064400    0.0365672670    0.0011121917    
0.0126291010    0.0348659820    0.0010724188    
0.0128517620    0.0345430590    0.0010701063    
0.0130744230    0.0329874320    0.0010379772    
0.0132970840    0.0333771400    0.0010389850    
0.0135197450    0.0330250620    0.0010186906    
0.0137424060    0.0311342160    0.0009753283    
0.0139650670    0.0312522660    0.0009554096    
0.0141877280    0.0303931010    0.0009442677    
0.0144103890    0.0295523660    0.0009150611    
0.0146330500    0.0295979240    0.0009099518    
0.0148557110    0.0289341310    0.0008959181    
0.0150783720    0.0281577260    0.0008765117    
0.0153010330    0.0284036230    0.0008679186    
0.0155236940    0.0274378800    0.0008479636    
0.0157463550    0.0265459770    0.0008196170    
0.0159690160    0.0260435070    0.0008087422    
0.0161916770    0.0264213570    0.0008099987    
0.0164143380    0.0261677560    0.0008122090    
0.0166369990    0.0253130620    0.0007742047    
0.0168596600    0.0255203660    0.0007705194    
0.0170823210    0.0239372330    0.0007397766    
0.0173049820    0.0261995400    0.0007752836    
0.0175276430    0.0228190760    0.0007311704    
0.0177503040    0.0236283790    0.0007250562    
0.0179729650    0.0250813010    0.0007396072    
0.0181956260    0.0232476270    0.0006984073    
0.0184182870    0.0245046900    0.0007136616    
0.0186409480    0.0234266850    0.0007022039    
0.0188636090    0.0239019610    0.0007048304    
0.0190862700    0.0242002240    0.0007081055    
0.0193089310    0.0244553190    0.0007107183    
0.0195315920    0.0226467690    0.0006606741    
0.0197542530    0.0228481130    0.0006645713    
0.0199769140    0.0231960620    0.0006696126    
0.0201995750    0.0225502060    0.0006498861    
0.0204222360    0.0235105810    0.0006692768    
0.0206448970    0.0220506290    0.0006435569    
0.0208675580    0.0221968140    0.0006323904    
0.0210902190    0.0227557960    0.0006464819    
0.0213128800    0.0231253570    0.0006428673    
0.0215355410    0.0227521390    0.0006300622    
0.0217582020    0.0217750620    0.0006163851    
0.0219808630    0.0221703750    0.0006211383    
0.0222035240    0.0216849610    0.0006087344    
0.0224261850    0.0218713830    0.0006059043    
0.0226488460    0.0214118650    0.0005950036    
0.0228715070    0.0207462360    0.0005842272    
0.0230941680    0.0207462450    0.0005842274    
0.0233168290    0.0224039480    0.0006086322    
0.0235394900    0.0218959910    0.0005950525    
0.0237621510    0.0208707450    0.0005653144    
0.0239848120    0.0222696730    0.0005846287    
0.0242074730    0.0209026780    0.0005618675    
0.0244301340    0.0221008670    0.0005784061    
0.0246527950    0.0210780680    0.0005700941    
0.0248754560    0.0216883360    0.0005652913    
0.0250981170    0.0203643960    0.0005489873    
0.0253207780    0.0209494290    0.0005401922    
0.0255434390    0.0204314900    0.0005391664    
0.0257661000    0.0217524660    0.0005581226    
0.0259887610    0.0216850830    0.0005513355    
0.0262114220    0.0203442040    0.0005368630    
0.0264340830    0.0217793200    0.0005479183    
0.0266567440    0.0211434090    0.0005365242    
0.0268794050    0.0217948940    0.0005425041    
0.0271020660    0.0216991510    0.0005391198    
0.0273247270    0.0215981010    0.0005346327    
0.0275473880    0.0221185850    0.0005399597    
0.0277700490    0.0203989380    0.0005154798    
0.0279927100    0.0218109020    0.0005283708    
0.0282153710    0.0208602820    0.0005192403    
0.0284380320    0.0207596600    0.0005149838    
0.0286606930    0.0202551230    0.0005043334    
0.0288833540    0.0203825700    0.0005068786    
0.0291060150    0.0210861980    0.0005150641    
0.0293286760    0.0201111840    0.0004960058    
0.0295513370    0.0210758420    0.0005022330    
0.0297739980    0.0206861610    0.0005030464    
0.0299966590    0.0206592410    0.0004941328    
0.0302193200    0.0206331430    0.0005010170    
0.0304419810    0.0198177780    0.0004919214    
0.0306646420    0.0208135350    0.0004898998    
0.0308873030    0.0195595450    0.0004728613    
0.0311099640    0.0204541370    0.0004848096    
0.0313326250    0.0202394600    0.0004769162    
0.0315552860    0.0202946840    0.0004837555    
0.0317779470    0.0196947380    0.0004769666    
0.0320006080    0.0199131830    0.0004687077    
0.0322232690    0.0211816060    0.0004854287    
0.0324459300    0.0207021300    0.0004763203    
0.0326685910    0.0203390040    0.0004713460    
0.0328912520    0.0202870080    0.0004723020    
0.0331139130    0.0205017290    0.0004686186    
0.0333365740    0.0197294710    0.0004612006    
0.0335592350    0.0203987900    0.0004644493    
0.0337818960    0.0201973930    0.0004617829    
0.0340045570    0.0204911180    0.0004643898    
0.0342272170    0.0209562780    0.0004677787    
0.0344498780    0.0205227160    0.0004647480    
0.0346725390    0.0204995550    0.0004558835    
0.0348952000    0.0208155130    0.0004572906    
0.0351178610    0.0201650180    0.0004521486    
0.0353405220    0.0199716660    0.0004479258    
0.0355631830    0.0211476030    0.0004591883    
0.0357858440    0.0206889690    0.0004541819    
0.0360085050    0.0206737470    0.0004553866    
0.0362311660    0.0201166060    0.0004438687    
0.0364538270    0.0207201670    0.0004468626    
0.0366764880    0.0201127090    0.0004399440    
0.0368991490    0.0204534520    0.0004414185    
0.0371218100    0.0206396950    0.0004421551    
0.0373444710    0.0205980180    0.0004465187    
0.0375671320    0.0199589850    0.0004388976    
0.0377897930    0.0197174350    0.0004249408    
0.0380124540    0.0201511080    0.0004322839    
0.0382351150    0.0208559010    0.0004397787    
0.0384577760    0.0210193000    0.0004372384    
0.0386804370    0.0207226140    0.0004374547    
0.0389030980    0.0201552720    0.0004281577    
0.0391257590    0.0203221890    0.0004270084    
0.0393484200    0.0203638690    0.0004260075    
0.0395710810    0.0203740930    0.0004266884    
0.0397937420    0.0203294270    0.0004262206    
0.0400164030    0.0201348160    0.0004259012    
0.0402390640    0.0210668430    0.0004298461    
0.0404617250    0.0200302830    0.0004166651    
0.0406843860    0.0199426230    0.0004117355    
0.0409070470    0.0193535530    0.0004098343    
0.0411297080    0.0203172290    0.0004158515    
0.0413523690    0.0198831070    0.0004124451    
0.0415750300    0.0199090800    0.0004162202    
0.0417976910    0.0198008620    0.0004043519    
0.0420203520    0.0202910390    0.0004108643    
0.0422430130    0.0201348150    0.0004108290    
0.0424656740    0.0200223890    0.0004043483    
0.0426883350    0.0199907160    0.0004060337    
0.0429109960    0.0205224610    0.0004126838    
0.0431336570    0.0196255900    0.0003978796    
0.0433563180    0.0199820650    0.0004049402    
0.0435789790    0.0203529340    0.0004022602    
0.0438016400    0.0202052750    0.0004029787    
0.0440243010    0.0202147120    0.0003989832    
0.0442469620    0.0198679510    0.0003979165    
0.0444696230    0.0194487780    0.0003922847    
0.0446922840    0.0201986460    0.0003985885    
0.0449149450    0.0200297260    0.0003916121    
0.0451376060    0.0202921150    0.0003990369    
0.0453602670    0.0203836670    0.0003957434    
0.0455829280    0.0200146030    0.0003916909    
0.0458055890    0.0192793130    0.0003866705    
0.0460282500    0.0201796180    0.0003908255    
0.0462509110    0.0197574460    0.0003843105    
0.0464735720    0.0199743420    0.0003866323    
0.0466962330    0.0197334440    0.0003860408    
0.0469188940    0.0201849140    0.0003893250    
0.0471415550    0.0194596330    0.0003842297    
0.0473642160    0.0199879690    0.0003839583    
0.0475868770    0.0198921030    0.0003811335    
0.0478095380    0.0198414480    0.0003789822    
0.0480321990    0.0200375470    0.0003816849    
0.0482548600    0.0200579210    0.0003802151    
0.0484775210    0.0197819040    0.0003813390    
0.0487001820    0.0205345620    0.0003828384    
0.0489228430    0.0203912920    0.0003812955    
0.0491455040    0.0200258210    0.0003752497    
0.0493681650    0.0201855090    0.0003799804    
0.0495908260    0.0199614000    0.0003715075    
0.0498134870    0.0194553920    0.0003702600    
0.0500361480    0.0198432270    0.0003729429    
0.0502588090    0.0200419270    0.0003691896    
0.0504814700    0.0201436000    0.0003749634    
0.0507041310    0.0197151610    0.0003665440    
0.0509267920    0.0194663440    0.0003657304    
0.0511494530    0.0197906830    0.0003663057    
0.0513721140    0.0197061030    0.0003687412    
0.0515947750    0.0199864720    0.0003664314    
0.0518174360    0.0201645720    0.0003658433    
0.0520400970    0.0200233690    0.0003620324    
0.0522627580    0.0195263130    0.0003605489    
0.0524854190    0.0199736860    0.0003676208    
0.0527080800    0.0197413410    0.0003683060    
0.0529307410    0.0200104410    0.0003725493    
0.0531534020    0.0199132040    0.0003702900    
0.0533760630    0.0198440650    0.0003708038    
0.0535987240    0.0194807300    0.0003656782    
0.0538213850    0.0195203210    0.0003702906    
0.0540440460    0.0200317810    0.0003733350    
0.0542667070    0.0193565290    0.0003695178    
0.0544893680    0.0193277300    0.0003694396    
0.0547120290    0.0199275070    0.0003725581    
0.0549346900    0.0195928800    0.0003696112    
0.0551573510    0.0192217780    0.0003704037    
0.0553800120    0.0197874870    0.0003726199    
0.0556026730    0.0201851920    0.0003841490    
0.0558253340    0.0200488880    0.0003860556    
0.0560479950    0.0199597020    0.0003851961    
0.0562706560    0.0194002340    0.0003834308    
0.0564933170    0.0197617610    0.0003903475    
0.0567159780    0.0200960770    0.0003889159    
0.0569386390    0.0194735900    0.0003888501    
0.0571613000    0.0194245670    0.0003799983    
0.0573839610    0.0191983840    0.0003746427    
0.0576066220    0.0196503420    0.0003800762    
0.0578292830    0.0198272340    0.0003805198    
0.0580519440    0.0191570210    0.0003754835    
0.0582746050    0.0198565260    0.0003805916    
0.0584972660    0.0201898230    0.0003823035    
0.0587199270    0.0198147780    0.0003754712    
0.0589425880    0.0195063110    0.0003703582    
0.0591652490    0.0203128590    0.0003801614    
0.0593879100    0.0196477700    0.0003711092    
0.0596105710    0.0195643710    0.0003699301    
0.0598332320    0.0196014370    0.0003734454    
0.0600558930    0.0197456550    0.0003724270    
0.0602785540    0.0198581410    0.0003730914    
0.0605012150    0.0191812430    0.0003659050    
0.0607238760    0.0196249620    0.0003674159    
0.0609465370    0.0194390690    0.0003685504    
0.0611691980    0.0197110250    0.0003717077    
0.0613918590    0.0202498810    0.0003726411    
0.0616145200    0.0189330950    0.0003629588    
0.0618371810    0.0197296090    0.0003668760    
0.0620598420    0.0196130780    0.0003661681    
0.0622825030    0.0198792900    0.0003742823    
0.0625051640    0.0196878950    0.0003672450    
0.0627278250    0.0193135440    0.0003629878    
0.0629504860    0.0197256580    0.0003638578    
0.0631731470    0.0203543520    0.0003741836    
0.0633958080    0.0198517460    0.0003716617    
0.0636184690    0.0193570150    0.0003721127    
0.0638411300    0.0199858360    0.0003766892    
0.0640637910    0.0193175630    0.0003729426    
0.0642864520    0.0200943130    0.0003795436    
0.0645091130    0.0193172990    0.0003753941    
0.0647317740    0.0201202760    0.0003835392    
0.0649544350    0.0197842280    0.0003799043    
0.0651770960    0.0198648140    0.0003786007    
0.0653997570    0.0203606880    0.0003824657    
0.0656224180    0.0202112140    0.0003818878    
0.0658450790    0.0198026180    0.0003725747    
0.0660677400    0.0199856740    0.0003758858    
0.0662904010    0.0201761280    0.0003821812    
0.0665130620    0.0200875870    0.0003796875    
0.0667357230    0.0193437110    0.0003792156    
0.0669583840    0.0193178710    0.0003776943    
0.0671810450    0.0195652430    0.0003780062    
0.0674037060    0.0191084260    0.0003798959    
0.0676263670    0.0188594200    0.0003746494    
0.0678490280    0.0194013880    0.0003776705    
0.0680716890    0.0195247550    0.0003797125    
0.0682943500    0.0193666780    0.0003740302    
0.0685170110    0.0195897110    0.0003723445    
0.0687396720    0.0190844950    0.0003665354    
0.0689623330    0.0195373290    0.0003696832    
0.0691849940    0.0204118470    0.0003804844    
0.0694076550    0.0197736860    0.0003742896    
0.0696303160    0.0197895560    0.0003714752    
0.0698529770    0.0193456110    0.0003665151    
0.0700756380    0.0195761650    0.0003639598    
0.0702982990    0.0194793320    0.0003670123    
0.0705209600    0.0199215130    0.0003684749    
0.0707436210    0.0197322050    0.0003650359    
0.0709662820    0.0206065410    0.0003774826    
0.0711889430    0.0194288440    0.0003620351    
0.0714116040    0.0195217980    0.0003636410    
0.0716342650    0.0200690660    0.0003672058    
0.0718569260    0.0194478610    0.0003600221    
0.0720795870    0.0199213040    0.0003658520    
0.0723022480    0.0197124920    0.0003644841    
0.0725249090    0.0194471170    0.0003576869    
0.0727475700    0.0199145800    0.0003650520    
0.0729702310    0.0199669700    0.0003626165    
0.0731928920    0.0194962670    0.0003597489    
0.0734155530    0.0192929180    0.0003571538    
0.0736382140    0.0194377110    0.0003561909    
0.0738608750    0.0197888470    0.0003617155    
0.0740835360    0.0199999230    0.0003627367    
0.0743061970    0.0197476030    0.0003553659    
0.0745288580    0.0198359690    0.0003598223    
0.0747515190    0.0198619750    0.0003607692    
0.0749741800    0.0191164710    0.0003506576    
0.0751968410    0.0197575870    0.0003592882    
0.0754195020    0.0199787630    0.0003591769    
0.0756421630    0.0197741550    0.0003544120    
0.0758648240    0.0189055540    0.0003473737    
0.0760874850    0.0196844730    0.0003542872    
0.0763101460    0.0196085310    0.0003532639    
0.0765328070    0.0195247240    0.0003561151    
0.0767554680    0.0190235730    0.0003491299    
0.0769781290    0.0190335870    0.0003472149    
0.0772007900    0.0193901790    0.0003476417    
0.0774234510    0.0200841780    0.0003558207    
0.0776461120    0.0196685800    0.0003517860    
0.0778687730    0.0190575590    0.0003451346    
0.0780914340    0.0194576790    0.0003512308    
0.0783140950    0.0200425440    0.0003508147    
0.0785367560    0.0196352560    0.0003528304    
0.0787594170    0.0198952280    0.0003519764    
0.0789820780    0.0197843160    0.0003491954    
0.0792047390    0.0193493570    0.0003464646    
0.0794274000    0.0198327470    0.0003522518    
0.0796500610    0.0200916550    0.0003510832    
0.0798727220    0.0199259850    0.0003493100    
0.0800953830    0.0198344420    0.0003477052    
0.0803180440    0.0195616710    0.0003477115    
0.0805407050    0.0198831150    0.0003502307    
0.0807633660    0.0196368580    0.0003477321    
0.0809860270    0.0194126380    0.0003444644    
0.0812086880    0.0195471260    0.0003426685    
0.0814313490    0.0199683120    0.0003479201    
0.0816540100    0.0195214600    0.0003432220    
0.0818766710    0.0194955300    0.0003437772    
0.0820993320    0.0196963350    0.0003449134    
0.0823219930    0.0189639290    0.0003398357    
0.0825446540    0.0197516700    0.0003443023    
0.0827673150    0.0191792580    0.0003369972    
0.0829899760    0.0199075710    0.0003427250    
0.0832126370    0.0190742500    0.0003369777    
0.0834352980    0.0198543430    0.0003430308    
0.0836579590    0.0195123380    0.0003393065    
0.0838806200    0.0191299770    0.0003370169    
0.0841032810    0.0197141400    0.0003400000    
0.0843259420    0.0198201870    0.0003398634    
0.0845486030    0.0194006180    0.0003362472    
0.0847712640    0.0191648750    0.0003321613    
0.0849939250    0.0195436400    0.0003360117    
0.0852165860    0.0189287770    0.0003311170    
0.0854392470    0.0203450530    0.0003400301    
0.0856619080    0.0191175840    0.0003320406    
0.0858845690    0.0202246470    0.0003384434    
0.0861072300    0.0196837330    0.0003361918    
0.0863298910    0.0194900550    0.0003362855    
0.0865525520    0.0195883110    0.0003342209    
0.0867752130    0.0194193530    0.0003300912    
0.0869978740    0.0190954960    0.0003281614    
0.0872205350    0.0186700480    0.0003240722    
0.0874431960    0.0195363600    0.0003315059    
0.0876658570    0.0190404620    0.0003285281    
0.0878885180    0.0199590020    0.0003369358    
0.0881111790    0.0194709640    0.0003323639    
0.0883338400    0.0199460730    0.0003314692    
0.0885565010    0.0196588570    0.0003335365    
0.0887791620    0.0193452560    0.0003265749    
0.0890018230    0.0200595860    0.0003357753    
0.0892244840    0.0190619570    0.0003278756    
0.0894471450    0.0194828400    0.0003300754    
0.0896698060    0.0197246360    0.0003308646    
0.0898924670    0.0196726550    0.0003319600    
0.0901151280    0.0194746970    0.0003267180    
0.0903377890    0.0192837150    0.0003278330    
0.0905604500    0.0191678710    0.0003253468    
0.0907831110    0.0193363710    0.0003259608    
0.0910057720    0.0193090650    0.0003272253    
0.0912284330    0.0193958500    0.0003232642    
0.0914510940    0.0195774450    0.0003283956    
0.0916737550    0.0195735800    0.0003275483    
0.0918964160    0.0194659050    0.0003280046    
0.0921190770    0.0195822470    0.0003260088    
0.0923417380    0.0194027680    0.0003246444    
0.0925643990    0.0197889970    0.0003270574    
0.0927870600    0.0199025870    0.0003293397    
0.0930097210    0.0195918020    0.0003239753    
0.0932323820    0.0197612930    0.0003277654    
