# Diamond Light Source Ltd.
# Data extracted from: /dls/b21/data/2018/cm19678-3/processed/b21-386631_00324.dat
q(1/A)          Column          Error           
0.0035000000    2.1514600000    0.0248977560    
0.0037226610    1.8881341000    0.0228332790    
0.0039453220    1.6549144000    0.0194467160    
0.0041679830    1.3032015000    0.0141719320    
0.0043906440    0.9768437400    0.0117360290    
0.0046133050    0.7808131900    0.0100727030    
0.0048359660    0.5934046700    0.0083060708    
0.0050586270    0.4535545100    0.0071375035    
0.0052812880    0.4346692000    0.0066064033    
0.0055039490    0.3858169800    0.0059181623    
0.0057266100    0.3220030000    0.0052304652    
0.0059492710    0.2612557600    0.0047113277    
0.0061719320    0.2196369200    0.0041626580    
0.0063945930    0.1997791100    0.0040181471    
0.0066172539    0.1844152500    0.0036250557    
0.0068399149    0.1686427900    0.0034119767    
0.0070625759    0.1418038300    0.0030966259    
0.0072852369    0.1251252600    0.0028652970    
0.0075078979    0.1170766600    0.0027579916    
0.0077305589    0.1024056200    0.0025302700    
0.0079532199    0.0991007510    0.0024546136    
0.0081758809    0.0924061640    0.0023923049    
0.0083985419    0.0813556650    0.0020936271    
0.0086212029    0.0781768800    0.0020523179    
0.0088438639    0.0695038370    0.0019195854    
0.0090665249    0.0674073460    0.0018258256    
0.0092891859    0.0662160100    0.0018888048    
0.0095118469    0.0603903140    0.0017346664    
0.0097345079    0.0579979220    0.0016510296    
0.0099571689    0.0566675460    0.0015983312    
0.0101798300    0.0494995840    0.0014938272    
0.0104024910    0.0482695960    0.0014701589    
0.0106251520    0.0501307440    0.0015033211    
0.0108478130    0.0453201090    0.0013919961    
0.0110704740    0.0453426200    0.0013256036    
0.0112931350    0.0412823100    0.0012685746    
0.0115157960    0.0410719950    0.0012579611    
0.0117384570    0.0394590660    0.0012223989    
0.0119611180    0.0398001090    0.0012311929    
0.0121837790    0.0387679800    0.0011947004    
0.0124064400    0.0359075560    0.0011018528    
0.0126291010    0.0356078050    0.0010835110    
0.0128517620    0.0325386180    0.0010383490    
0.0130744230    0.0338206090    0.0010507552    
0.0132970840    0.0326824870    0.0010278732    
0.0135197450    0.0316589120    0.0009971620    
0.0137424060    0.0312111070    0.0009763010    
0.0139650670    0.0317337800    0.0009625140    
0.0141877280    0.0305546640    0.0009465502    
0.0144103890    0.0291702200    0.0009089105    
0.0146330500    0.0296118860    0.0009099512    
0.0148557110    0.0310832400    0.0009283751    
0.0150783720    0.0294261780    0.0008958249    
0.0153010330    0.0281516140    0.0008638554    
0.0155236940    0.0281845220    0.0008592203    
0.0157463550    0.0272669470    0.0008304761    
0.0159690160    0.0253283210    0.0007973717    
0.0161916770    0.0270293690    0.0008190718    
0.0164143380    0.0254750370    0.0008011969    
0.0166369990    0.0263661490    0.0007899582    
0.0168596600    0.0251362510    0.0007645179    
0.0170823210    0.0256398020    0.0007654525    
0.0173049820    0.0246737050    0.0007521912    
0.0175276430    0.0260398460    0.0007808831    
0.0177503040    0.0241731630    0.0007331937    
0.0179729650    0.0250040390    0.0007382925    
0.0181956260    0.0243691020    0.0007148855    
0.0184182870    0.0245554230    0.0007142310    
0.0186409480    0.0234366430    0.0007021870    
0.0188636090    0.0240984000    0.0007075534    
0.0190862700    0.0257005760    0.0007295532    
0.0193089310    0.0234734340    0.0006961397    
0.0195315920    0.0233873810    0.0006712314    
0.0197542530    0.0233976110    0.0006723563    
0.0199769140    0.0230884850    0.0006679001    
0.0201995750    0.0240933450    0.0006715956    
0.0204222360    0.0233471140    0.0006667883    
0.0206448970    0.0251378420    0.0006869699    
0.0208675580    0.0229066500    0.0006422706    
0.0210902190    0.0233141170    0.0006542099    
0.0213128800    0.0233109090    0.0006452886    
0.0215355410    0.0221309880    0.0006212551    
0.0217582020    0.0235436130    0.0006407760    
0.0219808630    0.0216728580    0.0006139841    
0.0222035240    0.0229044750    0.0006254692    
0.0224261850    0.0216093760    0.0006021217    
0.0226488460    0.0223106910    0.0006072201    
0.0228715070    0.0220848660    0.0006026383    
0.0230941680    0.0212955420    0.0005917712    
0.0233168290    0.0209720750    0.0005887225    
0.0235394900    0.0216431790    0.0005914673    
0.0237621510    0.0220699770    0.0005811915    
0.0239848120    0.0212159820    0.0005704953    
0.0242074730    0.0225080580    0.0005829069    
0.0244301340    0.0218785870    0.0005753540    
0.0246527950    0.0217308110    0.0005787172    
0.0248754560    0.0222966090    0.0005730280    
0.0250981170    0.0210648140    0.0005582164    
0.0253207780    0.0214268100    0.0005461830    
0.0255434390    0.0218866230    0.0005579040    
0.0257661000    0.0215274750    0.0005550974    
0.0259887610    0.0223613590    0.0005597341    
0.0262114220    0.0212833390    0.0005489848    
0.0264340830    0.0209010140    0.0005366295    
0.0266567440    0.0213647460    0.0005391976    
0.0268794050    0.0230803220    0.0005581409    
0.0271020660    0.0214345120    0.0005356954    
0.0273247270    0.0219450380    0.0005387821    
0.0275473880    0.0217919160    0.0005358308    
0.0277700490    0.0210663280    0.0005237205    
0.0279927100    0.0204956200    0.0005120706    
0.0282153710    0.0205145350    0.0005147975    
0.0284380320    0.0215542960    0.0005246234    
0.0286606930    0.0211115950    0.0005147639    
0.0288833540    0.0212044770    0.0005168750    
0.0291060150    0.0209504710    0.0005132823    
0.0293286760    0.0207986270    0.0005042925    
0.0295513370    0.0208026990    0.0004988499    
0.0297739980    0.0204807390    0.0005004241    
0.0299966590    0.0206258430    0.0004936164    
0.0302193200    0.0208787430    0.0005038708    
0.0304419810    0.0205162830    0.0005003971    
0.0306646420    0.0214721750    0.0004974731    
0.0308873030    0.0204529660    0.0004834258    
0.0311099640    0.0214322290    0.0004961483    
0.0313326250    0.0200389330    0.0004744355    
0.0315552860    0.0215529020    0.0004984079    
0.0317779470    0.0207822640    0.0004898426    
0.0320006080    0.0218114380    0.0004904234    
0.0322232690    0.0216942050    0.0004911511    
0.0324459300    0.0208237870    0.0004776048    
0.0326685910    0.0208425310    0.0004770320    
0.0328912520    0.0215632980    0.0004868169    
0.0331139130    0.0211558280    0.0004759229    
0.0333365740    0.0204313570    0.0004692216    
0.0335592350    0.0207590840    0.0004684222    
0.0337818960    0.0196601900    0.0004554926    
0.0340045570    0.0198923340    0.0004574462    
0.0342272170    0.0206228300    0.0004639325    
0.0344498780    0.0203552160    0.0004627381    
0.0346725390    0.0199933190    0.0004501128    
0.0348952000    0.0212173620    0.0004615743    
0.0351178610    0.0208952230    0.0004601534    
0.0353405220    0.0198316820    0.0004462477    
0.0355631830    0.0201709110    0.0004483532    
0.0357858440    0.0199516750    0.0004459101    
0.0360085050    0.0210148850    0.0004590198    
0.0362311660    0.0201658270    0.0004443062    
0.0364538270    0.0200938720    0.0004399532    
0.0366764880    0.0211612590    0.0004511595    
0.0368991490    0.0205675630    0.0004425435    
0.0371218100    0.0202417600    0.0004377684    
0.0373444710    0.0200658280    0.0004406083    
0.0375671320    0.0206151720    0.0004459485    
0.0377897930    0.0198545690    0.0004263151    
0.0380124540    0.0203825710    0.0004346567    
0.0382351150    0.0206050410    0.0004370225    
0.0384577760    0.0211820870    0.0004388244    
0.0386804370    0.0208881880    0.0004390950    
0.0389030980    0.0204548330    0.0004312258    
0.0391257590    0.0201511530    0.0004251071    
0.0393484200    0.0204522230    0.0004268296    
0.0395710810    0.0203644560    0.0004264866    
0.0397937420    0.0200965170    0.0004236718    
0.0400164030    0.0202063340    0.0004265560    
0.0402390640    0.0204344640    0.0004232453    
0.0404617250    0.0199861550    0.0004161074    
0.0406843860    0.0201116210    0.0004133786    
0.0409070470    0.0199863200    0.0004163817    
0.0411297080    0.0208010590    0.0004206743    
0.0413523690    0.0202670720    0.0004163100    
0.0415750300    0.0209955360    0.0004273250    
0.0417976910    0.0200308430    0.0004065972    
0.0420203520    0.0193417920    0.0004010438    
0.0422430130    0.0205023260    0.0004144634    
0.0424656740    0.0197354140    0.0004013452    
0.0426883350    0.0204428730    0.0004105028    
0.0429109960    0.0203136820    0.0004104821    
0.0431336570    0.0205193190    0.0004067420    
0.0433563180    0.0196117120    0.0004010751    
0.0435789790    0.0204227730    0.0004028544    
0.0438016400    0.0198181530    0.0003990052    
0.0440243010    0.0201421820    0.0003981726    
0.0442469620    0.0200019360    0.0003991615    
0.0444696230    0.0192497700    0.0003901802    
0.0446922840    0.0199689610    0.0003962220    
0.0449149450    0.0202574950    0.0003937393    
0.0451376060    0.0193883920    0.0003899578    
0.0453602670    0.0206197730    0.0003979346    
0.0455829280    0.0201890200    0.0003933009    
0.0458055890    0.0199910820    0.0003936504    
0.0460282500    0.0198523150    0.0003875513    
0.0462509110    0.0196210790    0.0003828913    
0.0464735720    0.0208251270    0.0003946872    
0.0466962330    0.0199203690    0.0003877731    
0.0469188940    0.0202504240    0.0003898640    
0.0471415550    0.0204286370    0.0003935869    
0.0473642160    0.0197720950    0.0003817889    
0.0475868770    0.0193717580    0.0003760266    
0.0478095380    0.0203240660    0.0003834729    
0.0480321990    0.0197228520    0.0003785862    
0.0482548600    0.0202933670    0.0003823496    
0.0484775210    0.0205367030    0.0003884542    
0.0487001820    0.0198685100    0.0003764894    
0.0489228430    0.0203317620    0.0003806485    
0.0491455040    0.0201147440    0.0003759930    
0.0493681650    0.0205119890    0.0003829504    
0.0495908260    0.0192332170    0.0003645821    
0.0498134870    0.0198406070    0.0003738191    
0.0500361480    0.0193434250    0.0003681291    
0.0502588090    0.0199916620    0.0003686391    
0.0504814700    0.0197154840    0.0003708697    
0.0507041310    0.0196785900    0.0003661173    
0.0509267920    0.0196975180    0.0003678086    
0.0511494530    0.0197948750    0.0003662579    
0.0513721140    0.0196760920    0.0003683731    
0.0515947750    0.0199703030    0.0003661965    
0.0518174360    0.0198830270    0.0003631944    
0.0520400970    0.0204718820    0.0003659780    
0.0522627580    0.0195703120    0.0003608696    
0.0524854190    0.0199574750    0.0003673846    
0.0527080800    0.0200067260    0.0003706857    
0.0529307410    0.0200148420    0.0003725021    
0.0531534020    0.0197386090    0.0003685759    
0.0533760630    0.0194953280    0.0003674442    
0.0535987240    0.0201987820    0.0003722685    
0.0538213850    0.0206905990    0.0003811387    
0.0540440460    0.0194589830    0.0003678716    
0.0542667070    0.0195729980    0.0003714904    
0.0544893680    0.0197350280    0.0003732237    
0.0547120290    0.0196256800    0.0003696385    
0.0549346900    0.0202387230    0.0003755647    
0.0551573510    0.0203684430    0.0003812017    
0.0553800120    0.0203742760    0.0003780151    
0.0556026730    0.0192183790    0.0003747476    
0.0558253340    0.0201137070    0.0003865877    
0.0560479950    0.0198388070    0.0003839370    
0.0562706560    0.0197773640    0.0003870481    
0.0564933170    0.0207003450    0.0003994152    
0.0567159780    0.0191988500    0.0003800449    
0.0569386390    0.0201473400    0.0003954261    
0.0571613000    0.0195194040    0.0003808347    
0.0573839610    0.0204315660    0.0003863964    
0.0576066220    0.0206477160    0.0003895102    
0.0578292830    0.0199127480    0.0003812493    
0.0580519440    0.0196334630    0.0003800341    
0.0582746050    0.0204450270    0.0003860990    
0.0584972660    0.0198619040    0.0003790964    
0.0587199270    0.0198978550    0.0003761685    
0.0589425880    0.0204810760    0.0003794093    
0.0591652490    0.0198907850    0.0003761020    
0.0593879100    0.0198066260    0.0003725183    
0.0596105710    0.0203661270    0.0003773447    
0.0598332320    0.0203317610    0.0003802489    
0.0600558930    0.0198275890    0.0003731106    
0.0602785540    0.0196665850    0.0003711998    
0.0605012150    0.0201907780    0.0003753218    
0.0607238760    0.0196363050    0.0003674351    
0.0609465370    0.0195974940    0.0003699616    
0.0611691980    0.0192392860    0.0003671459    
0.0613918590    0.0200209700    0.0003704412    
0.0616145200    0.0193970690    0.0003672923    
0.0618371810    0.0193384180    0.0003631348    
0.0620598420    0.0199864470    0.0003695495    
0.0622825030    0.0199684970    0.0003750324    
0.0625051640    0.0190623430    0.0003612781    
0.0627278250    0.0197953720    0.0003674008    
0.0629504860    0.0201523810    0.0003676854    
0.0631731470    0.0196021660    0.0003671178    
0.0633958080    0.0194598360    0.0003678877    
0.0636184690    0.0192978090    0.0003714553    
0.0638411300    0.0197563950    0.0003744321    
0.0640637910    0.0199417250    0.0003788301    
0.0642864520    0.0204144200    0.0003824642    
0.0645091130    0.0193519110    0.0003756413    
0.0647317740    0.0193580670    0.0003761153    
0.0649544350    0.0190311250    0.0003725154    
0.0651770960    0.0203097920    0.0003827270    
0.0653997570    0.0200638160    0.0003795774    
0.0656224180    0.0194371500    0.0003744150    
0.0658450790    0.0198282840    0.0003727279    
0.0660677400    0.0198984920    0.0003749763    
0.0662904010    0.0199350340    0.0003798011    
0.0665130620    0.0201282990    0.0003799822    
0.0667357230    0.0196020650    0.0003816493    
0.0669583840    0.0195006400    0.0003793870    
0.0671810450    0.0200450710    0.0003825228    
0.0674037060    0.0194315510    0.0003830039    
0.0676263670    0.0203829390    0.0003893960    
0.0678490280    0.0197302340    0.0003807677    
0.0680716890    0.0195671870    0.0003800350    
0.0682943500    0.0200362220    0.0003803508    
0.0685170110    0.0194035980    0.0003704839    
0.0687396720    0.0200042620    0.0003751752    
0.0689623330    0.0199545870    0.0003735216    
0.0691849940    0.0192750390    0.0003696499    
0.0694076550    0.0198280660    0.0003747152    
0.0696303160    0.0197941350    0.0003714303    
0.0698529770    0.0204261320    0.0003765226    
0.0700756380    0.0193301820    0.0003615804    
0.0702982990    0.0197258490    0.0003692400    
0.0705209600    0.0190128790    0.0003598885    
0.0707436210    0.0193381340    0.0003612869    
0.0709662820    0.0197881280    0.0003698231    
0.0711889430    0.0201613770    0.0003687097    
0.0714116040    0.0201219090    0.0003691006    
0.0716342650    0.0196767830    0.0003635133    
0.0718569260    0.0195319260    0.0003607141    
0.0720795870    0.0198380080    0.0003650000    
0.0723022480    0.0197166400    0.0003644362    
0.0725249090    0.0198456140    0.0003612476    
0.0727475700    0.0194503380    0.0003606866    
0.0729702310    0.0196218290    0.0003593838    
0.0731928920    0.0194671400    0.0003593951    
0.0734155530    0.0197662180    0.0003614226    
0.0736382140    0.0198917220    0.0003602414    
0.0738608750    0.0189996740    0.0003543457    
0.0740835360    0.0197866130    0.0003607118    
0.0743061970    0.0198597090    0.0003562889    
0.0745288580    0.0195069080    0.0003567408    
0.0747515190    0.0197543320    0.0003597052    
0.0749741800    0.0198789270    0.0003574976    
0.0751968410    0.0196829370    0.0003585240    
0.0754195020    0.0199241340    0.0003586007    
0.0756421630    0.0199997190    0.0003563433    
0.0758648240    0.0198854620    0.0003561782    
0.0760874850    0.0199301040    0.0003564065    
0.0763101460    0.0195865340    0.0003529821    
0.0765328070    0.0198725590    0.0003591883    
0.0767554680    0.0195973730    0.0003542723    
0.0769781290    0.0191005560    0.0003477430    
0.0772007900    0.0197423380    0.0003507014    
0.0774234510    0.0191106400    0.0003470076    
0.0776461120    0.0193448290    0.0003487962    
0.0778687730    0.0199419340    0.0003529684    
0.0780914340    0.0197716670    0.0003539696    
0.0783140950    0.0196218460    0.0003470312    
0.0785367560    0.0199681720    0.0003557248    
0.0787594170    0.0201721230    0.0003543334    
0.0789820780    0.0196271070    0.0003477230    
0.0792047390    0.0196254400    0.0003488450    
0.0794274000    0.0191917700    0.0003464309    
0.0796500610    0.0197203660    0.0003477418    
0.0798727220    0.0196288900    0.0003466141    
0.0800953830    0.0196361920    0.0003458813    
0.0803180440    0.0194906410    0.0003469976    
0.0805407050    0.0198182140    0.0003495760    
0.0807633660    0.0200891780    0.0003516309    
0.0809860270    0.0196844890    0.0003467859    
0.0812086880    0.0195078590    0.0003422431    
0.0814313490    0.0200255170    0.0003483357    
0.0816540100    0.0195906370    0.0003437483    
0.0818766710    0.0194196580    0.0003430264    
0.0820993320    0.0200371710    0.0003478026    
0.0823219930    0.0193140930    0.0003428777    
0.0825446540    0.0195383660    0.0003423571    
0.0827673150    0.0198508190    0.0003427653    
0.0829899760    0.0192907120    0.0003372935    
0.0832126370    0.0198328350    0.0003435320    
0.0834352980    0.0201056010    0.0003451129    
0.0836579590    0.0200397840    0.0003437806    
0.0838806200    0.0195719500    0.0003408072    
0.0841032810    0.0200799210    0.0003430586    
0.0843259420    0.0192341370    0.0003347219    
0.0845486030    0.0198690920    0.0003402022    
0.0847712640    0.0196219020    0.0003360191    
0.0849939250    0.0196787530    0.0003370915    
0.0852165860    0.0201124440    0.0003412322    
0.0854392470    0.0195629110    0.0003333511    
0.0856619080    0.0190739560    0.0003315831    
0.0858845690    0.0191621520    0.0003293555    
0.0861072300    0.0198982570    0.0003379388    
0.0863298910    0.0191560590    0.0003333127    
0.0865525520    0.0200863340    0.0003383629    
0.0867752130    0.0187708270    0.0003244558    
0.0869978740    0.0201969280    0.0003374131    
0.0872205350    0.0196564070    0.0003324439    
0.0874431960    0.0192516140    0.0003290033    
0.0876658570    0.0198246690    0.0003351460    
0.0878885180    0.0193582950    0.0003317482    
0.0881111790    0.0196602270    0.0003338963    
0.0883338400    0.0191327860    0.0003245643    
0.0885565010    0.0192762500    0.0003301967    
0.0887791620    0.0192093660    0.0003253489    
0.0890018230    0.0191568600    0.0003280554    
0.0892244840    0.0189063790    0.0003264576    
0.0894471450    0.0190320580    0.0003261574    
0.0896698060    0.0189719600    0.0003244137    
0.0898924670    0.0189914810    0.0003260851    
0.0901151280    0.0193011270    0.0003251819    
0.0903377890    0.0194138610    0.0003288596    
0.0905604500    0.0194734260    0.0003278522    
0.0907831110    0.0192668100    0.0003252970    
0.0910057720    0.0200703770    0.0003335349    
0.0912284330    0.0195859280    0.0003247674    
0.0914510940    0.0185716060    0.0003197726    
0.0916737550    0.0197834680    0.0003292219    
0.0918964160    0.0196776710    0.0003297059    
0.0921190770    0.0195567100    0.0003257190    
0.0923417380    0.0197790730    0.0003276999    
0.0925643990    0.0192933850    0.0003228595    
0.0927870600    0.0190488570    0.0003221225    
0.0930097210    0.0195932440    0.0003239106    
0.0932323820    0.0195834980    0.0003262104    
