# Diamond Light Source Ltd.
# Data extracted from: /dls/b21/data/2018/cm19678-3/processed/b21-386631_00328.dat
q(1/A)          Column          Error           
0.0035000000    2.0662099000    0.0244031080    
0.0037226610    1.8527871000    0.0226218960    
0.0039453220    1.6172315000    0.0192268870    
0.0041679830    1.2758388000    0.0140244410    
0.0043906440    0.9619009000    0.0116476450    
0.0046133050    0.7806547400    0.0100731740    
0.0048359660    0.5936969000    0.0083093472    
0.0050586270    0.4744746200    0.0073013379    
0.0052812880    0.4366059600    0.0066220864    
0.0055039490    0.3801196900    0.0058751743    
0.0057266100    0.3307670800    0.0053019528    
0.0059492710    0.2664324000    0.0047584802    
0.0061719320    0.2209646900    0.0041758402    
0.0063945930    0.1963621800    0.0039842271    
0.0066172539    0.1822602700    0.0036043474    
0.0068399149    0.1675189100    0.0034010926    
0.0070625759    0.1498953000    0.0031842206    
0.0072852369    0.1248998200    0.0028631389    
0.0075078979    0.1199059300    0.0027915311    
0.0077305589    0.1019356900    0.0025248318    
0.0079532199    0.1011978800    0.0024808170    
0.0081758809    0.0892739680    0.0023517592    
0.0083985419    0.0832660710    0.0021183798    
0.0086212029    0.0741580140    0.0019991661    
0.0088438639    0.0707972010    0.0019376506    
0.0090665249    0.0643107330    0.0017836588    
0.0092891859    0.0632175810    0.0018458180    
0.0095118469    0.0663393870    0.0018183707    
0.0097345079    0.0566047000    0.0016313203    
0.0099571689    0.0568196310    0.0016007118    
0.0101798300    0.0512278670    0.0015199073    
0.0104024910    0.0489557600    0.0014807908    
0.0106251520    0.0437421200    0.0014044748    
0.0108478130    0.0443926600    0.0013778835    
0.0110704740    0.0423710910    0.0012816209    
0.0112931350    0.0437511650    0.0013061504    
0.0115157960    0.0430882780    0.0012886597    
0.0117384570    0.0392434860    0.0012192358    
0.0119611180    0.0395833240    0.0012280173    
0.0121837790    0.0360910580    0.0011528866    
0.0124064400    0.0348697420    0.0010859739    
0.0126291010    0.0359811410    0.0010893378    
0.0128517620    0.0352661440    0.0010811530    
0.0130744230    0.0351694930    0.0010716630    
0.0132970840    0.0326598400    0.0010276693    
0.0135197450    0.0335847320    0.0010271953    
0.0137424060    0.0323811950    0.0009945805    
0.0139650670    0.0316263780    0.0009610262    
0.0141877280    0.0322649660    0.0009728253    
0.0144103890    0.0294055000    0.0009127039    
0.0146330500    0.0293409610    0.0009059132    
0.0148557110    0.0282078740    0.0008845245    
0.0150783720    0.0278799530    0.0008721006    
0.0153010330    0.0285046680    0.0008693842    
0.0155236940    0.0288217150    0.0008690074    
0.0157463550    0.0269461110    0.0008256981    
0.0159690160    0.0256371480    0.0008023370    
0.0161916770    0.0276829030    0.0008290375    
0.0164143380    0.0267428560    0.0008210131    
0.0166369990    0.0257820900    0.0007812755    
0.0168596600    0.0247250290    0.0007583508    
0.0170823210    0.0265846070    0.0007795436    
0.0173049820    0.0239011360    0.0007404312    
0.0175276430    0.0238691280    0.0007477380    
0.0177503040    0.0260934010    0.0007618714    
0.0179729650    0.0252077060    0.0007414031    
0.0181956260    0.0260755370    0.0007396014    
0.0184182870    0.0241886510    0.0007089819    
0.0186409480    0.0241170160    0.0007124120    
0.0188636090    0.0234613450    0.0006982419    
0.0190862700    0.0237402030    0.0007012811    
0.0193089310    0.0232738810    0.0006932771    
0.0195315920    0.0240109690    0.0006802220    
0.0197542530    0.0226894630    0.0006622015    
0.0199769140    0.0226894710    0.0006622017    
0.0201995750    0.0235574310    0.0006641828    
0.0204222360    0.0231825950    0.0006645333    
0.0206448970    0.0227415620    0.0006535040    
0.0208675580    0.0229134410    0.0006424610    
0.0210902190    0.0236332000    0.0006587691    
0.0213128800    0.0229425910    0.0006402653    
0.0215355410    0.0226608950    0.0006287420    
0.0217582020    0.0228004630    0.0006306754    
0.0219808630    0.0231756060    0.0006350077    
0.0222035240    0.0226379020    0.0006219110    
0.0224261850    0.0217332590    0.0006039347    
0.0226488460    0.0223503680    0.0006078499    
0.0228715070    0.0219433700    0.0006007938    
0.0230941680    0.0221243210    0.0006032659    
0.0233168290    0.0220197680    0.0006033379    
0.0235394900    0.0218921230    0.0005949474    
0.0237621510    0.0221377590    0.0005821696    
0.0239848120    0.0213757230    0.0005727238    
0.0242074730    0.0207177800    0.0005593275    
0.0244301340    0.0215672400    0.0005713302    
0.0246527950    0.0218297520    0.0005801191    
0.0248754560    0.0222590250    0.0005726298    
0.0250981170    0.0206567400    0.0005528650    
0.0253207780    0.0211267750    0.0005424259    
0.0255434390    0.0214094430    0.0005518704    
0.0257661000    0.0223356500    0.0005655048    
0.0259887610    0.0214990560    0.0005489171    
0.0262114220    0.0206239050    0.0005404932    
0.0264340830    0.0201767670    0.0005273282    
0.0266567440    0.0213166320    0.0005386699    
0.0268794050    0.0217505400    0.0005419039    
0.0271020660    0.0209721400    0.0005299646    
0.0273247270    0.0213296500    0.0005312528    
0.0275473880    0.0209285500    0.0005251869    
0.0277700490    0.0212028120    0.0005254922    
0.0279927100    0.0208984210    0.0005171546    
0.0282153710    0.0211925760    0.0005233134    
0.0284380320    0.0212796820    0.0005213479    
0.0286606930    0.0207788630    0.0005107669    
0.0288833540    0.0218661170    0.0005249548    
0.0291060150    0.0214095280    0.0005189521    
0.0293286760    0.0212206440    0.0005094585    
0.0295513370    0.0206652750    0.0004972731    
0.0297739980    0.0212206670    0.0005094591    
0.0299966590    0.0213882270    0.0005027308    
0.0302193200    0.0207632970    0.0005025503    
0.0304419810    0.0203514470    0.0004984568    
0.0306646420    0.0206369230    0.0004877738    
0.0308873030    0.0209047850    0.0004888086    
0.0311099640    0.0216453860    0.0004986834    
0.0313326250    0.0202583560    0.0004770966    
0.0315552860    0.0203833300    0.0004847681    
0.0317779470    0.0209270140    0.0004916185    
0.0320006080    0.0208803300    0.0004799125    
0.0322232690    0.0210777580    0.0004841945    
0.0324459300    0.0212025120    0.0004819998    
0.0326685910    0.0204009390    0.0004720214    
0.0328912520    0.0214707470    0.0004858431    
0.0331139130    0.0209264900    0.0004734064    
0.0333365740    0.0208685830    0.0004742860    
0.0335592350    0.0204797690    0.0004653291    
0.0337818960    0.0207110730    0.0004675770    
0.0340045570    0.0205927230    0.0004654986    
0.0342272170    0.0203366310    0.0004607704    
0.0344498780    0.0202560250    0.0004616777    
0.0346725390    0.0203438860    0.0004541091    
0.0348952000    0.0204201070    0.0004528864    
0.0351178610    0.0205567780    0.0004564793    
0.0353405220    0.0200384480    0.0004486345    
0.0355631830    0.0202566420    0.0004493716    
0.0357858440    0.0198778390    0.0004451502    
0.0360085050    0.0201084620    0.0004490779    
0.0362311660    0.0202599340    0.0004454078    
0.0364538270    0.0199071170    0.0004379688    
0.0366764880    0.0206287230    0.0004455125    
0.0368991490    0.0198783470    0.0004351300    
0.0371218100    0.0210053950    0.0004460156    
0.0373444710    0.0209040680    0.0004497839    
0.0375671320    0.0195984220    0.0004348767    
0.0377897930    0.0201809330    0.0004298683    
0.0380124540    0.0204813310    0.0004357730    
0.0382351150    0.0199621260    0.0004302142    
0.0384577760    0.0208337120    0.0004352654    
0.0386804370    0.0207835840    0.0004380591    
0.0389030980    0.0198698050    0.0004250773    
0.0391257590    0.0202199220    0.0004258950    
0.0393484200    0.0208414330    0.0004309357    
0.0395710810    0.0202096730    0.0004249257    
0.0397937420    0.0207010820    0.0004300610    
0.0400164030    0.0195547930    0.0004196849    
0.0402390640    0.0207211300    0.0004262669    
0.0404617250    0.0205120300    0.0004216087    
0.0406843860    0.0201940760    0.0004142865    
0.0409070470    0.0207471610    0.0004242960    
0.0411297080    0.0202200280    0.0004148189    
0.0413523690    0.0198967030    0.0004125497    
0.0415750300    0.0190703650    0.0004073228    
0.0417976910    0.0204743380    0.0004111346    
0.0420203520    0.0197135160    0.0004049393    
0.0422430130    0.0204078320    0.0004135684    
0.0424656740    0.0204352300    0.0004084596    
0.0426883350    0.0201685860    0.0004078000    
0.0429109960    0.0197389040    0.0004046931    
0.0431336570    0.0199931130    0.0004015523    
0.0433563180    0.0195929120    0.0004009423    
0.0435789790    0.0193398200    0.0003920860    
0.0438016400    0.0201454560    0.0004023462    
0.0440243010    0.0200221780    0.0003970435    
0.0442469620    0.0205815680    0.0004049639    
0.0444696230    0.0198013390    0.0003957894    
0.0446922840    0.0201950770    0.0003985181    
0.0449149450    0.0202175690    0.0003934094    
0.0451376060    0.0194647500    0.0003907828    
0.0453602670    0.0195427390    0.0003874600    
0.0455829280    0.0203559530    0.0003949821    
0.0458055890    0.0195085210    0.0003889278    
0.0460282500    0.0201306460    0.0003903165    
0.0462509110    0.0202771400    0.0003892977    
0.0464735720    0.0203599030    0.0003903116    
0.0466962330    0.0197828120    0.0003864892    
0.0469188940    0.0197909350    0.0003854727    
0.0471415550    0.0195927290    0.0003855074    
0.0473642160    0.0196894640    0.0003810468    
0.0475868770    0.0196257430    0.0003785397    
0.0478095380    0.0203807540    0.0003840643    
0.0480321990    0.0204192760    0.0003852694    
0.0482548600    0.0201336440    0.0003808984    
0.0484775210    0.0196755110    0.0003802785    
0.0487001820    0.0198601280    0.0003764657    
0.0489228430    0.0196605760    0.0003743683    
0.0491455040    0.0204230100    0.0003789193    
0.0493681650    0.0207326190    0.0003850615    
0.0495908260    0.0196537000    0.0003686005    
0.0498134870    0.0198746700    0.0003741953    
0.0500361480    0.0205124920    0.0003791465    
0.0502588090    0.0198343990    0.0003672407    
0.0504814700    0.0197701780    0.0003714388    
0.0507041310    0.0195549660    0.0003650195    
0.0509267920    0.0205827260    0.0003760382    
0.0511494530    0.0193262300    0.0003619500    
0.0513721140    0.0200475550    0.0003718892    
0.0515947750    0.0200836950    0.0003672891    
0.0518174360    0.0205658220    0.0003694327    
0.0520400970    0.0193522860    0.0003558825    
0.0522627580    0.0197358640    0.0003624464    
0.0524854190    0.0194966100    0.0003631718    
0.0527080800    0.0199233460    0.0003699672    
0.0529307410    0.0195492090    0.0003681982    
0.0531534020    0.0195172750    0.0003665580    
0.0533760630    0.0194733980    0.0003672919    
0.0535987240    0.0197586730    0.0003682451    
0.0538213850    0.0198890900    0.0003737389    
0.0540440460    0.0204039020    0.0003767534    
0.0542667070    0.0198044930    0.0003737362    
0.0544893680    0.0197267570    0.0003732008    
0.0547120290    0.0197220300    0.0003705996    
0.0549346900    0.0200495260    0.0003738606    
0.0551573510    0.0195894760    0.0003738967    
0.0553800120    0.0201277550    0.0003757769    
0.0556026730    0.0201450780    0.0003837332    
0.0558253340    0.0204169690    0.0003895488    
0.0560479950    0.0199264460    0.0003848411    
0.0562706560    0.0198665730    0.0003879776    
0.0564933170    0.0192032190    0.0003847576    
0.0567159780    0.0202580820    0.0003904458    
0.0569386390    0.0197418620    0.0003914848    
0.0571613000    0.0190049160    0.0003758379    
0.0573839610    0.0199040230    0.0003814319    
0.0576066220    0.0202422300    0.0003857238    
0.0578292830    0.0201815070    0.0003838704    
0.0580519440    0.0197570160    0.0003812845    
0.0582746050    0.0198019630    0.0003800348    
0.0584972660    0.0205191960    0.0003853752    
0.0587199270    0.0202309780    0.0003793605    
0.0589425880    0.0196505080    0.0003716917    
0.0591652490    0.0200318400    0.0003774892    
0.0593879100    0.0206114460    0.0003800677    
0.0596105710    0.0203511840    0.0003772621    
0.0598332320    0.0197117920    0.0003744621    
0.0600558930    0.0196297950    0.0003712999    
0.0602785540    0.0204923920    0.0003789692    
0.0605012150    0.0199106320    0.0003727642    
0.0607238760    0.0197659220    0.0003687005    
0.0609465370    0.0195753590    0.0003698075    
0.0611691980    0.0202121450    0.0003763698    
0.0613918590    0.0196498150    0.0003670459    
0.0616145200    0.0196741390    0.0003699611    
0.0618371810    0.0193236880    0.0003630502    
0.0620598420    0.0200060420    0.0003697855    
0.0622825030    0.0200519190    0.0003758707    
0.0625051640    0.0198008520    0.0003682645    
0.0627278250    0.0192487430    0.0003623463    
0.0629504860    0.0197892780    0.0003644119    
0.0631731470    0.0201375510    0.0003721527    
0.0633958080    0.0201682590    0.0003745797    
0.0636184690    0.0196468310    0.0003748549    
0.0638411300    0.0199042220    0.0003758860    
0.0640637910    0.0203723610    0.0003829554    
0.0642864520    0.0195245230    0.0003740907    
0.0645091130    0.0197077490    0.0003791354    
0.0647317740    0.0195319330    0.0003778566    
0.0649544350    0.0199776640    0.0003817233    
0.0651770960    0.0201210240    0.0003810007    
0.0653997570    0.0202062440    0.0003809787    
0.0656224180    0.0192192650    0.0003723657    
0.0658450790    0.0197570690    0.0003721131    
0.0660677400    0.0201588500    0.0003774774    
0.0662904010    0.0198396110    0.0003789471    
0.0665130620    0.0197539680    0.0003764881    
0.0667357230    0.0197268020    0.0003829184    
0.0669583840    0.0197500670    0.0003818622    
0.0671810450    0.0196348060    0.0003786441    
0.0674037060    0.0195203770    0.0003839352    
0.0676263670    0.0196895060    0.0003827718    
0.0678490280    0.0196625780    0.0003801706    
0.0680716890    0.0195729880    0.0003801476    
0.0682943500    0.0189732470    0.0003701789    
0.0685170110    0.0196853130    0.0003732190    
0.0687396720    0.0196793880    0.0003721714    
0.0689623330    0.0201703190    0.0003755910    
0.0691849940    0.0196849470    0.0003736152    
0.0694076550    0.0189130830    0.0003660216    
0.0696303160    0.0191585950    0.0003654730    
0.0698529770    0.0195851860    0.0003687450    
0.0700756380    0.0194576930    0.0003628247    
0.0702982990    0.0195588550    0.0003677282    
0.0705209600    0.0196794960    0.0003661975    
0.0707436210    0.0195464210    0.0003632812    
0.0709662820    0.0203194380    0.0003748106    
0.0711889430    0.0192230630    0.0003600810    
0.0714116040    0.0200330600    0.0003683394    
0.0716342650    0.0197565100    0.0003643030    
0.0718569260    0.0202573870    0.0003674063    
0.0720795870    0.0201797720    0.0003681852    
0.0723022480    0.0197831290    0.0003651043    
0.0725249090    0.0195160350    0.0003582885    
0.0727475700    0.0193022220    0.0003593639    
0.0729702310    0.0197988360    0.0003610547    
0.0731928920    0.0189950490    0.0003550631    
0.0734155530    0.0197522460    0.0003613484    
0.0736382140    0.0195452180    0.0003571430    
0.0738608750    0.0203009730    0.0003663338    
0.0740835360    0.0198319460    0.0003611783    
0.0743061970    0.0195203300    0.0003532838    
0.0745288580    0.0199760360    0.0003610586    
0.0747515190    0.0197077740    0.0003593343    
0.0749741800    0.0197690610    0.0003565612    
0.0751968410    0.0201264450    0.0003625945    
0.0754195020    0.0193554460    0.0003534983    
0.0756421630    0.0195229720    0.0003521227    
0.0758648240    0.0205167520    0.0003618413    
0.0760874850    0.0199423880    0.0003565692    
0.0763101460    0.0192487270    0.0003499769    
0.0765328070    0.0195017920    0.0003558745    
0.0767554680    0.0198017770    0.0003561678    
0.0769781290    0.0199041580    0.0003550354    
0.0772007900    0.0201532500    0.0003543848    
0.0774234510    0.0199797860    0.0003548634    
0.0776461120    0.0195392890    0.0003505969    
0.0778687730    0.0193541600    0.0003477793    
0.0780914340    0.0199676960    0.0003557728    
0.0783140950    0.0196829180    0.0003476224    
0.0785367560    0.0196508040    0.0003529389    
0.0787594170    0.0199041640    0.0003520243    
0.0789820780    0.0192385420    0.0003443148    
0.0792047390    0.0200406310    0.0003525680    
0.0794274000    0.0201920500    0.0003553969    
0.0796500610    0.0188368160    0.0003399129    
0.0798727220    0.0198306280    0.0003484424    
0.0800953830    0.0194287120    0.0003441002    
0.0803180440    0.0199351660    0.0003509843    
0.0805407050    0.0192936380    0.0003449695    
0.0807633660    0.0199843150    0.0003507640    
0.0809860270    0.0195130990    0.0003453240    
0.0812086880    0.0194956240    0.0003421865    
0.0814313490    0.0196314310    0.0003449423    
0.0816540100    0.0197291800    0.0003450128    
0.0818766710    0.0200012080    0.0003481763    
0.0820993320    0.0195418830    0.0003435280    
0.0823219930    0.0196486150    0.0003458856    
0.0825446540    0.0200362120    0.0003467428    
0.0827673150    0.0196909350    0.0003414328    
0.0829899760    0.0192315400    0.0003368257    
0.0832126370    0.0194994390    0.0003406828    
0.0834352980    0.0193649340    0.0003387466    
0.0836579590    0.0195442870    0.0003395542    
0.0838806200    0.0200467160    0.0003449671    
0.0841032810    0.0195347730    0.0003384199    
0.0843259420    0.0197875520    0.0003395535    
0.0845486030    0.0192282150    0.0003347203    
0.0847712640    0.0195356250    0.0003353292    
0.0849939250    0.0194824270    0.0003354555    
0.0852165860    0.0196435340    0.0003372809    
0.0854392470    0.0191709730    0.0003300438    
0.0856619080    0.0201001880    0.0003404367    
0.0858845690    0.0198473430    0.0003352420    
0.0861072300    0.0197548890    0.0003367691    
0.0863298910    0.0196780550    0.0003378736    
0.0865525520    0.0192484580    0.0003312796    
0.0867752130    0.0194047030    0.0003299375    
0.0869978740    0.0187820020    0.0003254277    
0.0872205350    0.0198928270    0.0003344868    
0.0874431960    0.0196003990    0.0003320194    
0.0876658570    0.0188614060    0.0003269508    
0.0878885180    0.0193981560    0.0003321388    
0.0881111790    0.0196263490    0.0003336580    
0.0883338400    0.0189897570    0.0003233968    
0.0885565010    0.0189028890    0.0003270318    
0.0887791620    0.0190882830    0.0003243700    
0.0890018230    0.0197469690    0.0003331191    
0.0892244840    0.0194927640    0.0003315307    
0.0894471450    0.0196806770    0.0003317177    
0.0896698060    0.0193993090    0.0003280957    
0.0898924670    0.0197139840    0.0003322791    
0.0901151280    0.0194931770    0.0003268441    
0.0903377890    0.0189626840    0.0003250640    
0.0905604500    0.0193798150    0.0003271117    
0.0907831110    0.0195252400    0.0003275199    
0.0910057720    0.0191115990    0.0003255190    
0.0912284330    0.0198880070    0.0003273109    
0.0914510940    0.0198879190    0.0003309601    
0.0916737550    0.0194111930    0.0003261579    
0.0918964160    0.0196061410    0.0003291549    
0.0921190770    0.0198067000    0.0003278428    
0.0923417380    0.0196328710    0.0003265349    
0.0925643990    0.0195747290    0.0003252532    
0.0927870600    0.0197138110    0.0003277452    
0.0930097210    0.0199418620    0.0003268280    
0.0932323820    0.0190294540    0.0003216105    
