# Diamond Light Source Ltd.
# Data extracted from: /dls/b21/data/2018/cm19678-3/processed/b21-386631_00337.dat
q(1/A)          Column          Error           
0.0035000000    2.1037404000    0.0246224190    
0.0037226610    1.8183427000    0.0224094310    
0.0039453220    1.6182009000    0.0192316170    
0.0041679830    1.2958950000    0.0141334860    
0.0043906440    0.9735029300    0.0117170510    
0.0046133050    0.7942173900    0.0101597550    
0.0048359660    0.5913075500    0.0082921652    
0.0050586270    0.4576846700    0.0071706060    
0.0052812880    0.4209928600    0.0065022565    
0.0055039490    0.3778089900    0.0058569759    
0.0057266100    0.3129713600    0.0051570785    
0.0059492710    0.2680184000    0.0047723663    
0.0061719320    0.2172323500    0.0041402007    
0.0063945930    0.1906020500    0.0039251447    
0.0066172539    0.1822407300    0.0036039610    
0.0068399149    0.1621845600    0.0033463241    
0.0070625759    0.1471738300    0.0031550130    
0.0072852369    0.1252145600    0.0028665904    
0.0075078979    0.1167089200    0.0027539173    
0.0077305589    0.0988607630    0.0024863257    
0.0079532199    0.0969303610    0.0024278154    
0.0081758809    0.0892643970    0.0023515070    
0.0083985419    0.0810477310    0.0020898588    
0.0086212029    0.0759283720    0.0020227797    
0.0088438639    0.0724334140    0.0019598084    
0.0090665249    0.0651941990    0.0017957722    
0.0092891859    0.0635880200    0.0018511188    
0.0095118469    0.0584082840    0.0017061242    
0.0097345079    0.0561285430    0.0016243575    
0.0099571689    0.0563175480    0.0015935383    
0.0101798300    0.0520339970    0.0015317373    
0.0104024910    0.0493535810    0.0014867155    
0.0106251520    0.0493286080    0.0014913865    
0.0108478130    0.0478516960    0.0014304817    
0.0110704740    0.0426766420    0.0012861647    
0.0112931350    0.0413681010    0.0012700122    
0.0115157960    0.0428139030    0.0012844813    
0.0117384570    0.0381408820    0.0012019212    
0.0119611180    0.0389695850    0.0012183946    
0.0121837790    0.0390699050    0.0011994570    
0.0124064400    0.0361510750    0.0011056874    
0.0126291010    0.0346582260    0.0010690671    
0.0128517620    0.0349309500    0.0010759450    
0.0130744230    0.0323903400    0.0010283943    
0.0132970840    0.0326240060    0.0010270503    
0.0135197450    0.0300628090    0.0009717926    
0.0137424060    0.0322249990    0.0009921256    
0.0139650670    0.0315061890    0.0009591470    
0.0141877280    0.0318802340    0.0009669560    
0.0144103890    0.0288358280    0.0009037713    
0.0146330500    0.0286386300    0.0008949572    
0.0148557110    0.0284544500    0.0008883345    
0.0150783720    0.0279042410    0.0008724336    
0.0153010330    0.0289523350    0.0008761375    
0.0155236940    0.0286090350    0.0008657488    
0.0157463550    0.0274997950    0.0008340934    
0.0159690160    0.0263122930    0.0008127894    
0.0161916770    0.0267614080    0.0008150788    
0.0164143380    0.0260847200    0.0008108042    
0.0166369990    0.0259213610    0.0007833408    
0.0168596600    0.0255131220    0.0007703007    
0.0170823210    0.0259646400    0.0007703590    
0.0173049820    0.0259856850    0.0007720034    
0.0175276430    0.0259979300    0.0007803282    
0.0177503040    0.0250452000    0.0007463719    
0.0179729650    0.0237005520    0.0007188590    
0.0181956260    0.0246883480    0.0007196210    
0.0184182870    0.0244769560    0.0007131563    
0.0186409480    0.0247667400    0.0007219059    
0.0188636090    0.0234380510    0.0006978578    
0.0190862700    0.0231576800    0.0006925867    
0.0193089310    0.0239321530    0.0007029753    
0.0195315920    0.0244515670    0.0006863978    
0.0197542530    0.0228609510    0.0006646637    
0.0199769140    0.0237305650    0.0006771874    
0.0201995750    0.0231991480    0.0006590773    
0.0204222360    0.0219420590    0.0006464741    
0.0206448970    0.0235089870    0.0006644033    
0.0208675580    0.0240097030    0.0006576150    
0.0210902190    0.0233001670    0.0006540760    
0.0213128800    0.0228150680    0.0006384492    
0.0215355410    0.0223444920    0.0006243037    
0.0217582020    0.0218735390    0.0006176896    
0.0219808630    0.0222336700    0.0006219361    
0.0222035240    0.0227892250    0.0006239527    
0.0224261850    0.0219994200    0.0006075890    
0.0226488460    0.0219512630    0.0006023660    
0.0228715070    0.0217107520    0.0005975688    
0.0230941680    0.0233719630    0.0006200092    
0.0233168290    0.0222157630    0.0006059846    
0.0235394900    0.0223101110    0.0006005680    
0.0237621510    0.0221966180    0.0005829117    
0.0239848120    0.0226776250    0.0005898755    
0.0242074730    0.0212440170    0.0005663561    
0.0244301340    0.0223669920    0.0005817955    
0.0246527950    0.0215345300    0.0005761521    
0.0248754560    0.0211371790    0.0005579831    
0.0250981170    0.0210540040    0.0005581260    
0.0253207780    0.0217232930    0.0005500008    
0.0255434390    0.0217343000    0.0005560118    
0.0257661000    0.0207012090    0.0005443918    
0.0259887610    0.0214266840    0.0005479630    
0.0262114220    0.0211315710    0.0005470756    
0.0264340830    0.0212357000    0.0005409601    
0.0266567440    0.0215729490    0.0005418697    
0.0268794050    0.0209247190    0.0005314884    
0.0271020660    0.0210368460    0.0005307531    
0.0273247270    0.0212612110    0.0005303714    
0.0275473880    0.0212425730    0.0005290840    
0.0277700490    0.0201978100    0.0005128595    
0.0279927100    0.0201412050    0.0005076719    
0.0282153710    0.0214228810    0.0005261210    
0.0284380320    0.0207026800    0.0005142036    
0.0286606930    0.0205004500    0.0005073064    
0.0288833540    0.0211328800    0.0005160504    
0.0291060150    0.0211305230    0.0005155320    
0.0293286760    0.0204112150    0.0004996210    
0.0295513370    0.0207468120    0.0004982265    
0.0297739980    0.0212428510    0.0005096980    
0.0299966590    0.0207715310    0.0004954035    
0.0302193200    0.0220746010    0.0005181489    
0.0304419810    0.0207032720    0.0005027199    
0.0306646420    0.0211765160    0.0004940830    
0.0308873030    0.0204682650    0.0004836523    
0.0311099640    0.0211031370    0.0004923710    
0.0313326250    0.0198966730    0.0004727932    
0.0315552860    0.0198508660    0.0004783688    
0.0317779470    0.0208901270    0.0004911587    
0.0320006080    0.0209773530    0.0004810004    
0.0322232690    0.0205416600    0.0004779716    
0.0324459300    0.0204661730    0.0004735308    
0.0326685910    0.0203550710    0.0004714652    
0.0328912520    0.0201163620    0.0004702447    
0.0331139130    0.0207957450    0.0004718999    
0.0333365740    0.0205645600    0.0004707932    
0.0335592350    0.0204247150    0.0004646784    
0.0337818960    0.0200016700    0.0004594747    
0.0340045570    0.0207483370    0.0004672291    
0.0342272170    0.0197707640    0.0004542903    
0.0344498780    0.0206431480    0.0004660435    
0.0346725390    0.0203315700    0.0004539473    
0.0348952000    0.0198052800    0.0004459925    
0.0351178610    0.0207978230    0.0004591232    
0.0353405220    0.0207091980    0.0004560568    
0.0355631830    0.0200152440    0.0004466620    
0.0357858440    0.0209322900    0.0004567800    
0.0360085050    0.0198255200    0.0004458833    
0.0362311660    0.0197975810    0.0004402725    
0.0364538270    0.0194039860    0.0004323756    
0.0366764880    0.0205784080    0.0004449451    
0.0368991490    0.0204285980    0.0004410877    
0.0371218100    0.0206622440    0.0004423338    
0.0373444710    0.0206115240    0.0004466016    
0.0375671320    0.0205708300    0.0004455108    
0.0377897930    0.0204168130    0.0004323500    
0.0380124540    0.0198116400    0.0004285664    
0.0382351150    0.0197096750    0.0004274623    
0.0384577760    0.0203222850    0.0004298667    
0.0386804370    0.0199043110    0.0004286697    
0.0389030980    0.0200313440    0.0004267788    
0.0391257590    0.0207379980    0.0004312935    
0.0393484200    0.0204560930    0.0004269104    
0.0395710810    0.0205737790    0.0004287134    
0.0397937420    0.0196357790    0.0004188266    
0.0400164030    0.0205073650    0.0004297623    
0.0402390640    0.0202278980    0.0004211405    
0.0404617250    0.0197126600    0.0004132897    
0.0406843860    0.0201154260    0.0004134568    
0.0409070470    0.0188621890    0.0004045408    
0.0411297080    0.0190435910    0.0004025490    
0.0413523690    0.0192787440    0.0004060708    
0.0415750300    0.0196163600    0.0004130905    
0.0417976910    0.0203648290    0.0004100117    
0.0420203520    0.0197363530    0.0004051521    
0.0422430130    0.0198525550    0.0004078814    
0.0424656740    0.0201881370    0.0004059609    
0.0426883350    0.0200345090    0.0004064205    
0.0429109960    0.0198280460    0.0004055842    
0.0431336570    0.0189668250    0.0003910893    
0.0433563180    0.0204932360    0.0004100288    
0.0435789790    0.0195523460    0.0003942133    
0.0438016400    0.0197897640    0.0003987571    
0.0440243010    0.0196106560    0.0003929210    
0.0442469620    0.0196631300    0.0003958039    
0.0444696230    0.0195698210    0.0003934477    
0.0446922840    0.0200985530    0.0003975432    
0.0449149450    0.0195647730    0.0003869852    
0.0451376060    0.0202941990    0.0003990007    
0.0453602670    0.0199093350    0.0003910563    
0.0455829280    0.0195261320    0.0003868268    
0.0458055890    0.0199948650    0.0003937248    
0.0460282500    0.0201057860    0.0003900545    
0.0462509110    0.0202002340    0.0003885379    
0.0464735720    0.0201557150    0.0003883286    
0.0466962330    0.0199618880    0.0003882137    
0.0469188940    0.0198488700    0.0003860158    
0.0471415550    0.0198560850    0.0003880689    
0.0473642160    0.0200781510    0.0003847688    
0.0475868770    0.0193462220    0.0003758142    
0.0478095380    0.0200456800    0.0003808736    
0.0480321990    0.0194576510    0.0003760679    
0.0482548600    0.0189858500    0.0003698620    
0.0484775210    0.0200702500    0.0003840537    
0.0487001820    0.0197010190    0.0003749346    
0.0489228430    0.0196798520    0.0003745317    
0.0491455040    0.0205192340    0.0003797905    
0.0493681650    0.0197936310    0.0003762205    
0.0495908260    0.0202253120    0.0003739022    
0.0498134870    0.0202036310    0.0003772592    
0.0500361480    0.0199847480    0.0003742173    
0.0502588090    0.0195603180    0.0003646750    
0.0504814700    0.0197331700    0.0003710711    
0.0507041310    0.0198526350    0.0003677675    
0.0509267920    0.0198798480    0.0003695420    
0.0511494530    0.0193648270    0.0003622918    
0.0513721140    0.0195763460    0.0003674730    
0.0515947750    0.0202427310    0.0003687207    
0.0518174360    0.0195815530    0.0003604645    
0.0520400970    0.0194156500    0.0003564455    
0.0522627580    0.0196938150    0.0003620407    
0.0524854190    0.0198327310    0.0003662693    
0.0527080800    0.0196533040    0.0003674317    
0.0529307410    0.0202266510    0.0003745034    
0.0531534020    0.0202242000    0.0003731174    
0.0533760630    0.0202471150    0.0003744973    
0.0535987240    0.0194271650    0.0003651232    
0.0538213850    0.0196552240    0.0003715152    
0.0540440460    0.0194348420    0.0003676781    
0.0542667070    0.0191324180    0.0003673203    
0.0544893680    0.0195975690    0.0003719568    
0.0547120290    0.0194831660    0.0003683288    
0.0549346900    0.0198173480    0.0003716696    
0.0551573510    0.0197158170    0.0003750804    
0.0553800120    0.0201887310    0.0003763255    
0.0556026730    0.0199455820    0.0003818079    
0.0558253340    0.0196121600    0.0003817735    
0.0560479950    0.0201992810    0.0003874460    
0.0562706560    0.0196447370    0.0003857847    
0.0564933170    0.0201955200    0.0003945521    
0.0567159780    0.0194733640    0.0003827885    
0.0569386390    0.0197707960    0.0003917506    
0.0571613000    0.0196568680    0.0003822095    
0.0573839610    0.0194633610    0.0003771657    
0.0576066220    0.0195198260    0.0003787581    
0.0578292830    0.0196609890    0.0003788673    
0.0580519440    0.0194532400    0.0003783217    
0.0582746050    0.0197269120    0.0003792936    
0.0584972660    0.0200972480    0.0003813719    
0.0587199270    0.0198447180    0.0003757014    
0.0589425880    0.0202459370    0.0003772608    
0.0591652490    0.0194748930    0.0003721846    
0.0593879100    0.0196071550    0.0003706728    
0.0596105710    0.0189574380    0.0003640951    
0.0598332320    0.0199941920    0.0003771147    
0.0600558930    0.0199156100    0.0003739732    
0.0602785540    0.0200066710    0.0003744310    
0.0605012150    0.0195944830    0.0003697731    
0.0607238760    0.0193030600    0.0003643384    
0.0609465370    0.0195523040    0.0003695698    
0.0611691980    0.0188785300    0.0003637218    
0.0613918590    0.0199356370    0.0003696859    
0.0616145200    0.0192963970    0.0003663726    
0.0618371810    0.0188237420    0.0003583038    
0.0620598420    0.0201405830    0.0003710069    
0.0622825030    0.0198384220    0.0003738443    
0.0625051640    0.0192577050    0.0003631591    
0.0627278250    0.0194308250    0.0003640366    
0.0629504860    0.0193510200    0.0003603348    
0.0631731470    0.0199084560    0.0003700098    
0.0633958080    0.0201591410    0.0003744750    
0.0636184690    0.0197519950    0.0003758367    
0.0638411300    0.0197388400    0.0003743011    
0.0640637910    0.0193120790    0.0003728367    
0.0642864520    0.0193002580    0.0003719161    
0.0645091130    0.0196691710    0.0003787438    
0.0647317740    0.0196102380    0.0003785930    
0.0649544350    0.0197421460    0.0003794462    
0.0651770960    0.0192748690    0.0003728835    
0.0653997570    0.0198234110    0.0003773322    
0.0656224180    0.0196933060    0.0003769097    
0.0658450790    0.0200773080    0.0003750966    
0.0660677400    0.0199870680    0.0003758455    
0.0662904010    0.0192295490    0.0003730554    
0.0665130620    0.0200747100    0.0003795119    
0.0667357230    0.0198733280    0.0003843173    
0.0669583840    0.0196815080    0.0003811784    
0.0671810450    0.0206183510    0.0003879909    
0.0674037060    0.0200921290    0.0003894965    
0.0676263670    0.0200370960    0.0003861149    
0.0678490280    0.0195722740    0.0003792763    
0.0680716890    0.0197849810    0.0003821802    
0.0682943500    0.0197583690    0.0003777401    
0.0685170110    0.0195912250    0.0003723061    
0.0687396720    0.0195787510    0.0003711987    
0.0689623330    0.0193080030    0.0003674550    
0.0691849940    0.0197182880    0.0003739114    
0.0694076550    0.0195485070    0.0003720995    
0.0696303160    0.0199024470    0.0003724804    
0.0698529770    0.0188819550    0.0003620450    
0.0700756380    0.0192458970    0.0003608253    
0.0702982990    0.0192595010    0.0003648837    
0.0705209600    0.0194593540    0.0003641240    
0.0707436210    0.0194295570    0.0003621742    
0.0709662820    0.0191489650    0.0003638358    
0.0711889430    0.0197065860    0.0003645619    
0.0714116040    0.0201460320    0.0003693567    
0.0716342650    0.0206074380    0.0003720457    
0.0718569260    0.0198354520    0.0003635404    
0.0720795870    0.0193514280    0.0003605300    
0.0723022480    0.0197068960    0.0003643806    
0.0725249090    0.0192574400    0.0003558877    
0.0727475700    0.0199691350    0.0003654998    
0.0729702310    0.0192897810    0.0003563637    
0.0731928920    0.0193314620    0.0003581743    
0.0734155530    0.0186264600    0.0003508810    
0.0736382140    0.0193669410    0.0003554914    
0.0738608750    0.0197964490    0.0003617336    
0.0740835360    0.0189616480    0.0003531456    
0.0743061970    0.0195502030    0.0003535351    
0.0745288580    0.0197128830    0.0003586533    
0.0747515190    0.0196663550    0.0003589373    
0.0749741800    0.0193103860    0.0003523816    
0.0751968410    0.0193600740    0.0003556050    
0.0754195020    0.0196825970    0.0003564542    
0.0756421630    0.0195780330    0.0003526000    
0.0758648240    0.0197871310    0.0003553301    
0.0760874850    0.0197617570    0.0003549316    
0.0763101460    0.0195266150    0.0003524751    
0.0765328070    0.0198828120    0.0003593149    
0.0767554680    0.0195690530    0.0003540497    
0.0769781290    0.0189015400    0.0003459593    
0.0772007900    0.0192662860    0.0003464801    
0.0774234510    0.0198957170    0.0003540970    
0.0776461120    0.0192918780    0.0003483514    
0.0778687730    0.0196957610    0.0003508162    
0.0780914340    0.0192620080    0.0003494107    
0.0783140950    0.0200245770    0.0003506076    
0.0785367560    0.0193698130    0.0003503876    
0.0787594170    0.0196032200    0.0003493342    
0.0789820780    0.0196677900    0.0003481161    
0.0792047390    0.0194492980    0.0003473089    
0.0794274000    0.0197895900    0.0003518184    
0.0796500610    0.0193009130    0.0003440563    
0.0798727220    0.0199754250    0.0003496934    
0.0800953830    0.0194022550    0.0003438473    
0.0803180440    0.0195005080    0.0003471182    
0.0805407050    0.0197171180    0.0003487162    
0.0807633660    0.0195881920    0.0003472516    
0.0809860270    0.0194743440    0.0003449624    
0.0812086880    0.0194274750    0.0003415696    
0.0814313490    0.0197202310    0.0003457031    
0.0816540100    0.0190152010    0.0003386942    
0.0818766710    0.0190415320    0.0003397025    
0.0820993320    0.0199141600    0.0003467661    
0.0823219930    0.0190985740    0.0003409916    
0.0825446540    0.0194040630    0.0003412107    
0.0827673150    0.0198841740    0.0003430856    
0.0829899760    0.0198842240    0.0003424753    
0.0832126370    0.0194675910    0.0003403862    
0.0834352980    0.0197479820    0.0003420622    
0.0836579590    0.0198371230    0.0003420702    
0.0838806200    0.0191304820    0.0003369735    
0.0841032810    0.0201071700    0.0003433238    
0.0843259420    0.0194416910    0.0003365549    
0.0845486030    0.0192552840    0.0003349378    
0.0847712640    0.0198040300    0.0003376069    
0.0849939250    0.0192608740    0.0003335248    
0.0852165860    0.0198383050    0.0003389307    
0.0854392470    0.0194586660    0.0003324932    
0.0856619080    0.0197751730    0.0003376550    
0.0858845690    0.0193073280    0.0003306321    
0.0861072300    0.0192590960    0.0003324985    
0.0863298910    0.0192698970    0.0003343333    
0.0865525520    0.0191152730    0.0003301138    
0.0867752130    0.0190941100    0.0003272688    
0.0869978740    0.0193663350    0.0003304335    
0.0872205350    0.0198119640    0.0003337884    
0.0874431960    0.0193621060    0.0003299773    
0.0876658570    0.0199870930    0.0003365479    
0.0878885180    0.0190378370    0.0003290219    
0.0881111790    0.0192158800    0.0003301327    
0.0883338400    0.0200615620    0.0003323802    
0.0885565010    0.0192346400    0.0003298713    
0.0887791620    0.0195381770    0.0003281527    
0.0890018230    0.0195481900    0.0003314205    
0.0892244840    0.0195245030    0.0003317827    
0.0894471450    0.0191530590    0.0003272235    
0.0896698060    0.0197467790    0.0003310033    
0.0898924670    0.0195046720    0.0003304927    
0.0901151280    0.0194636890    0.0003265793    
0.0903377890    0.0191055170    0.0003262684    
0.0905604500    0.0193280510    0.0003266570    
0.0907831110    0.0189463510    0.0003226109    
0.0910057720    0.0196971950    0.0003304508    
0.0912284330    0.0194172750    0.0003233967    
0.0914510940    0.0189551030    0.0003230879    
0.0916737550    0.0199022860    0.0003302403    
0.0918964160    0.0194493280    0.0003278184    
0.0921190770    0.0195658360    0.0003258259    
0.0923417380    0.0196307660    0.0003264999    
0.0925643990    0.0198212060    0.0003272769    
0.0927870600    0.0192485980    0.0003238376    
0.0930097210    0.0195808840    0.0003238390    
0.0932323820    0.0191089370    0.0003222642    
