# Diamond Light Source Ltd.
# Data extracted from: /dls/b21/data/2018/cm19678-3/processed/b21-386631_00345.dat
q(1/A)          Column          Error           
0.0035000000    2.0764808000    0.0244681630    
0.0037226610    1.9029243000    0.0229301270    
0.0039453220    1.6358882000    0.0193410100    
0.0041679830    1.2718335000    0.0140049730    
0.0043906440    0.9767855700    0.0117395670    
0.0046133050    0.7700182600    0.0100061460    
0.0048359660    0.5961246800    0.0083278432    
0.0050586270    0.4795937300    0.0073419628    
0.0052812880    0.4191826200    0.0064897971    
0.0055039490    0.3838016200    0.0059046403    
0.0057266100    0.3101438800    0.0051349451    
0.0059492710    0.2703557200    0.0047942646    
0.0061719320    0.2217560800    0.0041840770    
0.0063945930    0.1992645200    0.0040142982    
0.0066172539    0.1826835100    0.0036091904    
0.0068399149    0.1684091600    0.0034107419    
0.0070625759    0.1464991500    0.0031485179    
0.0072852369    0.1280970800    0.0029000842    
0.0075078979    0.1138385600    0.0027204848    
0.0077305589    0.0993454760    0.0024930033    
0.0079532199    0.0999573160    0.0024660155    
0.0081758809    0.0907940580    0.0023721307    
0.0083985419    0.0804391290    0.0020824901    
0.0086212029    0.0781208550    0.0020522620    
0.0088438639    0.0761282190    0.0020096467    
0.0090665249    0.0665612300    0.0018149313    
0.0092891859    0.0609224350    0.0018123331    
0.0095118469    0.0614773910    0.0017507893    
0.0097345079    0.0553085500    0.0016128301    
0.0099571689    0.0527352880    0.0015423895    
0.0101798300    0.0502090560    0.0015049930    
0.0104024910    0.0487048410    0.0014772614    
0.0106251520    0.0464648210    0.0014477903    
0.0108478130    0.0483021770    0.0014375393    
0.0110704740    0.0447909650    0.0013179515    
0.0112931350    0.0415827220    0.0012736037    
0.0115157960    0.0409835470    0.0012570221    
0.0117384570    0.0408493850    0.0012441597    
0.0119611180    0.0383782460    0.0012094012    
0.0121837790    0.0380936890    0.0011846574    
0.0124064400    0.0365741890    0.0011124023    
0.0126291010    0.0370500570    0.0011056025    
0.0128517620    0.0353785240    0.0010830724    
0.0130744230    0.0350190320    0.0010695639    
0.0132970840    0.0325747500    0.0010265175    
0.0135197450    0.0328741720    0.0010164569    
0.0137424060    0.0308039560    0.0009702334    
0.0139650670    0.0311413300    0.0009538027    
0.0141877280    0.0309857060    0.0009535192    
0.0144103890    0.0291612100    0.0009090711    
0.0146330500    0.0301351590    0.0009182600    
0.0148557110    0.0288563690    0.0008947980    
0.0150783720    0.0274808120    0.0008659939    
0.0153010330    0.0278519600    0.0008595302    
0.0155236940    0.0274692850    0.0008485291    
0.0157463550    0.0271837710    0.0008294832    
0.0159690160    0.0278821270    0.0008368823    
0.0161916770    0.0262773380    0.0008078645    
0.0164143380    0.0250632700    0.0007949586    
0.0166369990    0.0265020380    0.0007922536    
0.0168596600    0.0248736890    0.0007607664    
0.0170823210    0.0256339240    0.0007656183    
0.0173049820    0.0249195160    0.0007561791    
0.0175276430    0.0259165050    0.0007792896    
0.0177503040    0.0246787500    0.0007410669    
0.0179729650    0.0249551660    0.0007378149    
0.0181956260    0.0258332550    0.0007362920    
0.0184182870    0.0240104110    0.0007064942    
0.0186409480    0.0257889690    0.0007368277    
0.0188636090    0.0247380160    0.0007171193    
0.0190862700    0.0248265040    0.0007172774    
0.0193089310    0.0230344960    0.0006898287    
0.0195315920    0.0230366060    0.0006663993    
0.0197542530    0.0221370910    0.0006542110    
0.0199769140    0.0229297810    0.0006658211    
0.0201995750    0.0225544750    0.0006500092    
0.0204222360    0.0229624090    0.0006614910    
0.0206448970    0.0219233010    0.0006417569    
0.0208675580    0.0225974630    0.0006381326    
0.0210902190    0.0216395500    0.0006304862    
0.0213128800    0.0218427640    0.0006248445    
0.0215355410    0.0220758480    0.0006206863    
0.0217582020    0.0225470410    0.0006272754    
0.0219808630    0.0216175970    0.0006134040    
0.0222035240    0.0225265480    0.0006204931    
0.0224261850    0.0218755240    0.0006060190    
0.0226488460    0.0213663060    0.0005944265    
0.0228715070    0.0211450920    0.0005898723    
0.0230941680    0.0216223050    0.0005964916    
0.0233168290    0.0213167200    0.0005937367    
0.0235394900    0.0211722890    0.0005851915    
0.0237621510    0.0205071300    0.0005604213    
0.0239848120    0.0222892400    0.0005849409    
0.0242074730    0.0212087550    0.0005660198    
0.0244301340    0.0224835620    0.0005834476    
0.0246527950    0.0208815710    0.0005674843    
0.0248754560    0.0216777050    0.0005652063    
0.0250981170    0.0214192300    0.0005630793    
0.0253207780    0.0217753700    0.0005507900    
0.0255434390    0.0217730490    0.0005566389    
0.0257661000    0.0210690820    0.0005493375    
0.0259887610    0.0212125030    0.0005453464    
0.0262114220    0.0225727380    0.0005655570    
0.0264340830    0.0204461060    0.0005309334    
0.0266567440    0.0216512460    0.0005429806    
0.0268794050    0.0217179830    0.0005415973    
0.0271020660    0.0206716850    0.0005262510    
0.0273247270    0.0206491520    0.0005228052    
0.0275473880    0.0215031230    0.0005324448    
0.0277700490    0.0217056600    0.0005317843    
0.0279927100    0.0202147500    0.0005087182    
0.0282153710    0.0212778960    0.0005244617    
0.0284380320    0.0209041430    0.0005168217    
0.0286606930    0.0209120670    0.0005124953    
0.0288833540    0.0203990360    0.0005071313    
0.0291060150    0.0207126810    0.0005105301    
0.0293286760    0.0204208760    0.0004998575    
0.0295513370    0.0211875650    0.0005036101    
0.0297739980    0.0214119660    0.0005118439    
0.0299966590    0.0213133090    0.0005019414    
0.0302193200    0.0202111660    0.0004959142    
0.0304419810    0.0201146390    0.0004956390    
0.0306646420    0.0205176120    0.0004864507    
0.0308873030    0.0210153420    0.0004901892    
0.0311099640    0.0210441660    0.0004917989    
0.0313326250    0.0203894120    0.0004787249    
0.0315552860    0.0203215920    0.0004841220    
0.0317779470    0.0200912800    0.0004817900    
0.0320006080    0.0209872820    0.0004812281    
0.0322232690    0.0207071590    0.0004800067    
0.0324459300    0.0207389330    0.0004767886    
0.0326685910    0.0200806480    0.0004683872    
0.0328912520    0.0208077430    0.0004783705    
0.0331139130    0.0203020540    0.0004663751    
0.0333365740    0.0207468240    0.0004729869    
0.0335592350    0.0200113100    0.0004600605    
0.0337818960    0.0207080950    0.0004676289    
0.0340045570    0.0202107830    0.0004612459    
0.0342272170    0.0214615370    0.0004734291    
0.0344498780    0.0193792170    0.0004516576    
0.0346725390    0.0201586700    0.0004521200    
0.0348952000    0.0199854700    0.0004481227    
0.0351178610    0.0195300040    0.0004450145    
0.0353405220    0.0194830940    0.0004424549    
0.0355631830    0.0200845520    0.0004475406    
0.0357858440    0.0199050610    0.0004455364    
0.0360085050    0.0201459210    0.0004495782    
0.0362311660    0.0201595980    0.0004443848    
0.0364538270    0.0198951260    0.0004379170    
0.0366764880    0.0203571450    0.0004426512    
0.0368991490    0.0195044910    0.0004310977    
0.0371218100    0.0191940980    0.0004264302    
0.0373444710    0.0197499580    0.0004372714    
0.0375671320    0.0198855380    0.0004381307    
0.0377897930    0.0199318440    0.0004272854    
0.0380124540    0.0201363730    0.0004321667    
0.0382351150    0.0204146410    0.0004351427    
0.0384577760    0.0207594650    0.0004345686    
0.0386804370    0.0200430420    0.0004302628    
0.0389030980    0.0193403520    0.0004194524    
0.0391257590    0.0194196660    0.0004174583    
0.0393484200    0.0205192570    0.0004276702    
0.0395710810    0.0192339250    0.0004146167    
0.0397937420    0.0199847050    0.0004226315    
0.0400164030    0.0198683110    0.0004231133    
0.0402390640    0.0196497350    0.0004151764    
0.0404617250    0.0201467720    0.0004179145    
0.0406843860    0.0200144170    0.0004125150    
0.0409070470    0.0210151670    0.0004271058    
0.0411297080    0.0193420540    0.0004057873    
0.0413523690    0.0191509550    0.0004048185    
0.0415750300    0.0200695060    0.0004179334    
0.0417976910    0.0202175510    0.0004086230    
0.0420203520    0.0197540160    0.0004054292    
0.0422430130    0.0193002160    0.0004022625    
0.0424656740    0.0195769780    0.0003998634    
0.0426883350    0.0199450090    0.0004056076    
0.0429109960    0.0199287340    0.0004067089    
0.0431336570    0.0201053140    0.0004027512    
0.0433563180    0.0200843410    0.0004060136    
0.0435789790    0.0201977500    0.0004007616    
0.0438016400    0.0199759800    0.0004007236    
0.0440243010    0.0200373840    0.0003972670    
0.0442469620    0.0194572200    0.0003938192    
0.0444696230    0.0201330590    0.0003991639    
0.0446922840    0.0198720550    0.0003953904    
0.0449149450    0.0196123240    0.0003875469    
0.0451376060    0.0200526560    0.0003967130    
0.0453602670    0.0196421090    0.0003885149    
0.0455829280    0.0195277070    0.0003869339    
0.0458055890    0.0201439480    0.0003952834    
0.0460282500    0.0199866010    0.0003889887    
0.0462509110    0.0199032460    0.0003857624    
0.0464735720    0.0195963760    0.0003829931    
0.0466962330    0.0198504810    0.0003872205    
0.0469188940    0.0197230730    0.0003848817    
0.0471415550    0.0195012570    0.0003846768    
0.0473642160    0.0197556880    0.0003817569    
0.0475868770    0.0199543000    0.0003817650    
0.0478095380    0.0199393260    0.0003799518    
0.0480321990    0.0197650080    0.0003791161    
0.0482548600    0.0202131010    0.0003817191    
0.0484775210    0.0194180220    0.0003778512    
0.0487001820    0.0196389550    0.0003744321    
0.0489228430    0.0203024470    0.0003805000    
0.0491455040    0.0195935750    0.0003712129    
0.0493681650    0.0190661110    0.0003693291    
0.0495908260    0.0197438810    0.0003695128    
0.0498134870    0.0201920500    0.0003772403    
0.0500361480    0.0198189420    0.0003727499    
0.0502588090    0.0198620660    0.0003675640    
0.0504814700    0.0199798670    0.0003734718    
0.0507041310    0.0196030210    0.0003655346    
0.0509267920    0.0195525000    0.0003665736    
0.0511494530    0.0201673970    0.0003698106    
0.0513721140    0.0190128120    0.0003622309    
0.0515947750    0.0201649600    0.0003680988    
0.0518174360    0.0194646860    0.0003594723    
0.0520400970    0.0200009720    0.0003618641    
0.0522627580    0.0192237090    0.0003577781    
0.0524854190    0.0199300950    0.0003672542    
0.0527080800    0.0193327200    0.0003645089    
0.0529307410    0.0195563650    0.0003683330    
0.0531534020    0.0195864020    0.0003672737    
0.0533760630    0.0201804660    0.0003739689    
0.0535987240    0.0204112670    0.0003743454    
0.0538213850    0.0195802200    0.0003708934    
0.0540440460    0.0196249800    0.0003695597    
0.0542667070    0.0196000790    0.0003718705    
0.0544893680    0.0199882460    0.0003757348    
0.0547120290    0.0198267810    0.0003716505    
0.0549346900    0.0196384330    0.0003700756    
0.0551573510    0.0190183850    0.0003684737    
0.0553800120    0.0197842140    0.0003726244    
0.0556026730    0.0195089780    0.0003776953    
0.0558253340    0.0200229420    0.0003858422    
0.0560479950    0.0200601380    0.0003862006    
0.0562706560    0.0197070930    0.0003864879    
0.0564933170    0.0196806720    0.0003895826    
0.0567159780    0.0197159510    0.0003852565    
0.0569386390    0.0204014380    0.0003980437    
0.0571613000    0.0199858870    0.0003854862    
0.0573839610    0.0195310710    0.0003779106    
0.0576066220    0.0197128850    0.0003807166    
0.0578292830    0.0201669820    0.0003838024    
0.0580519440    0.0196096670    0.0003799296    
0.0582746050    0.0197654340    0.0003797536    
0.0584972660    0.0196288900    0.0003769910    
0.0587199270    0.0191424940    0.0003690816    
0.0589425880    0.0197209990    0.0003724259    
0.0591652490    0.0191354180    0.0003690137    
0.0593879100    0.0200020340    0.0003744754    
0.0596105710    0.0194771260    0.0003691393    
0.0598332320    0.0198186340    0.0003755443    
0.0600558930    0.0199320620    0.0003742162    
0.0602785540    0.0194202130    0.0003689896    
0.0605012150    0.0202460460    0.0003759596    
0.0607238760    0.0196837170    0.0003680003    
0.0609465370    0.0197292890    0.0003713265    
0.0611691980    0.0191048050    0.0003659817    
0.0613918590    0.0200822470    0.0003711306    
0.0616145200    0.0203355300    0.0003761971    
0.0618371810    0.0200949850    0.0003702926    
0.0620598420    0.0202116530    0.0003717488    
0.0622825030    0.0198901010    0.0003744195    
0.0625051640    0.0194449630    0.0003650068    
0.0627278250    0.0191534370    0.0003615143    
0.0629504860    0.0195548550    0.0003623134    
0.0631731470    0.0189477850    0.0003610576    
0.0633958080    0.0196258400    0.0003695760    
0.0636184690    0.0191245730    0.0003699068    
0.0638411300    0.0202807650    0.0003794943    
0.0640637910    0.0190043610    0.0003699419    
0.0642864520    0.0201698190    0.0003802920    
0.0645091130    0.0192990660    0.0003752524    
0.0647317740    0.0204677740    0.0003868737    
0.0649544350    0.0197150080    0.0003792751    
0.0651770960    0.0193128610    0.0003733392    
0.0653997570    0.0191717000    0.0003711656    
0.0656224180    0.0199047060    0.0003790169    
0.0658450790    0.0193997230    0.0003688000    
0.0660677400    0.0199682440    0.0003757574    
0.0662904010    0.0198251510    0.0003788783    
0.0665130620    0.0198258020    0.0003772410    
0.0667357230    0.0195183910    0.0003809600    
0.0669583840    0.0192624410    0.0003771877    
0.0671810450    0.0193936370    0.0003763804    
0.0674037060    0.0196937140    0.0003857066    
0.0676263670    0.0197785970    0.0003837070    
0.0678490280    0.0194859460    0.0003785285    
0.0680716890    0.0199346780    0.0003837141    
0.0682943500    0.0192980940    0.0003734027    
0.0685170110    0.0186519720    0.0003633578    
0.0687396720    0.0196302640    0.0003717746    
0.0689623330    0.0195340310    0.0003696870    
0.0691849940    0.0190253430    0.0003673695    
0.0694076550    0.0200112730    0.0003765671    
0.0696303160    0.0195213020    0.0003689838    
0.0698529770    0.0196340260    0.0003692721    
0.0700756380    0.0194174390    0.0003625156    
0.0702982990    0.0196974220    0.0003690960    
0.0705209600    0.0195230980    0.0003648062    
0.0707436210    0.0187295570    0.0003556744    
0.0709662820    0.0201055560    0.0003729010    
0.0711889430    0.0197361550    0.0003649216    
0.0714116040    0.0194103200    0.0003626356    
0.0716342650    0.0198712630    0.0003654263    
0.0718569260    0.0199648300    0.0003648104    
0.0720795870    0.0200796370    0.0003673378    
0.0723022480    0.0196285960    0.0003637421    
0.0725249090    0.0190165110    0.0003537382    
0.0727475700    0.0193896040    0.0003602423    
0.0729702310    0.0195228580    0.0003585950    
0.0731928920    0.0196460250    0.0003611621    
0.0734155530    0.0193230230    0.0003574662    
0.0736382140    0.0197808640    0.0003593552    
0.0738608750    0.0195743650    0.0003597840    
0.0740835360    0.0193851740    0.0003571522    
0.0743061970    0.0195338720    0.0003534710    
0.0745288580    0.0195459480    0.0003572159    
0.0747515190    0.0199443850    0.0003615511    
0.0749741800    0.0196090290    0.0003551801    
0.0751968410    0.0191339830    0.0003536062    
0.0754195020    0.0201440070    0.0003606934    
0.0756421630    0.0189583200    0.0003470567    
0.0758648240    0.0194006940    0.0003519265    
0.0760874850    0.0194777320    0.0003524552    
0.0763101460    0.0196695330    0.0003538464    
0.0765328070    0.0191191420    0.0003524303    
0.0767554680    0.0198667030    0.0003568165    
0.0769781290    0.0195059930    0.0003515307    
0.0772007900    0.0200110120    0.0003531966    
0.0774234510    0.0195079140    0.0003507120    
0.0776461120    0.0193639410    0.0003490840    
0.0778687730    0.0193487410    0.0003477942    
0.0780914340    0.0197974500    0.0003543177    
0.0783140950    0.0195181560    0.0003462277    
0.0785367560    0.0196326320    0.0003528402    
0.0787594170    0.0195190750    0.0003486661    
0.0789820780    0.0202565630    0.0003533719    
0.0792047390    0.0194895280    0.0003477502    
0.0794274000    0.0193609270    0.0003480695    
0.0796500610    0.0191198320    0.0003425195    
0.0798727220    0.0194765300    0.0003453807    
0.0800953830    0.0195211760    0.0003449811    
0.0803180440    0.0195282840    0.0003474476    
0.0805407050    0.0196030450    0.0003477883    
0.0807633660    0.0195481930    0.0003469790    
0.0809860270    0.0200826790    0.0003503918    
0.0812086880    0.0190521420    0.0003383340    
0.0814313490    0.0197841330    0.0003463447    
0.0816540100    0.0192716600    0.0003410513    
0.0818766710    0.0194689050    0.0003435748    
0.0820993320    0.0191503230    0.0003401312    
0.0823219930    0.0198933580    0.0003480968    
0.0825446540    0.0194252520    0.0003414778    
0.0827673150    0.0192954150    0.0003380482    
0.0829899760    0.0198464240    0.0003422306    
0.0832126370    0.0194172610    0.0003400264    
0.0834352980    0.0192949610    0.0003381960    
0.0836579590    0.0203422330    0.0003464798    
0.0838806200    0.0198937160    0.0003437111    
0.0841032810    0.0196474930    0.0003394570    
0.0843259420    0.0193401440    0.0003357542    
0.0845486030    0.0196899050    0.0003387769    
0.0847712640    0.0191109240    0.0003317249    
0.0849939250    0.0192179880    0.0003332321    
0.0852165860    0.0195058930    0.0003361586    
0.0854392470    0.0193144070    0.0003313368    
0.0856619080    0.0193692310    0.0003342505    
0.0858845690    0.0194071010    0.0003315637    
0.0861072300    0.0197621200    0.0003368924    
0.0863298910    0.0198825760    0.0003396870    
0.0865525520    0.0192726150    0.0003315481    
0.0867752130    0.0195970010    0.0003316290    
0.0869978740    0.0200354530    0.0003361729    
0.0872205350    0.0191068050    0.0003278719    
0.0874431960    0.0190674510    0.0003275343    
0.0876658570    0.0195033010    0.0003325285    
0.0878885180    0.0196669510    0.0003344932    
0.0881111790    0.0196392080    0.0003338283    
0.0883338400    0.0191289350    0.0003246392    
0.0885565010    0.0188418890    0.0003265634    
0.0887791620    0.0195419110    0.0003282617    
0.0890018230    0.0196530090    0.0003323865    
0.0892244840    0.0192291460    0.0003293415    
0.0894471450    0.0197997440    0.0003327806    
0.0896698060    0.0192398790    0.0003268045    
0.0898924670    0.0200853700    0.0003354558    
0.0901151280    0.0201526990    0.0003323881    
0.0903377890    0.0199228450    0.0003332530    
0.0905604500    0.0196188900    0.0003291834    
0.0907831110    0.0194059820    0.0003265779    
0.0910057720    0.0201114090    0.0003339863    
0.0912284330    0.0193941330    0.0003232804    
0.0914510940    0.0193222000    0.0003262787    
0.0916737550    0.0192154540    0.0003245687    
0.0918964160    0.0193424460    0.0003269937    
0.0921190770    0.0195153840    0.0003254825    
0.0923417380    0.0191347950    0.0003224253    
0.0925643990    0.0194845800    0.0003245627    
0.0927870600    0.0198136910    0.0003286345    
0.0930097210    0.0192472170    0.0003211440    
0.0932323820    0.0189276710    0.0003208080    
