# Diamond Light Source Ltd.
# Data extracted from: /dls/b21/data/2018/cm19678-3/processed/b21-386631_00348.dat
q(1/A)          Column          Error           
0.0035000000    2.1136874000    0.0246864790    
0.0037226610    1.8590032000    0.0226640300    
0.0039453220    1.6166903000    0.0192272480    
0.0041679830    1.2937406000    0.0141251180    
0.0043906440    0.9767917100    0.0117396410    
0.0046133050    0.7831558800    0.0100911760    
0.0048359660    0.5934525900    0.0083091839    
0.0050586270    0.4504860000    0.0071156969    
0.0052812880    0.4339552100    0.0066031825    
0.0055039490    0.3813513200    0.0058857801    
0.0057266100    0.3133765200    0.0051616528    
0.0059492710    0.2712076000    0.0048018270    
0.0061719320    0.2235732200    0.0042011980    
0.0063945930    0.2071911200    0.0040933754    
0.0066172539    0.1805455000    0.0035880196    
0.0068399149    0.1704825300    0.0034316841    
0.0070625759    0.1462970700    0.0031463555    
0.0072852369    0.1247493500    0.0028619465    
0.0075078979    0.1153345900    0.0027383110    
0.0077305589    0.0972816030    0.0024669794    
0.0079532199    0.0939957540    0.0023913547    
0.0081758809    0.0933356390    0.0024051104    
0.0083985419    0.0820031390    0.0021026446    
0.0086212029    0.0763960990    0.0020294869    
0.0088438639    0.0735291810    0.0019750501    
0.0090665249    0.0666111360    0.0018156173    
0.0092891859    0.0642115720    0.0018606189    
0.0095118469    0.0581869960    0.0017032975    
0.0097345079    0.0601060980    0.0016813306    
0.0099571689    0.0523296140    0.0015364504    
0.0101798300    0.0509311590    0.0015157815    
0.0104024910    0.0483018850    0.0014711423    
0.0106251520    0.0467808960    0.0014527108    
0.0108478130    0.0438530050    0.0013697377    
0.0110704740    0.0464200190    0.0013417087    
0.0112931350    0.0390084280    0.0012335548    
0.0115157960    0.0426802180    0.0012827819    
0.0117384570    0.0390686280    0.0012167429    
0.0119611180    0.0374638070    0.0011949099    
0.0121837790    0.0360308140    0.0011521384    
0.0124064400    0.0372849310    0.0011231624    
0.0126291010    0.0344109110    0.0010655014    
0.0128517620    0.0353455890    0.0010825716    
0.0130744230    0.0321445370    0.0010247304    
0.0132970840    0.0321867730    0.0010203893    
0.0135197450    0.0328429500    0.0010159773    
0.0137424060    0.0302540760    0.0009615376    
0.0139650670    0.0303235490    0.0009411988    
0.0141877280    0.0305457600    0.0009467288    
0.0144103890    0.0300682590    0.0009231039    
0.0146330500    0.0308348700    0.0009288623    
0.0148557110    0.0290507770    0.0008978100    
0.0150783720    0.0275355650    0.0008668589    
0.0153010330    0.0279317130    0.0008607626    
0.0155236940    0.0270500770    0.0008420321    
0.0157463550    0.0278420270    0.0008394687    
0.0159690160    0.0273799180    0.0008293138    
0.0161916770    0.0271716340    0.0008214991    
0.0164143380    0.0270049600    0.0008251802    
0.0166369990    0.0261943150    0.0007876431    
0.0168596600    0.0250599920    0.0007636126    
0.0170823210    0.0268917790    0.0007841802    
0.0173049820    0.0241853910    0.0007449598    
0.0175276430    0.0235030910    0.0007421206    
0.0177503040    0.0250127050    0.0007460664    
0.0179729650    0.0244535980    0.0007303650    
0.0181956260    0.0245113170    0.0007172082    
0.0184182870    0.0242184460    0.0007095505    
0.0186409480    0.0230944300    0.0006972748    
0.0188636090    0.0238442710    0.0007040481    
0.0190862700    0.0243292980    0.0007100608    
0.0193089310    0.0232825470    0.0006935352    
0.0195315920    0.0229789180    0.0006655665    
0.0197542530    0.0236452690    0.0006761313    
0.0199769140    0.0230459280    0.0006675074    
0.0201995750    0.0229854770    0.0006561925    
0.0204222360    0.0223908720    0.0006532089    
0.0206448970    0.0230881810    0.0006585879    
0.0208675580    0.0228138500    0.0006411826    
0.0210902190    0.0225030690    0.0006429448    
0.0213128800    0.0222718940    0.0006309546    
0.0215355410    0.0218142160    0.0006169992    
0.0217582020    0.0212906830    0.0006095505    
0.0219808630    0.0211999990    0.0006074523    
0.0222035240    0.0217746610    0.0006100518    
0.0224261850    0.0218924500    0.0006062553    
0.0226488460    0.0216475780    0.0005983282    
0.0228715070    0.0225274800    0.0006088508    
0.0230941680    0.0215401630    0.0005953593    
0.0233168290    0.0216806790    0.0005987859    
0.0235394900    0.0209136300    0.0005816077    
0.0237621510    0.0214874420    0.0005736617    
0.0239848120    0.0223354330    0.0005855485    
0.0242074730    0.0204082670    0.0005552371    
0.0244301340    0.0213935840    0.0005691313    
0.0246527950    0.0221463250    0.0005844192    
0.0248754560    0.0216778410    0.0005652098    
0.0250981170    0.0215229830    0.0005644432    
0.0253207780    0.0220680770    0.0005544813    
0.0255434390    0.0210474130    0.0005472864    
0.0257661000    0.0214702600    0.0005545446    
0.0259887610    0.0207219280    0.0005390052    
0.0262114220    0.0201639730    0.0005345319    
0.0264340830    0.0210942270    0.0005392844    
0.0266567440    0.0215560620    0.0005417875    
0.0268794050    0.0212048810    0.0005351629    
0.0271020660    0.0209397580    0.0005296539    
0.0273247270    0.0209272530    0.0005263157    
0.0275473880    0.0206199240    0.0005213972    
0.0277700490    0.0210934480    0.0005242327    
0.0279927100    0.0199972370    0.0005059755    
0.0282153710    0.0208902160    0.0005196636    
0.0284380320    0.0202270580    0.0005083845    
0.0286606930    0.0209498790    0.0005129600    
0.0288833540    0.0208908620    0.0005132100    
0.0291060150    0.0202472130    0.0005047627    
0.0293286760    0.0213631360    0.0005112613    
0.0295513370    0.0211517870    0.0005031863    
0.0297739980    0.0198949000    0.0004933799    
0.0299966590    0.0209588100    0.0004977511    
0.0302193200    0.0196393900    0.0004888507    
0.0304419810    0.0203345990    0.0004983431    
0.0306646420    0.0213481380    0.0004962001    
0.0308873030    0.0194147310    0.0004711536    
0.0311099640    0.0202512580    0.0004824464    
0.0313326250    0.0208953450    0.0004846295    
0.0315552860    0.0208868530    0.0004908104    
0.0317779470    0.0197794640    0.0004780382    
0.0320006080    0.0199281120    0.0004689292    
0.0322232690    0.0198171320    0.0004695792    
0.0324459300    0.0202567600    0.0004712149    
0.0326685910    0.0194689550    0.0004611995    
0.0328912520    0.0197520840    0.0004660792    
0.0331139130    0.0197879310    0.0004604335    
0.0333365740    0.0197117630    0.0004610387    
0.0335592350    0.0194297080    0.0004533271    
0.0337818960    0.0203703040    0.0004638007    
0.0340045570    0.0198424820    0.0004570254    
0.0342272170    0.0199682320    0.0004566628    
0.0344498780    0.0193267060    0.0004510467    
0.0346725390    0.0200776750    0.0004512122    
0.0348952000    0.0203573740    0.0004522744    
0.0351178610    0.0196720900    0.0004466318    
0.0353405220    0.0202569190    0.0004511574    
0.0355631830    0.0203838540    0.0004508643    
0.0357858440    0.0199550480    0.0004460969    
0.0360085050    0.0200758180    0.0004487967    
0.0362311660    0.0202380910    0.0004452505    
0.0364538270    0.0207434980    0.0004471579    
0.0366764880    0.0201840200    0.0004407664    
0.0368991490    0.0194283860    0.0004302572    
0.0371218100    0.0200563480    0.0004359046    
0.0373444710    0.0195564540    0.0004351254    
0.0375671320    0.0196153730    0.0004351457    
0.0377897930    0.0197304510    0.0004251226    
0.0380124540    0.0192646280    0.0004227099    
0.0382351150    0.0198860810    0.0004294739    
0.0384577760    0.0207868870    0.0004348569    
0.0386804370    0.0203479720    0.0004335247    
0.0389030980    0.0192313080    0.0004182696    
0.0391257590    0.0205505150    0.0004294424    
0.0393484200    0.0193249470    0.0004150388    
0.0395710810    0.0198150000    0.0004208344    
0.0397937420    0.0198328890    0.0004210245    
0.0400164030    0.0200216160    0.0004247439    
0.0402390640    0.0195270460    0.0004138796    
0.0404617250    0.0194620430    0.0004107525    
0.0406843860    0.0204226560    0.0004167021    
0.0409070470    0.0199302460    0.0004159362    
0.0411297080    0.0199721590    0.0004123453    
0.0413523690    0.0197244090    0.0004108360    
0.0415750300    0.0200696330    0.0004179360    
0.0417976910    0.0195569700    0.0004018932    
0.0420203520    0.0194878670    0.0004026900    
0.0422430130    0.0201722900    0.0004112514    
0.0424656740    0.0201488150    0.0004056626    
0.0426883350    0.0205555320    0.0004117700    
0.0429109960    0.0200201610    0.0004076420    
0.0431336570    0.0200247610    0.0004019448    
0.0433563180    0.0205851430    0.0004110457    
0.0435789790    0.0197684730    0.0003964812    
0.0438016400    0.0201931500    0.0004028972    
0.0440243010    0.0198563530    0.0003954696    
0.0442469620    0.0193298050    0.0003925289    
0.0444696230    0.0195712920    0.0003935568    
0.0446922840    0.0201553940    0.0003982004    
0.0449149450    0.0200566180    0.0003919133    
0.0451376060    0.0199350560    0.0003955493    
0.0453602670    0.0200264700    0.0003922990    
0.0455829280    0.0200031830    0.0003916175    
0.0458055890    0.0193141110    0.0003870571    
0.0460282500    0.0199185900    0.0003883275    
0.0462509110    0.0203893660    0.0003904462    
0.0464735720    0.0198435140    0.0003854018    
0.0466962330    0.0195182520    0.0003839677    
0.0469188940    0.0190246980    0.0003780073    
0.0471415550    0.0197593740    0.0003872155    
0.0473642160    0.0194902370    0.0003791846    
0.0475868770    0.0198959930    0.0003812081    
0.0478095380    0.0204100630    0.0003844119    
0.0480321990    0.0200996420    0.0003823132    
0.0482548600    0.0198960440    0.0003787147    
0.0484775210    0.0194622600    0.0003782825    
0.0487001820    0.0196033840    0.0003740940    
0.0489228430    0.0191473180    0.0003695182    
0.0491455040    0.0199031460    0.0003741351    
0.0493681650    0.0202610000    0.0003807275    
0.0495908260    0.0199307260    0.0003712583    
0.0498134870    0.0196494900    0.0003721387    
0.0500361480    0.0199242260    0.0003737399    
0.0502588090    0.0195628970    0.0003647865    
0.0504814700    0.0202452750    0.0003759453    
0.0507041310    0.0193509480    0.0003631780    
0.0509267920    0.0201161790    0.0003718212    
0.0511494530    0.0202149930    0.0003702479    
0.0513721140    0.0194753150    0.0003666114    
0.0515947750    0.0191840460    0.0003590353    
0.0518174360    0.0191992580    0.0003570141    
0.0520400970    0.0199356280    0.0003612736    
0.0522627580    0.0201360800    0.0003661711    
0.0524854190    0.0196662890    0.0003648166    
0.0527080800    0.0194634220    0.0003657401    
0.0529307410    0.0197160480    0.0003698348    
0.0531534020    0.0195038810    0.0003665004    
0.0533760630    0.0191064200    0.0003638823    
0.0535987240    0.0190314120    0.0003614718    
0.0538213850    0.0195452150    0.0003705629    
0.0540440460    0.0197712480    0.0003709355    
0.0542667070    0.0200094220    0.0003757348    
0.0544893680    0.0195222120    0.0003713300    
0.0547120290    0.0197224070    0.0003706722    
0.0549346900    0.0199105390    0.0003726319    
0.0551573510    0.0197681070    0.0003756675    
0.0553800120    0.0190404080    0.0003655538    
0.0556026730    0.0197211560    0.0003797448    
0.0558253340    0.0197107890    0.0003828240    
0.0560479950    0.0199189950    0.0003848408    
0.0562706560    0.0192221160    0.0003817039    
0.0564933170    0.0195651170    0.0003884385    
0.0567159780    0.0193246140    0.0003814151    
0.0569386390    0.0195006970    0.0003891587    
0.0571613000    0.0194432380    0.0003802181    
0.0573839610    0.0187122150    0.0003699049    
0.0576066220    0.0188747830    0.0003725367    
0.0578292830    0.0202766730    0.0003848460    
0.0580519440    0.0200882580    0.0003845391    
0.0582746050    0.0196780040    0.0003789139    
0.0584972660    0.0190570130    0.0003714599    
0.0587199270    0.0205516240    0.0003824261    
0.0589425880    0.0194257280    0.0003696285    
0.0591652490    0.0202741350    0.0003798360    
0.0593879100    0.0196165590    0.0003708506    
0.0596105710    0.0195891860    0.0003702008    
0.0598332320    0.0196764340    0.0003741957    
0.0600558930    0.0191874530    0.0003671610    
0.0602785540    0.0200863760    0.0003752660    
0.0605012150    0.0197923800    0.0003717248    
0.0607238760    0.0198283220    0.0003693507    
0.0609465370    0.0195826480    0.0003699452    
0.0611691980    0.0197289020    0.0003719126    
0.0613918590    0.0197051430    0.0003676307    
0.0616145200    0.0192778140    0.0003662840    
0.0618371810    0.0197061740    0.0003666939    
0.0620598420    0.0196442640    0.0003664949    
0.0622825030    0.0196576330    0.0003722262    
0.0625051640    0.0198767410    0.0003690382    
0.0627278250    0.0193719100    0.0003635714    
0.0629504860    0.0195549780    0.0003623156    
0.0631731470    0.0199042440    0.0003700594    
0.0633958080    0.0196259630    0.0003695783    
0.0636184690    0.0192248600    0.0003708765    
0.0638411300    0.0194784630    0.0003719134    
0.0640637910    0.0186732160    0.0003667059    
0.0642864520    0.0198257730    0.0003770358    
0.0645091130    0.0197515690    0.0003796273    
0.0647317740    0.0200583990    0.0003829864    
0.0649544350    0.0196202780    0.0003783640    
0.0651770960    0.0199625220    0.0003795678    
0.0653997570    0.0200987950    0.0003800352    
0.0656224180    0.0198398770    0.0003784004    
0.0658450790    0.0192736450    0.0003676008    
0.0660677400    0.0198623050    0.0003747605    
0.0662904010    0.0192677350    0.0003735152    
0.0665130620    0.0192445000    0.0003716706    
0.0667357230    0.0206412930    0.0003917664    
0.0669583840    0.0198386660    0.0003827890    
0.0671810450    0.0190942700    0.0003734653    
0.0674037060    0.0202075240    0.0003907070    
0.0676263670    0.0200690380    0.0003865152    
0.0678490280    0.0194566560    0.0003782451    
0.0680716890    0.0198018560    0.0003824349    
0.0682943500    0.0189586360    0.0003701052    
0.0685170110    0.0199545510    0.0003758326    
0.0687396720    0.0191727200    0.0003674176    
0.0689623330    0.0199189600    0.0003733128    
0.0691849940    0.0197348390    0.0003741580    
0.0694076550    0.0199901400    0.0003763694    
0.0696303160    0.0197725040    0.0003713515    
0.0698529770    0.0195855330    0.0003688169    
0.0700756380    0.0196273710    0.0003644711    
0.0702982990    0.0198912020    0.0003709083    
0.0705209600    0.0198163420    0.0003675369    
0.0707436210    0.0196550130    0.0003643568    
0.0709662820    0.0195938760    0.0003681265    
0.0711889430    0.0198239960    0.0003657340    
0.0714116040    0.0192817160    0.0003614334    
0.0716342650    0.0190448140    0.0003577477    
0.0718569260    0.0192916790    0.0003586087    
0.0720795870    0.0199722410    0.0003663552    
0.0723022480    0.0194399820    0.0003619914    
0.0725249090    0.0199575920    0.0003623864    
0.0727475700    0.0187806590    0.0003545414    
0.0729702310    0.0201355430    0.0003641796    
0.0731928920    0.0190419580    0.0003555675    
0.0734155530    0.0192900790    0.0003571624    
0.0736382140    0.0194937400    0.0003567387    
0.0738608750    0.0198720740    0.0003625108    
0.0740835360    0.0202209820    0.0003647715    
0.0743061970    0.0191310340    0.0003498084    
0.0745288580    0.0189976840    0.0003521715    
0.0747515190    0.0197347750    0.0003596473    
0.0749741800    0.0195448170    0.0003545992    
0.0751968410    0.0198660090    0.0003603079    
0.0754195020    0.0189622240    0.0003499542    
0.0756421630    0.0199876840    0.0003563552    
0.0758648240    0.0193305930    0.0003512912    
0.0760874850    0.0199498130    0.0003567019    
0.0763101460    0.0194850550    0.0003521843    
0.0765328070    0.0194051090    0.0003550573    
0.0767554680    0.0193989960    0.0003525925    
0.0769781290    0.0198925630    0.0003549980    
0.0772007900    0.0192381220    0.0003463097    
0.0774234510    0.0195963080    0.0003515068    
0.0776461120    0.0192696650    0.0003482343    
0.0778687730    0.0196426910    0.0003504273    
0.0780914340    0.0193980720    0.0003507267    
0.0783140950    0.0193524540    0.0003447560    
0.0785367560    0.0189415510    0.0003465755    
0.0787594170    0.0191766470    0.0003455953    
0.0789820780    0.0190854270    0.0003430058    
0.0792047390    0.0195517000    0.0003483055    
0.0794274000    0.0196739290    0.0003508729    
0.0796500610    0.0197826460    0.0003484070    
0.0798727220    0.0199482570    0.0003495394    
0.0800953830    0.0194054630    0.0003439582    
0.0803180440    0.0196087700    0.0003481639    
0.0805407050    0.0190786890    0.0003431064    
0.0807633660    0.0192834840    0.0003446228    
0.0809860270    0.0197587910    0.0003475559    
0.0812086880    0.0191423860    0.0003391355    
0.0814313490    0.0192021900    0.0003412139    
0.0816540100    0.0193623160    0.0003418536    
0.0818766710    0.0191476760    0.0003407297    
0.0820993320    0.0196458170    0.0003445045    
0.0823219930    0.0195341090    0.0003449405    
0.0825446540    0.0190231800    0.0003379263    
0.0827673150    0.0197811820    0.0003422780    
0.0829899760    0.0195514770    0.0003396791    
0.0832126370    0.0198877830    0.0003441226    
0.0834352980    0.0194136390    0.0003392355    
0.0836579590    0.0190499390    0.0003352948    
0.0838806200    0.0198819650    0.0003436106    
0.0841032810    0.0194364780    0.0003376302    
0.0843259420    0.0200397330    0.0003417740    
0.0845486030    0.0193519530    0.0003358580    
0.0847712640    0.0199171740    0.0003386510    
0.0849939250    0.0196803600    0.0003372180    
0.0852165860    0.0197377470    0.0003381517    
0.0854392470    0.0198886210    0.0003362271    
0.0856619080    0.0195539330    0.0003358414    
0.0858845690    0.0187274600    0.0003257073    
0.0861072300    0.0194406270    0.0003341419    
0.0863298910    0.0196157410    0.0003374010    
0.0865525520    0.0196891050    0.0003351125    
0.0867752130    0.0195859000    0.0003315361    
0.0869978740    0.0194433100    0.0003311689    
0.0872205350    0.0189325100    0.0003263741    
0.0874431960    0.0197427280    0.0003332848    
0.0876658570    0.0193163270    0.0003309318    
0.0878885180    0.0196500080    0.0003343502    
0.0881111790    0.0194520750    0.0003322351    
0.0883338400    0.0192502650    0.0003256681    
0.0885565010    0.0192212250    0.0003298354    
0.0887791620    0.0194372660    0.0003273826    
0.0890018230    0.0197936720    0.0003335749    
0.0892244840    0.0194379740    0.0003311261    
0.0894471450    0.0192517360    0.0003281440    
0.0896698060    0.0196174730    0.0003299969    
0.0898924670    0.0188361060    0.0003248570    
0.0901151280    0.0194017540    0.0003261375    
0.0903377890    0.0190812330    0.0003261392    
0.0905604500    0.0195637790    0.0003287218    
0.0907831110    0.0192357300    0.0003251432    
0.0910057720    0.0191187150    0.0003256402    
0.0912284330    0.0192218140    0.0003218421    
0.0914510940    0.0193002830    0.0003260946    
0.0916737550    0.0196980200    0.0003286200    
0.0918964160    0.0192983440    0.0003266218    
0.0921190770    0.0195806490    0.0003260273    
0.0923417380    0.0190914510    0.0003220609    
0.0925643990    0.0191440990    0.0003217155    
0.0927870600    0.0200591040    0.0003306645    
0.0930097210    0.0185936150    0.0003156451    
0.0932323820    0.0192812250    0.0003237914    
