# Diamond Light Source Ltd.
# Data extracted from: /dls/b21/data/2018/cm19678-3/processed/b21-386631_00352.dat
q(1/A)          Column          Error           
0.0035000000    2.0656404000    0.0244065970    
0.0037226610    1.8756605000    0.0227674980    
0.0039453220    1.6112786000    0.0191968580    
0.0041679830    1.2932143000    0.0141235820    
0.0043906440    0.9630057400    0.0116576060    
0.0046133050    0.7835642800    0.0100947620    
0.0048359660    0.6010121600    0.0083627304    
0.0050586270    0.4609137600    0.0071982635    
0.0052812880    0.4295151100    0.0065699367    
0.0055039490    0.3849670000    0.0059141764    
0.0057266100    0.3127555800    0.0051570247    
0.0059492710    0.2621603000    0.0047215018    
0.0061719320    0.2286690100    0.0042492084    
0.0063945930    0.2057744000    0.0040797428    
0.0066172539    0.1795099000    0.0035780532    
0.0068399149    0.1658857600    0.0033854237    
0.0070625759    0.1477460600    0.0031621978    
0.0072852369    0.1268087400    0.0028857458    
0.0075078979    0.1191929700    0.0027840012    
0.0077305589    0.1021806700    0.0025285739    
0.0079532199    0.0983947660    0.0024469043    
0.0081758809    0.0981883440    0.0024670750    
0.0083985419    0.0839060130    0.0021271019    
0.0086212029    0.0800234850    0.0020773062    
0.0088438639    0.0697226830    0.0019234301    
0.0090665249    0.0665247540    0.0018146114    
0.0092891859    0.0636844880    0.0018531421    
0.0095118469    0.0625366830    0.0017659812    
0.0097345079    0.0576243440    0.0016464098    
0.0099571689    0.0525651240    0.0015400497    
0.0101798300    0.0499932770    0.0015019024    
0.0104024910    0.0473699070    0.0014570184    
0.0106251520    0.0477372800    0.0014676241    
0.0108478130    0.0462148420    0.0014062729    
0.0110704740    0.0420845930    0.0012776393    
0.0112931350    0.0436977120    0.0013057189    
0.0115157960    0.0405673810    0.0012507459    
0.0117384570    0.0397961460    0.0012281357    
0.0119611180    0.0383095170    0.0012084360    
0.0121837790    0.0372536300    0.0011716368    
0.0124064400    0.0359722200    0.0011033178    
0.0126291010    0.0354073810    0.0010809210    
0.0128517620    0.0324338950    0.0010371216    
0.0130744230    0.0340130080    0.0010541919    
0.0132970840    0.0335517620    0.0010418998    
0.0135197450    0.0316232190    0.0009970274    
0.0137424060    0.0313601600    0.0009790494    
0.0139650670    0.0307383560    0.0009477041    
0.0141877280    0.0311091610    0.0009555103    
0.0144103890    0.0292519500    0.0009105734    
0.0146330500    0.0300570970    0.0009171595    
0.0148557110    0.0293615500    0.0009026848    
0.0150783720    0.0278956150    0.0008725905    
0.0153010330    0.0258675940    0.0008284260    
0.0155236940    0.0256395200    0.0008198614    
0.0157463550    0.0256954620    0.0008065354    
0.0159690160    0.0272846070    0.0008279475    
0.0161916770    0.0266054210    0.0008129716    
0.0164143380    0.0268335370    0.0008226349    
0.0166369990    0.0251806770    0.0007723262    
0.0168596600    0.0247389180    0.0007587769    
0.0170823210    0.0250671520    0.0007571810    
0.0173049820    0.0252227490    0.0007608404    
0.0175276430    0.0250075240    0.0007655763    
0.0177503040    0.0243052010    0.0007355088    
0.0179729650    0.0238473180    0.0007213225    
0.0181956260    0.0250407010    0.0007249804    
0.0184182870    0.0242022400    0.0007093802    
0.0186409480    0.0240252820    0.0007112556    
0.0188636090    0.0231210550    0.0006933544    
0.0190862700    0.0237949940    0.0007022871    
0.0193089310    0.0232869560    0.0006936666    
0.0195315920    0.0230218310    0.0006662507    
0.0197542530    0.0242298710    0.0006845033    
0.0199769140    0.0225475170    0.0006603124    
0.0201995750    0.0227275170    0.0006525617    
0.0204222360    0.0217661420    0.0006440928    
0.0206448970    0.0229422350    0.0006565652    
0.0208675580    0.0212320730    0.0006186140    
0.0210902190    0.0221949830    0.0006385889    
0.0213128800    0.0224370140    0.0006333492    
0.0215355410    0.0217310730    0.0006158806    
0.0217582020    0.0218183550    0.0006171163    
0.0219808630    0.0210995600    0.0006060690    
0.0222035240    0.0214539820    0.0006056003    
0.0224261850    0.0214096310    0.0005995896    
0.0226488460    0.0227598990    0.0006135658    
0.0228715070    0.0225975800    0.0006098551    
0.0230941680    0.0221038330    0.0006031559    
0.0233168290    0.0218667320    0.0006014066    
0.0235394900    0.0223250380    0.0006009698    
0.0237621510    0.0215527830    0.0005745877    
0.0239848120    0.0216026830    0.0005759180    
0.0242074730    0.0210315970    0.0005637060    
0.0244301340    0.0212159140    0.0005668167    
0.0246527950    0.0222430690    0.0005857497    
0.0248754560    0.0219472590    0.0005687651    
0.0250981170    0.0219416090    0.0005699600    
0.0253207780    0.0214312680    0.0005464742    
0.0255434390    0.0215780390    0.0005541947    
0.0257661000    0.0213167420    0.0005526108    
0.0259887610    0.0211184920    0.0005441898    
0.0262114220    0.0213724730    0.0005503692    
0.0264340830    0.0217187570    0.0005472612    
0.0266567440    0.0208791530    0.0005332634    
0.0268794050    0.0206820510    0.0005285742    
0.0271020660    0.0208901240    0.0005290759    
0.0273247270    0.0204546040    0.0005203875    
0.0275473880    0.0207425080    0.0005229942    
0.0277700490    0.0206283210    0.0005184697    
0.0279927100    0.0204107760    0.0005112289    
0.0282153710    0.0210881150    0.0005221686    
0.0284380320    0.0201925480    0.0005079987    
0.0286606930    0.0215568340    0.0005203869    
0.0288833540    0.0213487790    0.0005188533    
0.0291060150    0.0211446610    0.0005158769    
0.0293286760    0.0200577370    0.0004954416    
0.0295513370    0.0204254560    0.0004945182    
0.0297739980    0.0209144050    0.0005059114    
0.0299966590    0.0201706150    0.0004883482    
0.0302193200    0.0205802340    0.0005004705    
0.0304419810    0.0195566710    0.0004887641    
0.0306646420    0.0208215480    0.0004900884    
0.0308873030    0.0200473890    0.0004788140    
0.0311099640    0.0203700480    0.0004839051    
0.0313326250    0.0198088050    0.0004719058    
0.0315552860    0.0190335910    0.0004685746    
0.0317779470    0.0196560970    0.0004765902    
0.0320006080    0.0204726730    0.0004753381    
0.0322232690    0.0198542720    0.0004700635    
0.0324459300    0.0201180700    0.0004696434    
0.0326685910    0.0201173590    0.0004688610    
0.0328912520    0.0208668140    0.0004790959    
0.0331139130    0.0200059900    0.0004630073    
0.0333365740    0.0199096310    0.0004633907    
0.0335592350    0.0195814910    0.0004551374    
0.0337818960    0.0196453810    0.0004555164    
0.0340045570    0.0201831510    0.0004609756    
0.0342272170    0.0207658790    0.0004657385    
0.0344498780    0.0210570430    0.0004708498    
0.0346725390    0.0205683000    0.0004567351    
0.0348952000    0.0190547330    0.0004376064    
0.0351178610    0.0198888000    0.0004491277    
0.0353405220    0.0200798550    0.0004492239    
0.0355631830    0.0204475610    0.0004516111    
0.0357858440    0.0196994920    0.0004432732    
0.0360085050    0.0197685400    0.0004453911    
0.0362311660    0.0199773860    0.0004424152    
0.0364538270    0.0204774780    0.0004443234    
0.0366764880    0.0194658160    0.0004328945    
0.0368991490    0.0203279030    0.0004401464    
0.0371218100    0.0195863580    0.0004308077    
0.0373444710    0.0203348170    0.0004437421    
0.0375671320    0.0203528720    0.0004432925    
0.0377897930    0.0197525110    0.0004254004    
0.0380124540    0.0204371750    0.0004354253    
0.0382351150    0.0199918940    0.0004306558    
0.0384577760    0.0204177710    0.0004310195    
0.0386804370    0.0199638190    0.0004294536    
0.0389030980    0.0208272460    0.0004353203    
0.0391257590    0.0198183970    0.0004217635    
0.0393484200    0.0205321870    0.0004278467    
0.0395710810    0.0205160280    0.0004282545    
0.0397937420    0.0199439180    0.0004222413    
0.0400164030    0.0205481230    0.0004303331    
0.0402390640    0.0197588660    0.0004163685    
0.0404617250    0.0191015580    0.0004069692    
0.0406843860    0.0198227420    0.0004105751    
0.0409070470    0.0202986670    0.0004198027    
0.0411297080    0.0203335660    0.0004160987    
0.0413523690    0.0209092650    0.0004230357    
0.0415750300    0.0199167450    0.0004163805    
0.0417976910    0.0196680580    0.0004030712    
0.0420203520    0.0196663320    0.0004045680    
0.0422430130    0.0203102810    0.0004126947    
0.0424656740    0.0190171560    0.0003941432    
0.0426883350    0.0204356710    0.0004106066    
0.0429109960    0.0200322540    0.0004078037    
0.0431336570    0.0192861560    0.0003944998    
0.0433563180    0.0204248540    0.0004094810    
0.0435789790    0.0195336130    0.0003941562    
0.0438016400    0.0196824010    0.0003978070    
0.0440243010    0.0203485410    0.0004003788    
0.0442469620    0.0191979320    0.0003912247    
0.0444696230    0.0197333080    0.0003952199    
0.0446922840    0.0197264410    0.0003939776    
0.0449149450    0.0195242460    0.0003867135    
0.0451376060    0.0193186860    0.0003894232    
0.0453602670    0.0201993590    0.0003940260    
0.0455829280    0.0196618910    0.0003882990    
0.0458055890    0.0194574150    0.0003885271    
0.0460282500    0.0203766910    0.0003928048    
0.0462509110    0.0198099220    0.0003848946    
0.0464735720    0.0200494120    0.0003874328    
0.0466962330    0.0199827990    0.0003885469    
0.0469188940    0.0192686890    0.0003804596    
0.0471415550    0.0192697970    0.0003824246    
0.0473642160    0.0196931470    0.0003811894    
0.0475868770    0.0198194020    0.0003805096    
0.0478095380    0.0204863430    0.0003851660    
0.0480321990    0.0193833890    0.0003754751    
0.0482548600    0.0191932240    0.0003720008    
0.0484775210    0.0200395540    0.0003838882    
0.0487001820    0.0202354370    0.0003801129    
0.0489228430    0.0190796180    0.0003688993    
0.0491455040    0.0197029220    0.0003722837    
0.0493681650    0.0198927420    0.0003772874    
0.0495908260    0.0195748210    0.0003679634    
0.0498134870    0.0198153420    0.0003737414    
0.0500361480    0.0192618620    0.0003675098    
0.0502588090    0.0199339850    0.0003682649    
0.0504814700    0.0200815300    0.0003744573    
0.0507041310    0.0200772570    0.0003699659    
0.0509267920    0.0201131140    0.0003718281    
0.0511494530    0.0193506520    0.0003622803    
0.0513721140    0.0197551040    0.0003692704    
0.0515947750    0.0194833910    0.0003618599    
0.0518174360    0.0193423340    0.0003583758    
0.0520400970    0.0196971180    0.0003591400    
0.0522627580    0.0202131530    0.0003669059    
0.0524854190    0.0197512370    0.0003656383    
0.0527080800    0.0197214450    0.0003681913    
0.0529307410    0.0196642710    0.0003693839    
0.0531534020    0.0200861890    0.0003719665    
0.0533760630    0.0193734340    0.0003664508    
0.0535987240    0.0193852270    0.0003648509    
0.0538213850    0.0194224320    0.0003694321    
0.0540440460    0.0193434360    0.0003669352    
0.0542667070    0.0198861870    0.0003746114    
0.0544893680    0.0189536950    0.0003659178    
0.0547120290    0.0201302800    0.0003745209    
0.0549346900    0.0189726520    0.0003637840    
0.0551573510    0.0193505650    0.0003717141    
0.0553800120    0.0203496480    0.0003779487    
0.0556026730    0.0197029490    0.0003796055    
0.0558253340    0.0201235360    0.0003868480    
0.0560479950    0.0194245110    0.0003800699    
0.0562706560    0.0198777330    0.0003881955    
0.0564933170    0.0198387900    0.0003911827    
0.0567159780    0.0199381640    0.0003874594    
0.0569386390    0.0199782120    0.0003939319    
0.0571613000    0.0198410630    0.0003841245    
0.0573839610    0.0191545800    0.0003742871    
0.0576066220    0.0195108220    0.0003787974    
0.0578292830    0.0200613430    0.0003828333    
0.0580519440    0.0198196520    0.0003819957    
0.0582746050    0.0206304230    0.0003880121    
0.0584972660    0.0191982170    0.0003728688    
0.0587199270    0.0197014080    0.0003744676    
0.0589425880    0.0198514790    0.0003736925    
0.0591652490    0.0192388070    0.0003700455    
0.0593879100    0.0198166160    0.0003727721    
0.0596105710    0.0192850070    0.0003673501    
0.0598332320    0.0198296290    0.0003756852    
0.0600558930    0.0196267680    0.0003713756    
0.0602785540    0.0198096880    0.0003727077    
0.0605012150    0.0193562130    0.0003676409    
0.0607238760    0.0193503810    0.0003649067    
0.0609465370    0.0195653850    0.0003698171    
0.0611691980    0.0193048870    0.0003679291    
0.0613918590    0.0192012320    0.0003629340    
0.0616145200    0.0200332320    0.0003734269    
0.0618371810    0.0194164410    0.0003640227    
0.0620598420    0.0195795950    0.0003659258    
0.0622825030    0.0195697110    0.0003714280    
0.0625051640    0.0191061180    0.0003618479    
0.0627278250    0.0195120730    0.0003649189    
0.0629504860    0.0193639670    0.0003605759    
0.0631731470    0.0195226520    0.0003665297    
0.0633958080    0.0194904620    0.0003683351    
0.0636184690    0.0198797080    0.0003771759    
0.0638411300    0.0198727880    0.0003756946    
0.0640637910    0.0195987050    0.0003757190    
0.0642864520    0.0199514450    0.0003782647    
0.0645091130    0.0196750330    0.0003789270    
0.0647317740    0.0195794750    0.0003784224    
0.0649544350    0.0195729080    0.0003779427    
0.0651770960    0.0190206820    0.0003705406    
0.0653997570    0.0196354320    0.0003756645    
0.0656224180    0.0201251550    0.0003811473    
0.0658450790    0.0204343520    0.0003785438    
0.0660677400    0.0198448500    0.0003746312    
0.0662904010    0.0197493660    0.0003781905    
0.0665130620    0.0196932710    0.0003760148    
0.0667357230    0.0195519580    0.0003813247    
0.0669583840    0.0192735970    0.0003773338    
0.0671810450    0.0197115900    0.0003794903    
0.0674037060    0.0195464540    0.0003842995    
0.0676263670    0.0190900430    0.0003770057    
0.0678490280    0.0193941480    0.0003776727    
0.0680716890    0.0197243440    0.0003817218    
0.0682943500    0.0192368310    0.0003728460    
0.0685170110    0.0190804170    0.0003675433    
0.0687396720    0.0190777580    0.0003665412    
0.0689623330    0.0193279190    0.0003677674    
0.0691849940    0.0189510190    0.0003666871    
0.0694076550    0.0194765350    0.0003715381    
0.0696303160    0.0195600000    0.0003693855    
0.0698529770    0.0195684020    0.0003686905    
0.0700756380    0.0199966320    0.0003679185    
0.0702982990    0.0196390180    0.0003685845    
0.0705209600    0.0189542010    0.0003594869    
0.0707436210    0.0196790020    0.0003646136    
0.0709662820    0.0197290210    0.0003694288    
0.0711889430    0.0200302110    0.0003676661    
0.0714116040    0.0198681300    0.0003669231    
0.0716342650    0.0200297430    0.0003669165    
0.0718569260    0.0197353780    0.0003627435    
0.0720795870    0.0193710960    0.0003608338    
0.0723022480    0.0195245660    0.0003628124    
0.0725249090    0.0190860450    0.0003544190    
0.0727475700    0.0190586820    0.0003571899    
0.0729702310    0.0188217660    0.0003521318    
0.0731928920    0.0197295570    0.0003619645    
0.0734155530    0.0196376720    0.0003604001    
0.0736382140    0.0195692570    0.0003574629    
0.0738608750    0.0195186670    0.0003593069    
0.0740835360    0.0194218730    0.0003575251    
0.0743061970    0.0200238970    0.0003579121    
0.0745288580    0.0198697240    0.0003601976    
0.0747515190    0.0193714060    0.0003563546    
0.0749741800    0.0190723530    0.0003503202    
0.0751968410    0.0196148630    0.0003580571    
0.0754195020    0.0195342730    0.0003552273    
0.0756421630    0.0195085220    0.0003520912    
0.0758648240    0.0196918220    0.0003545918    
0.0760874850    0.0200428970    0.0003575670    
0.0763101460    0.0190749030    0.0003484909    
0.0765328070    0.0194542680    0.0003555404    
0.0767554680    0.0191911440    0.0003507317    
0.0769781290    0.0193070440    0.0003497676    
0.0772007900    0.0196221110    0.0003497819    
0.0774234510    0.0205144340    0.0003596810    
0.0776461120    0.0199468090    0.0003543336    
0.0778687730    0.0195588700    0.0003497119    
0.0780914340    0.0193383200    0.0003502193    
0.0783140950    0.0192824040    0.0003441641    
0.0785367560    0.0195032800    0.0003517103    
0.0787594170    0.0196474820    0.0003498453    
0.0789820780    0.0193726640    0.0003456100    
0.0792047390    0.0189161740    0.0003426303    
0.0794274000    0.0199280060    0.0003531647    
0.0796500610    0.0200011940    0.0003503594    
0.0798727220    0.0189290100    0.0003405247    
0.0800953830    0.0193847470    0.0003438071    
0.0803180440    0.0196372150    0.0003484493    
0.0805407050    0.0191810460    0.0003440581    
0.0807633660    0.0191023330    0.0003430327    
0.0809860270    0.0202761620    0.0003521101    
0.0812086880    0.0196267650    0.0003434319    
0.0814313490    0.0198243900    0.0003467308    
0.0816540100    0.0193599460    0.0003418650    
0.0818766710    0.0192180100    0.0003413872    
0.0820993320    0.0194078460    0.0003424440    
0.0823219930    0.0192392890    0.0003423599    
0.0825446540    0.0196752180    0.0003437014    
0.0827673150    0.0197967750    0.0003424453    
0.0829899760    0.0199506500    0.0003431616    
0.0832126370    0.0192840820    0.0003388914    
0.0834352980    0.0196722600    0.0003415199    
0.0836579590    0.0194962400    0.0003392318    
0.0838806200    0.0196422060    0.0003415649    
0.0841032810    0.0193169710    0.0003366225    
0.0843259420    0.0195712980    0.0003377878    
0.0845486030    0.0198744880    0.0003403944    
0.0847712640    0.0191319400    0.0003319397    
0.0849939250    0.0193546700    0.0003344477    
0.0852165860    0.0193416720    0.0003347733    
0.0854392470    0.0197502580    0.0003350872    
0.0856619080    0.0193614820    0.0003342163    
0.0858845690    0.0192182610    0.0003299789    
0.0861072300    0.0200589440    0.0003394462    
0.0863298910    0.0195904320    0.0003372152    
0.0865525520    0.0197898140    0.0003360002    
0.0867752130    0.0193763120    0.0003297887    
0.0869978740    0.0190012970    0.0003274140    
0.0872205350    0.0187447640    0.0003247825    
0.0874431960    0.0195495080    0.0003316812    
0.0876658570    0.0191612060    0.0003296315    
0.0878885180    0.0194431940    0.0003326175    
0.0881111790    0.0200119600    0.0003370144    
0.0883338400    0.0191051250    0.0003244688    
0.0885565010    0.0194003560    0.0003314001    
0.0887791620    0.0196008860    0.0003287888    
0.0890018230    0.0195781370    0.0003317852    
0.0892244840    0.0201976560    0.0003375666    
0.0894471450    0.0199826330    0.0003343467    
0.0896698060    0.0188216830    0.0003232649    
0.0898924670    0.0188564840    0.0003250635    
0.0901151280    0.0196028270    0.0003278541    
0.0903377890    0.0194918560    0.0003296609    
0.0905604500    0.0201088770    0.0003333014    
0.0907831110    0.0197560870    0.0003295429    
0.0910057720    0.0196770890    0.0003303926    
0.0912284330    0.0191661660    0.0003214063    
0.0914510940    0.0196125360    0.0003287530    
0.0916737550    0.0194385480    0.0003264793    
0.0918964160    0.0193296430    0.0003269175    
0.0921190770    0.0198341150    0.0003281618    
0.0923417380    0.0194374080    0.0003249966    
0.0925643990    0.0191963910    0.0003221851    
0.0927870600    0.0194850030    0.0003259292    
0.0930097210    0.0197976420    0.0003257355    
0.0932323820    0.0190183900    0.0003216073    
