# Diamond Light Source Ltd.
# Data extracted from: /dls/b21/data/2018/cm19678-3/processed/b21-386631_00350.dat
q(1/A)          Column          Error           
0.0035000000    2.1724909000    0.0250290950    
0.0037226610    1.9089796000    0.0229681030    
0.0039453220    1.6397641000    0.0193651920    
0.0041679830    1.2997649000    0.0141588600    
0.0043906440    0.9708471900    0.0117046020    
0.0046133050    0.7793534000    0.0100672830    
0.0048359660    0.6002760900    0.0083573440    
0.0050586270    0.4757228900    0.0073127583    
0.0052812880    0.4275787100    0.0065549033    
0.0055039490    0.3896670400    0.0059499819    
0.0057266100    0.3243847800    0.0052518607    
0.0059492710    0.2710717700    0.0048009273    
0.0061719320    0.2270754700    0.0042342430    
0.0063945930    0.1979968300    0.0040017737    
0.0066172539    0.1841340100    0.0036237305    
0.0068399149    0.1677406100    0.0034041907    
0.0070625759    0.1431347600    0.0031123608    
0.0072852369    0.1296243700    0.0029175149    
0.0075078979    0.1155442100    0.0027409713    
0.0077305589    0.1004223000    0.0025066439    
0.0079532199    0.1002747900    0.0024700922    
0.0081758809    0.0904341850    0.0023675818    
0.0083985419    0.0840624780    0.0021290170    
0.0086212029    0.0742489100    0.0020008895    
0.0088438639    0.0669592620    0.0018848682    
0.0090665249    0.0662235870    0.0018104421    
0.0092891859    0.0644892790    0.0018647557    
0.0095118469    0.0573964730    0.0016917943    
0.0097345079    0.0546573560    0.0016034136    
0.0099571689    0.0560809640    0.0015906693    
0.0101798300    0.0513436440    0.0015220032    
0.0104024910    0.0485320440    0.0014747362    
0.0106251520    0.0493133770    0.0014916079    
0.0108478130    0.0469393340    0.0014172081    
0.0110704740    0.0446805440    0.0013164131    
0.0112931350    0.0431097520    0.0012968639    
0.0115157960    0.0404877010    0.0012494776    
0.0117384570    0.0375576110    0.0011930568    
0.0119611180    0.0375447680    0.0011962758    
0.0121837790    0.0380618900    0.0011842412    
0.0124064400    0.0372557980    0.0011227943    
0.0126291010    0.0357681060    0.0010863789    
0.0128517620    0.0347863060    0.0010740403    
0.0130744230    0.0339128460    0.0010526053    
0.0132970840    0.0336467020    0.0010433399    
0.0135197450    0.0318726830    0.0010009206    
0.0137424060    0.0312970540    0.0009780329    
0.0139650670    0.0309993700    0.0009516893    
0.0141877280    0.0302854970    0.0009427463    
0.0144103890    0.0296469070    0.0009166711    
0.0146330500    0.0297473710    0.0009123930    
0.0148557110    0.0281386880    0.0008836593    
0.0150783720    0.0275390400    0.0008669683    
0.0153010330    0.0280148260    0.0008620967    
0.0155236940    0.0278137150    0.0008538888    
0.0157463550    0.0248837880    0.0007936696    
0.0159690160    0.0273833740    0.0008294185    
0.0161916770    0.0263305000    0.0008087349    
0.0164143380    0.0253944230    0.0008002462    
0.0166369990    0.0263871150    0.0007905864    
0.0168596600    0.0256449360    0.0007725219    
0.0170823210    0.0251799200    0.0007588583    
0.0173049820    0.0251752580    0.0007600998    
0.0175276430    0.0247247160    0.0007612110    
0.0177503040    0.0239475680    0.0007300545    
0.0179729650    0.0249584720    0.0007379127    
0.0181956260    0.0230872020    0.0006961053    
0.0184182870    0.0239512200    0.0007056696    
0.0186409480    0.0232236750    0.0006992673    
0.0188636090    0.0225998200    0.0006854728    
0.0190862700    0.0245396290    0.0007131685    
0.0193089310    0.0230582090    0.0006902294    
0.0195315920    0.0225576570    0.0006594791    
0.0197542530    0.0234355540    0.0006731687    
0.0199769140    0.0241703400    0.0006836405    
0.0201995750    0.0237003250    0.0006663602    
0.0204222360    0.0218219440    0.0006448975    
0.0206448970    0.0226213820    0.0006519374    
0.0208675580    0.0216813000    0.0006251043    
0.0210902190    0.0235347500    0.0006575595    
0.0213128800    0.0218277810    0.0006246716    
0.0215355410    0.0231085330    0.0006350799    
0.0217582020    0.0227943780    0.0006307484    
0.0219808630    0.0218989860    0.0006174242    
0.0222035240    0.0217432210    0.0006096496    
0.0224261850    0.0208541830    0.0005917420    
0.0226488460    0.0210548850    0.0005901177    
0.0228715070    0.0234025710    0.0006206029    
0.0230941680    0.0212301890    0.0005910973    
0.0233168290    0.0215676380    0.0005972605    
0.0235394900    0.0206897980    0.0005785234    
0.0237621510    0.0215207880    0.0005741429    
0.0239848120    0.0212789120    0.0005715679    
0.0242074730    0.0206827860    0.0005589942    
0.0244301340    0.0217294180    0.0005736172    
0.0246527950    0.0226118450    0.0005905668    
0.0248754560    0.0214300200    0.0005620052    
0.0250981170    0.0212444140    0.0005608139    
0.0253207780    0.0209422380    0.0005401864    
0.0255434390    0.0209646730    0.0005462441    
0.0257661000    0.0223897610    0.0005663305    
0.0259887610    0.0211732470    0.0005448777    
0.0262114220    0.0221222310    0.0005599219    
0.0264340830    0.0217863300    0.0005480946    
0.0266567440    0.0198291770    0.0005196656    
0.0268794050    0.0196541370    0.0005152553    
0.0271020660    0.0213979610    0.0005354513    
0.0273247270    0.0209828480    0.0005270475    
0.0275473880    0.0211104000    0.0005275951    
0.0277700490    0.0204706540    0.0005164683    
0.0279927100    0.0204222910    0.0005113569    
0.0282153710    0.0212419290    0.0005240530    
0.0284380320    0.0206513270    0.0005137210    
0.0286606930    0.0203746950    0.0005059012    
0.0288833540    0.0207295790    0.0005112574    
0.0291060150    0.0202875240    0.0005052968    
0.0293286760    0.0211455660    0.0005086832    
0.0295513370    0.0209988210    0.0005013951    
0.0297739980    0.0209253220    0.0005060275    
0.0299966590    0.0206658900    0.0004942918    
0.0302193200    0.0201773350    0.0004955318    
0.0304419810    0.0206303130    0.0005019853    
0.0306646420    0.0201627530    0.0004822576    
0.0308873030    0.0203091360    0.0004819145    
0.0311099640    0.0203572670    0.0004837380    
0.0313326250    0.0209766720    0.0004856023    
0.0315552860    0.0194591760    0.0004737693    
0.0317779470    0.0212147660    0.0004951102    
0.0320006080    0.0196105900    0.0004652078    
0.0322232690    0.0195080380    0.0004659321    
0.0324459300    0.0201496880    0.0004699975    
0.0326685910    0.0204001840    0.0004721303    
0.0328912520    0.0204915230    0.0004747531    
0.0331139130    0.0212047960    0.0004766627    
0.0333365740    0.0200485740    0.0004649902    
0.0335592350    0.0205957630    0.0004667614    
0.0337818960    0.0195807720    0.0004547524    
0.0340045570    0.0201713490    0.0004608262    
0.0342272170    0.0195007290    0.0004513139    
0.0344498780    0.0202029570    0.0004611874    
0.0346725390    0.0197759630    0.0004478374    
0.0348952000    0.0208021140    0.0004572169    
0.0351178610    0.0198368370    0.0004485264    
0.0353405220    0.0197871560    0.0004459237    
0.0355631830    0.0200273700    0.0004469326    
0.0357858440    0.0198578290    0.0004450370    
0.0360085050    0.0199980780    0.0004479552    
0.0362311660    0.0203288180    0.0004462755    
0.0364538270    0.0199363230    0.0004383992    
0.0366764880    0.0195030920    0.0004332951    
0.0368991490    0.0209746320    0.0004470791    
0.0371218100    0.0196893480    0.0004319252    
0.0373444710    0.0202851200    0.0004431855    
0.0375671320    0.0201198800    0.0004407340    
0.0377897930    0.0189542500    0.0004167028    
0.0380124540    0.0201761460    0.0004326220    
0.0382351150    0.0202967530    0.0004339132    
0.0384577760    0.0197250140    0.0004236310    
0.0386804370    0.0202858760    0.0004328900    
0.0389030980    0.0204256080    0.0004310889    
0.0391257590    0.0201582020    0.0004253505    
0.0393484200    0.0198533620    0.0004207014    
0.0395710810    0.0196834170    0.0004194612    
0.0397937420    0.0194152640    0.0004165944    
0.0400164030    0.0203395540    0.0004281300    
0.0402390640    0.0201261000    0.0004202066    
0.0404617250    0.0200367290    0.0004167992    
0.0406843860    0.0200850960    0.0004132701    
0.0409070470    0.0202800220    0.0004195967    
0.0411297080    0.0197362770    0.0004099289    
0.0413523690    0.0189480930    0.0004026954    
0.0415750300    0.0203332950    0.0004206989    
0.0417976910    0.0199972120    0.0004064172    
0.0420203520    0.0205555540    0.0004136002    
0.0422430130    0.0199148940    0.0004086450    
0.0424656740    0.0201513580    0.0004057138    
0.0426883350    0.0204921280    0.0004111604    
0.0429109960    0.0199147710    0.0004065933    
0.0431336570    0.0196480440    0.0003981712    
0.0433563180    0.0200213310    0.0004054031    
0.0435789790    0.0199777440    0.0003985994    
0.0438016400    0.0200268650    0.0004012602    
0.0440243010    0.0200636700    0.0003975538    
0.0442469620    0.0204005010    0.0004032791    
0.0444696230    0.0202940260    0.0004007829    
0.0446922840    0.0199691050    0.0003963810    
0.0449149450    0.0196838540    0.0003882787    
0.0451376060    0.0201730550    0.0003979286    
0.0453602670    0.0195063680    0.0003871958    
0.0455829280    0.0200363800    0.0003919670    
0.0458055890    0.0199681910    0.0003935813    
0.0460282500    0.0201861130    0.0003909513    
0.0462509110    0.0192104480    0.0003790142    
0.0464735720    0.0197786420    0.0003847956    
0.0466962330    0.0197926760    0.0003866819    
0.0469188940    0.0200787350    0.0003883621    
0.0471415550    0.0199212380    0.0003888228    
0.0473642160    0.0203264120    0.0003872576    
0.0475868770    0.0186931980    0.0003695289    
0.0478095380    0.0195002610    0.0003757701    
0.0480321990    0.0194839850    0.0003764362    
0.0482548600    0.0196101710    0.0003760079    
0.0484775210    0.0190382130    0.0003741624    
0.0487001820    0.0196129980    0.0003742094    
0.0489228430    0.0197773610    0.0003755722    
0.0491455040    0.0199126920    0.0003742485    
0.0493681650    0.0198342450    0.0003767203    
0.0495908260    0.0197119150    0.0003692380    
0.0498134870    0.0200114570    0.0003755744    
0.0500361480    0.0194359340    0.0003691550    
0.0502588090    0.0193952920    0.0003632434    
0.0504814700    0.0201780100    0.0003753439    
0.0507041310    0.0198646630    0.0003679903    
0.0509267920    0.0196788140    0.0003677801    
0.0511494530    0.0195596770    0.0003642202    
0.0513721140    0.0195744020    0.0003675661    
0.0515947750    0.0194082380    0.0003611499    
0.0518174360    0.0194075090    0.0003589677    
0.0520400970    0.0193881260    0.0003563007    
0.0522627580    0.0200786850    0.0003656719    
0.0524854190    0.0193709640    0.0003620899    
0.0527080800    0.0196308440    0.0003673329    
0.0529307410    0.0193577460    0.0003664820    
0.0531534020    0.0199265010    0.0003704732    
0.0533760630    0.0196563820    0.0003691055    
0.0535987240    0.0193908700    0.0003648925    
0.0538213850    0.0194563380    0.0003697427    
0.0540440460    0.0195370980    0.0003687558    
0.0542667070    0.0195956200    0.0003718528    
0.0544893680    0.0193833970    0.0003700308    
0.0547120290    0.0196900590    0.0003703914    
0.0549346900    0.0198572540    0.0003721564    
0.0551573510    0.0199491020    0.0003774072    
0.0553800120    0.0200886570    0.0003755053    
0.0556026730    0.0202282540    0.0003846204    
0.0558253340    0.0198025100    0.0003837379    
0.0560479950    0.0197653490    0.0003833778    
0.0562706560    0.0194974450    0.0003844521    
0.0564933170    0.0201537650    0.0003942634    
0.0567159780    0.0201401890    0.0003894051    
0.0569386390    0.0200002520    0.0003941367    
0.0571613000    0.0196464690    0.0003822241    
0.0573839610    0.0200894650    0.0003833002    
0.0576066220    0.0196566660    0.0003801985    
0.0578292830    0.0196217640    0.0003786039    
0.0580519440    0.0194282160    0.0003781928    
0.0582746050    0.0192426570    0.0003747227    
0.0584972660    0.0189942450    0.0003708710    
0.0587199270    0.0197571010    0.0003749847    
0.0589425880    0.0193226680    0.0003686700    
0.0591652490    0.0195436290    0.0003729537    
0.0593879100    0.0201168720    0.0003755737    
0.0596105710    0.0191788340    0.0003663260    
0.0598332320    0.0194725190    0.0003722752    
0.0600558930    0.0198363290    0.0003733412    
0.0602785540    0.0195139400    0.0003699034    
0.0605012150    0.0198088420    0.0003719028    
0.0607238760    0.0200785380    0.0003716973    
0.0609465370    0.0196270570    0.0003703878    
0.0611691980    0.0195490830    0.0003702372    
0.0613918590    0.0194401050    0.0003651730    
0.0616145200    0.0198301170    0.0003715173    
0.0618371810    0.0199543370    0.0003690189    
0.0620598420    0.0207750800    0.0003769197    
0.0622825030    0.0194274920    0.0003700643    
0.0625051640    0.0197696090    0.0003680656    
0.0627278250    0.0194357730    0.0003641932    
0.0629504860    0.0196111570    0.0003628586    
0.0631731470    0.0191154400    0.0003626755    
0.0633958080    0.0197885300    0.0003711292    
0.0636184690    0.0195993810    0.0003744953    
0.0638411300    0.0193885940    0.0003710778    
0.0640637910    0.0202312710    0.0003817221    
0.0642864520    0.0189533930    0.0003686705    
0.0645091130    0.0195643290    0.0003778475    
0.0647317740    0.0193295800    0.0003759879    
0.0649544350    0.0192359910    0.0003746639    
0.0651770960    0.0201454920    0.0003813274    
0.0653997570    0.0196126320    0.0003754344    
0.0656224180    0.0195103510    0.0003752685    
0.0658450790    0.0192410170    0.0003673127    
0.0660677400    0.0195395070    0.0003717262    
0.0662904010    0.0200739960    0.0003812740    
0.0665130620    0.0198284280    0.0003772910    
0.0667357230    0.0197292010    0.0003830371    
0.0669583840    0.0189990660    0.0003746250    
0.0671810450    0.0200975390    0.0003831754    
0.0674037060    0.0195376650    0.0003842009    
0.0676263670    0.0196025390    0.0003820207    
0.0678490280    0.0192605490    0.0003763578    
0.0680716890    0.0202992790    0.0003872329    
0.0682943500    0.0202111270    0.0003821592    
0.0685170110    0.0196455710    0.0003729350    
0.0687396720    0.0201962180    0.0003771208    
0.0689623330    0.0193546880    0.0003680104    
0.0691849940    0.0203545640    0.0003800113    
0.0694076550    0.0192414320    0.0003692772    
0.0696303160    0.0196006170    0.0003697572    
0.0698529770    0.0192615380    0.0003657767    
0.0700756380    0.0196569240    0.0003647684    
0.0702982990    0.0195755230    0.0003679766    
0.0705209600    0.0194915970    0.0003645359    
0.0707436210    0.0195359010    0.0003632740    
0.0709662820    0.0203157350    0.0003748699    
0.0711889430    0.0189424710    0.0003575324    
0.0714116040    0.0194535470    0.0003630632    
0.0716342650    0.0196386620    0.0003633053    
0.0718569260    0.0193941180    0.0003595822    
0.0720795870    0.0192690580    0.0003598708    
0.0723022480    0.0195974900    0.0003634778    
0.0725249090    0.0199930160    0.0003627308    
0.0727475700    0.0200816430    0.0003666390    
0.0729702310    0.0199602210    0.0003626135    
0.0731928920    0.0192435700    0.0003574674    
0.0734155530    0.0202647450    0.0003660975    
0.0736382140    0.0194047910    0.0003559464    
0.0738608750    0.0197952150    0.0003618319    
0.0740835360    0.0197365370    0.0003603983    
0.0743061970    0.0202145420    0.0003596006    
0.0745288580    0.0193983650    0.0003558884    
0.0747515190    0.0195602800    0.0003580764    
0.0749741800    0.0191097540    0.0003506525    
0.0751968410    0.0196070890    0.0003579748    
0.0754195020    0.0195201210    0.0003550874    
0.0756421630    0.0193738520    0.0003508628    
0.0758648240    0.0201311270    0.0003585140    
0.0760874850    0.0199587100    0.0003568040    
0.0763101460    0.0185389220    0.0003435491    
0.0765328070    0.0198298850    0.0003589450    
0.0767554680    0.0193629880    0.0003522873    
0.0769781290    0.0194895690    0.0003514059    
0.0772007900    0.0192280800    0.0003462412    
0.0774234510    0.0193213210    0.0003490539    
0.0776461120    0.0194294450    0.0003496971    
0.0778687730    0.0194388390    0.0003486261    
0.0780914340    0.0192102570    0.0003490467    
0.0783140950    0.0196743040    0.0003476329    
0.0785367560    0.0202313930    0.0003582040    
0.0787594170    0.0190669450    0.0003446271    
0.0789820780    0.0200557910    0.0003516396    
0.0792047390    0.0199637430    0.0003519788    
0.0794274000    0.0196764120    0.0003509172    
0.0796500610    0.0204908780    0.0003546111    
0.0798727220    0.0193259730    0.0003440659    
0.0800953830    0.0200054540    0.0003492572    
0.0803180440    0.0195185060    0.0003473836    
0.0805407050    0.0192909150    0.0003450312    
0.0807633660    0.0194214300    0.0003458750    
0.0809860270    0.0196879140    0.0003469539    
0.0812086880    0.0196916250    0.0003439880    
0.0814313490    0.0197503710    0.0003460719    
0.0816540100    0.0190086130    0.0003387381    
0.0818766710    0.0201445880    0.0003495092    
0.0820993320    0.0192676570    0.0003411942    
0.0823219930    0.0199203610    0.0003483560    
0.0825446540    0.0195599070    0.0003426820    
0.0827673150    0.0196533670    0.0003411920    
0.0829899760    0.0197723250    0.0003416137    
0.0832126370    0.0191101650    0.0003373491    
0.0834352980    0.0188291600    0.0003341109    
0.0836579590    0.0196897820    0.0003409007    
0.0838806200    0.0202586440    0.0003468722    
0.0841032810    0.0199844410    0.0003423781    
0.0843259420    0.0194592990    0.0003368093    
0.0845486030    0.0200481220    0.0003418673    
0.0847712640    0.0193207720    0.0003335633    
0.0849939250    0.0189951580    0.0003313165    
0.0852165860    0.0193288620    0.0003346519    
0.0854392470    0.0193453900    0.0003316244    
0.0856619080    0.0197583100    0.0003376133    
0.0858845690    0.0194040060    0.0003315592    
0.0861072300    0.0194603120    0.0003343321    
0.0863298910    0.0192177260    0.0003339815    
0.0865525520    0.0195318670    0.0003337927    
0.0867752130    0.0187969790    0.0003248108    
0.0869978740    0.0190395870    0.0003277333    
0.0872205350    0.0189067640    0.0003261727    
0.0874431960    0.0196270520    0.0003323279    
0.0876658570    0.0192110290    0.0003300494    
0.0878885180    0.0196638670    0.0003344892    
0.0881111790    0.0198120660    0.0003353164    
0.0883338400    0.0188614690    0.0003223830    
0.0885565010    0.0193425250    0.0003308954    
0.0887791620    0.0193845710    0.0003269592    
0.0890018230    0.0192226950    0.0003287492    
0.0892244840    0.0193275980    0.0003302054    
0.0894471450    0.0192261970    0.0003279470    
0.0896698060    0.0194922580    0.0003289628    
0.0898924670    0.0194156280    0.0003298373    
0.0901151280    0.0195851410    0.0003276959    
0.0903377890    0.0195463770    0.0003301112    
0.0905604500    0.0191629910    0.0003253578    
0.0907831110    0.0193645800    0.0003262509    
0.0910057720    0.0194262230    0.0003282693    
0.0912284330    0.0196015030    0.0003250257    
0.0914510940    0.0188894430    0.0003226255    
0.0916737550    0.0198814460    0.0003301673    
0.0918964160    0.0196048590    0.0003292262    
0.0921190770    0.0190239120    0.0003213792    
0.0923417380    0.0195339870    0.0003257928    
0.0925643990    0.0192600640    0.0003227088    
0.0927870600    0.0194728700    0.0003258174    
0.0930097210    0.0193891030    0.0003223469    
0.0932323820    0.0193054110    0.0003240148    
