# Diamond Light Source Ltd.
# Data extracted from: /dls/b21/data/2018/cm19678-3/processed/b21-386631_00347.dat
q(1/A)          Column          Error           
0.0035000000    2.0754846000    0.0244632190    
0.0037226610    1.8712906000    0.0227395970    
0.0039453220    1.6293802000    0.0193032310    
0.0041679830    1.2975319000    0.0141462910    
0.0043906440    0.9825036500    0.0117743240    
0.0046133050    0.7908824000    0.0101411850    
0.0048359660    0.5981477300    0.0083422780    
0.0050586270    0.4733353900    0.0072941779    
0.0052812880    0.4200182200    0.0064965081    
0.0055039490    0.3800150800    0.0058756632    
0.0057266100    0.3237711900    0.0052467423    
0.0059492710    0.2728418800    0.0048164402    
0.0061719320    0.2209044100    0.0041761927    
0.0063945930    0.2086612800    0.0041080149    
0.0066172539    0.1849792800    0.0036319352    
0.0068399149    0.1642769900    0.0033687657    
0.0070625759    0.1502322100    0.0031885012    
0.0072852369    0.1237730800    0.0028508248    
0.0075078979    0.1167079800    0.0027546621    
0.0077305589    0.1001663400    0.0025033763    
0.0079532199    0.0963751520    0.0024215168    
0.0081758809    0.0885696460    0.0023429811    
0.0083985419    0.0813079020    0.0020937850    
0.0086212029    0.0764553200    0.0020303439    
0.0088438639    0.0739587260    0.0019808794    
0.0090665249    0.0641411780    0.0017816994    
0.0092891859    0.0650787130    0.0018732051    
0.0095118469    0.0633270050    0.0017769986    
0.0097345079    0.0557830840    0.0016197954    
0.0099571689    0.0540476110    0.0015615220    
0.0101798300    0.0514760730    0.0015239215    
0.0104024910    0.0481708080    0.0014691959    
0.0106251520    0.0476864410    0.0014667545    
0.0108478130    0.0450968540    0.0013890758    
0.0110704740    0.0427776400    0.0012880392    
0.0112931350    0.0407666370    0.0012610919    
0.0115157960    0.0403697290    0.0012476205    
0.0117384570    0.0402461330    0.0012349856    
0.0119611180    0.0368565780    0.0011852276    
0.0121837790    0.0370281000    0.0011680149    
0.0124064400    0.0357310530    0.0010995471    
0.0126291010    0.0366239330    0.0010992678    
0.0128517620    0.0345190550    0.0010698762    
0.0130744230    0.0338129120    0.0010510234    
0.0132970840    0.0321890070    0.0010204601    
0.0135197450    0.0303936240    0.0009773931    
0.0137424060    0.0315092090    0.0009813144    
0.0139650670    0.0301211460    0.0009380849    
0.0141877280    0.0309000170    0.0009522359    
0.0144103890    0.0295318570    0.0009148648    
0.0146330500    0.0273951300    0.0008755521    
0.0148557110    0.0289972970    0.0008970143    
0.0150783720    0.0274556010    0.0008656293    
0.0153010330    0.0282519840    0.0008657134    
0.0155236940    0.0273927260    0.0008473778    
0.0157463550    0.0275402070    0.0008349352    
0.0159690160    0.0257740790    0.0008046546    
0.0161916770    0.0267264240    0.0008147694    
0.0164143380    0.0267798870    0.0008217628    
0.0166369990    0.0247750050    0.0007660337    
0.0168596600    0.0242007430    0.0007504332    
0.0170823210    0.0261847150    0.0007738292    
0.0173049820    0.0244624440    0.0007492405    
0.0175276430    0.0238328040    0.0007473339    
0.0177503040    0.0240797380    0.0007320456    
0.0179729650    0.0238662740    0.0007215659    
0.0181956260    0.0237364930    0.0007058058    
0.0184182870    0.0249685610    0.0007204801    
0.0186409480    0.0227381190    0.0006918989    
0.0188636090    0.0242617230    0.0007102091    
0.0190862700    0.0237714160    0.0007018969    
0.0193089310    0.0236353890    0.0006987949    
0.0195315920    0.0230576290    0.0006667285    
0.0197542530    0.0227574920    0.0006633400    
0.0199769140    0.0236275830    0.0006759020    
0.0201995750    0.0228184640    0.0006538269    
0.0204222360    0.0239741890    0.0006759329    
0.0206448970    0.0215116370    0.0006357271    
0.0208675580    0.0222567620    0.0006333277    
0.0210902190    0.0225964860    0.0006443003    
0.0213128800    0.0219337970    0.0006261690    
0.0215355410    0.0220251610    0.0006199967    
0.0217582020    0.0204369840    0.0005972255    
0.0219808630    0.0217758950    0.0006156691    
0.0222035240    0.0224769750    0.0006198334    
0.0224261850    0.0213734840    0.0005990473    
0.0226488460    0.0232698680    0.0006203644    
0.0228715070    0.0208340170    0.0005855395    
0.0230941680    0.0219366170    0.0006008341    
0.0233168290    0.0219302650    0.0006022435    
0.0235394900    0.0216753360    0.0005921251    
0.0237621510    0.0213970350    0.0005724735    
0.0239848120    0.0216461490    0.0005764625    
0.0242074730    0.0211197180    0.0005648518    
0.0244301340    0.0216676180    0.0005727846    
0.0246527950    0.0213766970    0.0005741944    
0.0248754560    0.0197192150    0.0005390904    
0.0250981170    0.0208287060    0.0005552841    
0.0253207780    0.0210803770    0.0005419496    
0.0255434390    0.0210488740    0.0005473244    
0.0257661000    0.0216866110    0.0005573509    
0.0259887610    0.0207794510    0.0005397715    
0.0262114220    0.0216675010    0.0005541216    
0.0264340830    0.0212335710    0.0005410815    
0.0266567440    0.0211626310    0.0005368391    
0.0268794050    0.0207200920    0.0005290284    
0.0271020660    0.0220666510    0.0005437379    
0.0273247270    0.0211140330    0.0005286775    
0.0275473880    0.0200807700    0.0005145533    
0.0277700490    0.0206258470    0.0005184076    
0.0279927100    0.0202802960    0.0005095616    
0.0282153710    0.0204262580    0.0005138783    
0.0284380320    0.0212763040    0.0005214217    
0.0286606930    0.0200092760    0.0005013298    
0.0288833540    0.0206779680    0.0005106060    
0.0291060150    0.0211295410    0.0005156615    
0.0293286760    0.0207405670    0.0005037740    
0.0295513370    0.0209976290    0.0005013667    
0.0297739980    0.0202266620    0.0004974939    
0.0299966590    0.0208893330    0.0004969427    
0.0302193200    0.0215147790    0.0005116768    
0.0304419810    0.0209222740    0.0005055105    
0.0306646420    0.0206460400    0.0004879893    
0.0308873030    0.0203537220    0.0004824295    
0.0311099640    0.0211032300    0.0004925072    
0.0313326250    0.0209305180    0.0004850541    
0.0315552860    0.0198617660    0.0004786315    
0.0317779470    0.0200812470    0.0004816880    
0.0320006080    0.0213419960    0.0004852961    
0.0322232690    0.0206085770    0.0004788809    
0.0324459300    0.0206089570    0.0004753101    
0.0326685910    0.0197871640    0.0004649693    
0.0328912520    0.0201384050    0.0004706314    
0.0331139130    0.0197035900    0.0004594672    
0.0333365740    0.0194435320    0.0004579070    
0.0335592350    0.0201503340    0.0004616733    
0.0337818960    0.0196430250    0.0004554617    
0.0340045570    0.0206018210    0.0004657042    
0.0342272170    0.0198860630    0.0004557381    
0.0344498780    0.0197386110    0.0004558437    
0.0346725390    0.0194604710    0.0004442382    
0.0348952000    0.0198061050    0.0004461242    
0.0351178610    0.0205151550    0.0004561176    
0.0353405220    0.0199166670    0.0004473679    
0.0355631830    0.0197769030    0.0004441165    
0.0357858440    0.0200461930    0.0004471301    
0.0360085050    0.0206691930    0.0004553967    
0.0362311660    0.0206901330    0.0004502112    
0.0364538270    0.0201954670    0.0004412268    
0.0366764880    0.0203105570    0.0004421612    
0.0368991490    0.0206399240    0.0004434849    
0.0371218100    0.0198682480    0.0004338707    
0.0373444710    0.0199838230    0.0004398694    
0.0375671320    0.0197325810    0.0004364590    
0.0377897930    0.0208677290    0.0004372183    
0.0380124540    0.0198317930    0.0004289021    
0.0382351150    0.0197390480    0.0004278981    
0.0384577760    0.0202151720    0.0004288500    
0.0386804370    0.0202939620    0.0004329640    
0.0389030980    0.0198603880    0.0004250704    
0.0391257590    0.0191967700    0.0004150714    
0.0393484200    0.0196472050    0.0004184995    
0.0395710810    0.0201202800    0.0004240785    
0.0397937420    0.0204510140    0.0004275499    
0.0400164030    0.0203564220    0.0004282953    
0.0402390640    0.0203179600    0.0004221928    
0.0404617250    0.0202696720    0.0004192031    
0.0406843860    0.0202029970    0.0004144695    
0.0409070470    0.0197753710    0.0004143313    
0.0411297080    0.0195478520    0.0004079558    
0.0413523690    0.0197942410    0.0004115769    
0.0415750300    0.0194443500    0.0004113882    
0.0417976910    0.0198226290    0.0004046277    
0.0420203520    0.0199718730    0.0004076742    
0.0422430130    0.0203246160    0.0004128155    
0.0424656740    0.0196356360    0.0004004771    
0.0426883350    0.0191793450    0.0003977611    
0.0429109960    0.0192578770    0.0003998199    
0.0431336570    0.0196146550    0.0003978214    
0.0433563180    0.0191747330    0.0003967281    
0.0435789790    0.0193642690    0.0003924204    
0.0438016400    0.0200337670    0.0004013180    
0.0440243010    0.0201097930    0.0003979992    
0.0442469620    0.0198094440    0.0003973828    
0.0444696230    0.0194064460    0.0003919095    
0.0446922840    0.0194251070    0.0003909335    
0.0449149450    0.0195601980    0.0003870462    
0.0451376060    0.0201326640    0.0003975187    
0.0453602670    0.0199048960    0.0003911200    
0.0455829280    0.0196135280    0.0003877979    
0.0458055890    0.0200291150    0.0003941701    
0.0460282500    0.0196246940    0.0003854654    
0.0462509110    0.0196654770    0.0003834658    
0.0464735720    0.0195828880    0.0003828758    
0.0466962330    0.0199652940    0.0003883534    
0.0469188940    0.0201827520    0.0003893557    
0.0471415550    0.0199428730    0.0003890228    
0.0473642160    0.0194842130    0.0003791392    
0.0475868770    0.0202845110    0.0003849254    
0.0478095380    0.0200060020    0.0003806009    
0.0480321990    0.0205519290    0.0003866042    
0.0482548600    0.0192846430    0.0003728633    
0.0484775210    0.0203239210    0.0003865792    
0.0487001820    0.0196832780    0.0003748686    
0.0489228430    0.0197477110    0.0003752799    
0.0491455040    0.0193910890    0.0003693038    
0.0493681650    0.0199976790    0.0003782585    
0.0495908260    0.0194687330    0.0003669429    
0.0498134870    0.0194112090    0.0003698883    
0.0500361480    0.0199536530    0.0003740287    
0.0502588090    0.0197139120    0.0003662045    
0.0504814700    0.0195345560    0.0003693003    
0.0507041310    0.0197953690    0.0003673375    
0.0509267920    0.0199869860    0.0003706381    
0.0511494530    0.0197009830    0.0003655231    
0.0513721140    0.0203393820    0.0003746689    
0.0515947750    0.0200186480    0.0003667748    
0.0518174360    0.0194927170    0.0003597447    
0.0520400970    0.0197995150    0.0003600507    
0.0522627580    0.0200042930    0.0003649835    
0.0524854190    0.0199654430    0.0003675936    
0.0527080800    0.0198634170    0.0003694920    
0.0529307410    0.0196896650    0.0003696001    
0.0531534020    0.0194088110    0.0003656187    
0.0533760630    0.0204869420    0.0003768122    
0.0535987240    0.0200901070    0.0003714027    
0.0538213850    0.0201297380    0.0003760762    
0.0540440460    0.0188678540    0.0003623746    
0.0542667070    0.0203001060    0.0003784673    
0.0544893680    0.0201875380    0.0003776176    
0.0547120290    0.0198213150    0.0003716134    
0.0549346900    0.0199886400    0.0003733749    
0.0551573510    0.0197409220    0.0003754221    
0.0553800120    0.0192522910    0.0003675949    
0.0556026730    0.0190278120    0.0003730226    
0.0558253340    0.0201731730    0.0003873016    
0.0560479950    0.0191916740    0.0003777625    
0.0562706560    0.0199587320    0.0003889623    
0.0564933170    0.0191268650    0.0003840767    
0.0567159780    0.0191753830    0.0003799527    
0.0569386390    0.0198515510    0.0003926576    
0.0571613000    0.0201658590    0.0003872326    
0.0573839610    0.0192912270    0.0003755973    
0.0576066220    0.0193761220    0.0003774649    
0.0578292830    0.0197959650    0.0003802700    
0.0580519440    0.0195080900    0.0003789586    
0.0582746050    0.0200369110    0.0003823671    
0.0584972660    0.0200575950    0.0003811000    
0.0587199270    0.0198983140    0.0003763117    
0.0589425880    0.0190964930    0.0003664955    
0.0591652490    0.0198556550    0.0003759085    
0.0593879100    0.0196529770    0.0003712075    
0.0596105710    0.0196045400    0.0003703587    
0.0598332320    0.0199767030    0.0003770532    
0.0600558930    0.0194909150    0.0003700659    
0.0602785540    0.0194637520    0.0003694170    
0.0605012150    0.0190187600    0.0003644002    
0.0607238760    0.0193480610    0.0003648630    
0.0609465370    0.0190667990    0.0003650527    
0.0611691980    0.0196180880    0.0003708795    
0.0613918590    0.0194252830    0.0003650234    
0.0616145200    0.0198429100    0.0003716266    
0.0618371810    0.0196188310    0.0003658931    
0.0620598420    0.0196866560    0.0003669029    
0.0622825030    0.0198211200    0.0003737838    
0.0625051640    0.0201796160    0.0003718521    
0.0627278250    0.0199601160    0.0003690627    
0.0629504860    0.0194892010    0.0003617183    
0.0631731470    0.0194652660    0.0003659686    
0.0633958080    0.0201562890    0.0003745513    
0.0636184690    0.0195052500    0.0003735843    
0.0638411300    0.0193590870    0.0003707848    
0.0640637910    0.0196107590    0.0003758119    
0.0642864520    0.0200135890    0.0003788306    
0.0645091130    0.0199572560    0.0003816121    
0.0647317740    0.0190286460    0.0003730390    
0.0649544350    0.0191327410    0.0003736464    
0.0651770960    0.0197906850    0.0003779437    
0.0653997570    0.0192809470    0.0003722357    
0.0656224180    0.0197762950    0.0003778067    
0.0658450790    0.0196886690    0.0003715505    
0.0660677400    0.0191141110    0.0003676470    
0.0662904010    0.0201597510    0.0003820767    
0.0665130620    0.0195616940    0.0003747341    
0.0667357230    0.0193488380    0.0003793161    
0.0669583840    0.0197218600    0.0003816737    
0.0671810450    0.0195119880    0.0003775414    
0.0674037060    0.0194458990    0.0003832867    
0.0676263670    0.0193036450    0.0003790863    
0.0678490280    0.0188623530    0.0003724365    
0.0680716890    0.0197367510    0.0003818189    
0.0682943500    0.0197258650    0.0003775328    
0.0685170110    0.0191276830    0.0003679762    
0.0687396720    0.0194768370    0.0003703329    
0.0689623330    0.0193395950    0.0003678564    
0.0691849940    0.0196227010    0.0003731064    
0.0694076550    0.0194033330    0.0003708170    
0.0696303160    0.0196483280    0.0003701964    
0.0698529770    0.0189201050    0.0003625100    
0.0700756380    0.0192835380    0.0003612772    
0.0702982990    0.0198856660    0.0003708696    
0.0705209600    0.0198722560    0.0003680678    
0.0707436210    0.0193118850    0.0003611749    
0.0709662820    0.0198027400    0.0003700962    
0.0711889430    0.0203989450    0.0003710126    
0.0714116040    0.0198860730    0.0003670667    
0.0716342650    0.0196980320    0.0003638438    
0.0718569260    0.0200463400    0.0003655682    
0.0720795870    0.0196846420    0.0003637205    
0.0723022480    0.0199469140    0.0003666935    
0.0725249090    0.0200576860    0.0003633067    
0.0727475700    0.0196655050    0.0003628100    
0.0729702310    0.0197087760    0.0003603121    
0.0731928920    0.0203181440    0.0003673020    
0.0734155530    0.0195559560    0.0003596279    
0.0736382140    0.0192143540    0.0003541854    
0.0738608750    0.0192914680    0.0003571882    
0.0740835360    0.0194787700    0.0003580269    
0.0743061970    0.0199127530    0.0003568961    
0.0745288580    0.0195017250    0.0003568251    
0.0747515190    0.0195263950    0.0003577559    
0.0749741800    0.0196877200    0.0003559055    
0.0751968410    0.0200699840    0.0003621655    
0.0754195020    0.0199775990    0.0003592141    
0.0756421630    0.0199445950    0.0003559833    
0.0758648240    0.0191020960    0.0003492209    
0.0760874850    0.0194345590    0.0003520777    
0.0763101460    0.0187033860    0.0003450598    
0.0765328070    0.0195688810    0.0003565648    
0.0767554680    0.0201566160    0.0003594242    
0.0769781290    0.0198686010    0.0003547964    
0.0772007900    0.0195449450    0.0003490725    
0.0774234510    0.0191562790    0.0003475500    
0.0776461120    0.0191765980    0.0003474044    
0.0778687730    0.0198378690    0.0003521762    
0.0780914340    0.0197545570    0.0003539470    
0.0783140950    0.0189668440    0.0003413158    
0.0785367560    0.0201668270    0.0003576218    
0.0787594170    0.0191655210    0.0003455070    
0.0789820780    0.0197155790    0.0003486345    
0.0792047390    0.0191807360    0.0003449974    
0.0794274000    0.0204137440    0.0003574215    
0.0796500610    0.0197042450    0.0003477280    
0.0798727220    0.0195760070    0.0003462747    
0.0800953830    0.0193092580    0.0003431165    
0.0803180440    0.0193010180    0.0003454330    
0.0805407050    0.0197156030    0.0003487985    
0.0807633660    0.0192478660    0.0003443163    
0.0809860270    0.0187024560    0.0003381496    
0.0812086880    0.0194201150    0.0003415986    
0.0814313490    0.0200706220    0.0003488565    
0.0816540100    0.0194421290    0.0003425693    
0.0818766710    0.0192399600    0.0003415617    
0.0820993320    0.0194719760    0.0003429887    
0.0823219930    0.0198826810    0.0003480165    
0.0825446540    0.0193546830    0.0003408698    
0.0827673150    0.0191547260    0.0003368263    
0.0829899760    0.0196885770    0.0003408798    
0.0832126370    0.0199665760    0.0003448155    
0.0834352980    0.0199070310    0.0003435312    
0.0836579590    0.0196768600    0.0003407791    
0.0838806200    0.0193072740    0.0003386199    
0.0841032810    0.0198484030    0.0003412011    
0.0843259420    0.0198254400    0.0003399535    
0.0845486030    0.0197613480    0.0003394038    
0.0847712640    0.0192505730    0.0003329473    
0.0849939250    0.0197568470    0.0003378844    
0.0852165860    0.0195247510    0.0003363338    
0.0854392470    0.0191055440    0.0003295529    
0.0856619080    0.0194687620    0.0003351209    
0.0858845690    0.0199297570    0.0003360115    
0.0861072300    0.0190284400    0.0003305921    
0.0863298910    0.0194894170    0.0003363245    
0.0865525520    0.0190173910    0.0003293579    
0.0867752130    0.0196097090    0.0003317491    
0.0869978740    0.0192246600    0.0003293130    
0.0872205350    0.0193445730    0.0003299182    
0.0874431960    0.0192376950    0.0003290057    
0.0876658570    0.0194480780    0.0003320700    
0.0878885180    0.0195432720    0.0003334525    
0.0881111790    0.0194817990    0.0003325004    
0.0883338400    0.0190312050    0.0003238211    
0.0885565010    0.0195112370    0.0003323259    
0.0887791620    0.0193448680    0.0003266149    
0.0890018230    0.0194352390    0.0003305523    
0.0892244840    0.0190895730    0.0003281565    
0.0894471450    0.0194824100    0.0003301155    
0.0896698060    0.0200129880    0.0003333184    
0.0898924670    0.0192464350    0.0003283877    
0.0901151280    0.0196114420    0.0003279065    
0.0903377890    0.0196511880    0.0003309857    
0.0905604500    0.0194436150    0.0003277221    
0.0907831110    0.0194129470    0.0003266488    
0.0910057720    0.0186929340    0.0003220049    
0.0912284330    0.0196488920    0.0003254091    
0.0914510940    0.0194614130    0.0003274643    
0.0916737550    0.0188440840    0.0003214292    
0.0918964160    0.0191614730    0.0003254727    
0.0921190770    0.0194680010    0.0003250994    
0.0923417380    0.0203207130    0.0003322792    
0.0925643990    0.0188696820    0.0003194125    
0.0927870600    0.0200768500    0.0003308223    
0.0930097210    0.0201167940    0.0003283308    
0.0932323820    0.0201254280    0.0003308153    
