# Diamond Light Source Ltd.
# Data extracted from: /dls/b21/data/2018/cm19678-3/processed/b21-386631_00346.dat
q(1/A)          Column          Error           
0.0035000000    2.1027311000    0.0246224150    
0.0037226610    1.8592795000    0.0226657140    
0.0039453220    1.6397859000    0.0193640990    
0.0041679830    1.2949743000    0.0141318520    
0.0043906440    0.9645165500    0.0116656420    
0.0046133050    0.7739239300    0.0100315220    
0.0048359660    0.5825165900    0.0082322681    
0.0050586270    0.4653223700    0.0072319224    
0.0052812880    0.4262185700    0.0065440564    
0.0055039490    0.3824414100    0.0058941864    
0.0057266100    0.3223884300    0.0052353447    
0.0059492710    0.2649162600    0.0047458050    
0.0061719320    0.2230206000    0.0041960027    
0.0063945930    0.1975674900    0.0039971803    
0.0066172539    0.1858221000    0.0036400736    
0.0068399149    0.1687556000    0.0034142590    
0.0070625759    0.1444023800    0.0031259149    
0.0072852369    0.1271130300    0.0028889324    
0.0075078979    0.1189753700    0.0027811954    
0.0077305589    0.1016608400    0.0025218950    
0.0079532199    0.0934482060    0.0023843794    
0.0081758809    0.0942652770    0.0024170584    
0.0083985419    0.0829735910    0.0021150497    
0.0086212029    0.0802779050    0.0020804088    
0.0088438639    0.0731047700    0.0019693418    
0.0090665249    0.0646316080    0.0017884359    
0.0092891859    0.0667455290    0.0018969761    
0.0095118469    0.0576883920    0.0016959840    
0.0097345079    0.0535687370    0.0015872654    
0.0099571689    0.0535025190    0.0015535738    
0.0101798300    0.0489913540    0.0014866356    
0.0104024910    0.0500045480    0.0014968470    
0.0106251520    0.0468260070    0.0014534110    
0.0108478130    0.0477462960    0.0014292480    
0.0110704740    0.0440544210    0.0013070745    
0.0112931350    0.0424801780    0.0012872781    
0.0115157960    0.0440296380    0.0013029029    
0.0117384570    0.0367570990    0.0011801993    
0.0119611180    0.0377305890    0.0011991568    
0.0121837790    0.0375781490    0.0011766175    
0.0124064400    0.0357285730    0.0010994708    
0.0126291010    0.0346088640    0.0010685617    
0.0128517620    0.0355445330    0.0010856140    
0.0130744230    0.0323405410    0.0010278499    
0.0132970840    0.0313133630    0.0010064496    
0.0135197450    0.0308943730    0.0009853775    
0.0137424060    0.0323932520    0.0009949508    
0.0139650670    0.0309370310    0.0009506719    
0.0141877280    0.0297241640    0.0009339098    
0.0144103890    0.0298415420    0.0009196172    
0.0146330500    0.0293239050    0.0009058185    
0.0148557110    0.0293282440    0.0009020873    
0.0150783720    0.0285998730    0.0008834530    
0.0153010330    0.0272420410    0.0008500695    
0.0155236940    0.0265782730    0.0008346565    
0.0157463550    0.0263993030    0.0008174295    
0.0159690160    0.0263249120    0.0008131793    
0.0161916770    0.0261533190    0.0008059584    
0.0164143380    0.0256181510    0.0008037129    
0.0166369990    0.0274969250    0.0008069898    
0.0168596600    0.0255020900    0.0007703188    
0.0170823210    0.0270061150    0.0007858455    
0.0173049820    0.0242542300    0.0007460192    
0.0175276430    0.0238545820    0.0007476493    
0.0177503040    0.0246121450    0.0007400685    
0.0179729650    0.0251080210    0.0007400734    
0.0181956260    0.0235459740    0.0007029432    
0.0184182870    0.0243223880    0.0007110715    
0.0186409480    0.0233049540    0.0007004456    
0.0188636090    0.0232206200    0.0006947799    
0.0190862700    0.0234796380    0.0006975518    
0.0193089310    0.0241089020    0.0007057356    
0.0195315920    0.0233066370    0.0006702958    
0.0197542530    0.0228912490    0.0006652634    
0.0199769140    0.0238772830    0.0006794405    
0.0201995750    0.0229854770    0.0006561925    
0.0204222360    0.0218763580    0.0006456603    
0.0206448970    0.0228627470    0.0006553648    
0.0208675580    0.0223092780    0.0006340525    
0.0210902190    0.0222275210    0.0006389963    
0.0213128800    0.0223612680    0.0006322193    
0.0215355410    0.0226867840    0.0006292182    
0.0217582020    0.0224773770    0.0006263076    
0.0219808630    0.0229057460    0.0006314173    
0.0222035240    0.0223386820    0.0006179022    
0.0224261850    0.0217413520    0.0006041596    
0.0226488460    0.0211514530    0.0005914322    
0.0228715070    0.0221160950    0.0006032659    
0.0230941680    0.0218363610    0.0005994388    
0.0233168290    0.0208868790    0.0005877219    
0.0235394900    0.0223693350    0.0006015088    
0.0237621510    0.0212730270    0.0005707924    
0.0239848120    0.0211227180    0.0005694303    
0.0242074730    0.0216016450    0.0005712403    
0.0244301340    0.0219386440    0.0005763358    
0.0246527950    0.0204653020    0.0005618012    
0.0248754560    0.0204988970    0.0005496256    
0.0250981170    0.0217746270    0.0005677333    
0.0253207780    0.0199643650    0.0005273906    
0.0255434390    0.0207201030    0.0005430142    
0.0257661000    0.0211837980    0.0005508327    
0.0259887610    0.0215351020    0.0005494793    
0.0262114220    0.0209149850    0.0005443953    
0.0264340830    0.0213010330    0.0005419215    
0.0266567440    0.0213381860    0.0005390425    
0.0268794050    0.0202459340    0.0005229221    
0.0271020660    0.0205378430    0.0005245462    
0.0273247270    0.0212978810    0.0005309558    
0.0275473880    0.0200530080    0.0005141797    
0.0277700490    0.0216015670    0.0005305093    
0.0279927100    0.0203044930    0.0005098478    
0.0282153710    0.0199077560    0.0005072966    
0.0284380320    0.0207764980    0.0005152430    
0.0286606930    0.0214145940    0.0005186181    
0.0288833540    0.0218238280    0.0005245446    
0.0291060150    0.0201591270    0.0005036635    
0.0293286760    0.0199805270    0.0004944403    
0.0295513370    0.0208405550    0.0004994706    
0.0297739980    0.0208737390    0.0005053715    
0.0299966590    0.0197412370    0.0004830767    
0.0302193200    0.0205033290    0.0004994873    
0.0304419810    0.0207009880    0.0005028127    
0.0306646420    0.0201371420    0.0004819208    
0.0308873030    0.0204209120    0.0004832083    
0.0311099640    0.0204466450    0.0004847682    
0.0313326250    0.0207042630    0.0004824085    
0.0315552860    0.0207369200    0.0004890457    
0.0317779470    0.0202531540    0.0004837285    
0.0320006080    0.0206012100    0.0004767828    
0.0322232690    0.0197058620    0.0004682590    
0.0324459300    0.0198402250    0.0004663450    
0.0326685910    0.0206598180    0.0004750953    
0.0328912520    0.0201480050    0.0004707272    
0.0331139130    0.0203021820    0.0004663781    
0.0333365740    0.0206499050    0.0004718823    
0.0335592350    0.0200008590    0.0004599418    
0.0337818960    0.0203491840    0.0004635602    
0.0340045570    0.0202635420    0.0004618490    
0.0342272170    0.0201562170    0.0004588074    
0.0344498780    0.0197372400    0.0004558120    
0.0346725390    0.0196213640    0.0004460553    
0.0348952000    0.0198851150    0.0004469976    
0.0351178610    0.0202298040    0.0004529187    
0.0353405220    0.0197344190    0.0004453009    
0.0355631830    0.0196458870    0.0004426276    
0.0357858440    0.0206830440    0.0004541612    
0.0360085050    0.0202363440    0.0004505875    
0.0362311660    0.0201205410    0.0004439555    
0.0364538270    0.0196253540    0.0004349393    
0.0366764880    0.0193273780    0.0004313116    
0.0368991490    0.0197618800    0.0004339342    
0.0371218100    0.0200184520    0.0004354926    
0.0373444710    0.0198468960    0.0004383446    
0.0375671320    0.0198470500    0.0004377079    
0.0377897930    0.0201151670    0.0004292472    
0.0380124540    0.0201364990    0.0004321694    
0.0382351150    0.0201086870    0.0004318710    
0.0384577760    0.0201500890    0.0004281443    
0.0386804370    0.0209760520    0.0004401647    
0.0389030980    0.0211326060    0.0004384585    
0.0391257590    0.0197249050    0.0004207277    
0.0393484200    0.0202876290    0.0004252508    
0.0395710810    0.0198686260    0.0004214035    
0.0397937420    0.0197613870    0.0004202648    
0.0400164030    0.0206163180    0.0004310058    
0.0402390640    0.0197375810    0.0004161047    
0.0404617250    0.0197741290    0.0004140328    
0.0406843860    0.0203716420    0.0004161814    
0.0409070470    0.0209198140    0.0004261371    
0.0411297080    0.0196997340    0.0004095234    
0.0413523690    0.0193992350    0.0004074355    
0.0415750300    0.0201914780    0.0004192027    
0.0417976910    0.0199368770    0.0004057780    
0.0420203520    0.0190634940    0.0003982813    
0.0422430130    0.0200129910    0.0004096244    
0.0424656740    0.0191687350    0.0003956735    
0.0426883350    0.0199203890    0.0004053585    
0.0429109960    0.0194474450    0.0004017690    
0.0431336570    0.0198472650    0.0004001595    
0.0433563180    0.0194114280    0.0003991553    
0.0435789790    0.0201104050    0.0003998954    
0.0438016400    0.0201609950    0.0004025763    
0.0440243010    0.0200768910    0.0003976597    
0.0442469620    0.0198319820    0.0003975950    
0.0444696230    0.0188511190    0.0003862480    
0.0446922840    0.0192349490    0.0003890018    
0.0449149450    0.0198421910    0.0003898126    
0.0451376060    0.0204452050    0.0004005785    
0.0453602670    0.0197113950    0.0003892008    
0.0455829280    0.0197578400    0.0003892084    
0.0458055890    0.0197174580    0.0003910778    
0.0460282500    0.0194870580    0.0003840980    
0.0462509110    0.0197762650    0.0003845311    
0.0464735720    0.0198435140    0.0003854018    
0.0466962330    0.0199110340    0.0003878119    
0.0469188940    0.0198058150    0.0003856893    
0.0471415550    0.0190992110    0.0003806921    
0.0473642160    0.0201394200    0.0003854479    
0.0475868770    0.0197060900    0.0003793844    
0.0478095380    0.0191213110    0.0003720776    
0.0480321990    0.0200560100    0.0003818980    
0.0482548600    0.0197807050    0.0003776154    
0.0484775210    0.0200798760    0.0003842379    
0.0487001820    0.0196676340    0.0003747066    
0.0489228430    0.0201884760    0.0003794317    
0.0491455040    0.0197202900    0.0003724125    
0.0493681650    0.0195527240    0.0003740136    
0.0495908260    0.0193359850    0.0003656771    
0.0498134870    0.0197693040    0.0003732716    
0.0500361480    0.0191530560    0.0003664357    
0.0502588090    0.0197805650    0.0003668103    
0.0504814700    0.0200288600    0.0003739306    
0.0507041310    0.0191941770    0.0003617039    
0.0509267920    0.0197106940    0.0003680547    
0.0511494530    0.0196250210    0.0003648051    
0.0513721140    0.0196685490    0.0003684257    
0.0515947750    0.0198223950    0.0003649599    
0.0518174360    0.0194980020    0.0003597809    
0.0520400970    0.0199552690    0.0003614516    
0.0522627580    0.0194169340    0.0003595729    
0.0524854190    0.0191587280    0.0003600781    
0.0527080800    0.0202331630    0.0003729021    
0.0529307410    0.0193206170    0.0003661073    
0.0531534020    0.0197242640    0.0003685652    
0.0533760630    0.0200419900    0.0003726848    
0.0535987240    0.0198964760    0.0003695958    
0.0538213850    0.0194679340    0.0003698295    
0.0540440460    0.0202583960    0.0003754775    
0.0542667070    0.0195860910    0.0003717389    
0.0544893680    0.0197906070    0.0003738738    
0.0547120290    0.0202449010    0.0003755501    
0.0549346900    0.0193944690    0.0003677709    
0.0551573510    0.0202464260    0.0003801852    
0.0553800120    0.0202054310    0.0003765714    
0.0556026730    0.0194506020    0.0003771310    
0.0558253340    0.0204171360    0.0003896230    
0.0560479950    0.0198446430    0.0003841218    
0.0562706560    0.0197451150    0.0003868618    
0.0564933170    0.0195188450    0.0003879788    
0.0567159780    0.0199720300    0.0003877516    
0.0569386390    0.0196793180    0.0003909370    
0.0571613000    0.0195993780    0.0003817417    
0.0573839610    0.0204671700    0.0003868622    
0.0576066220    0.0198306540    0.0003818533    
0.0578292830    0.0199625890    0.0003818537    
0.0580519440    0.0196686790    0.0003805020    
0.0582746050    0.0199114840    0.0003811552    
0.0584972660    0.0195131650    0.0003758792    
0.0587199270    0.0192137760    0.0003697693    
0.0589425880    0.0191444000    0.0003669422    
0.0591652490    0.0196834870    0.0003742622    
0.0593879100    0.0198689520    0.0003732287    
0.0596105710    0.0197221130    0.0003714547    
0.0598332320    0.0193704350    0.0003712747    
0.0600558930    0.0195527940    0.0003706400    
0.0602785540    0.0198830580    0.0003733620    
0.0605012150    0.0202880620    0.0003763507    
0.0607238760    0.0194430390    0.0003657447    
0.0609465370    0.0192821290    0.0003670956    
0.0611691980    0.0208716920    0.0003825324    
0.0613918590    0.0188135070    0.0003592170    
0.0616145200    0.0191455830    0.0003650256    
0.0618371810    0.0205522840    0.0003744834    
0.0620598420    0.0198152030    0.0003680860    
0.0622825030    0.0194179920    0.0003699504    
0.0625051640    0.0190202810    0.0003610000    
0.0627278250    0.0188055590    0.0003582174    
0.0629504860    0.0195885430    0.0003626265    
0.0631731470    0.0193951140    0.0003652959    
0.0633958080    0.0194310950    0.0003677389    
0.0636184690    0.0190960740    0.0003696322    
0.0638411300    0.0201743750    0.0003784988    
0.0640637910    0.0186516120    0.0003664937    
0.0642864520    0.0195963250    0.0003748477    
0.0645091130    0.0192481120    0.0003747579    
0.0647317740    0.0196708320    0.0003792683    
0.0649544350    0.0200799570    0.0003827706    
0.0651770960    0.0199120020    0.0003790872    
0.0653997570    0.0199910070    0.0003790147    
0.0656224180    0.0202296010    0.0003820989    
0.0658450790    0.0208651750    0.0003824772    
0.0660677400    0.0196006800    0.0003722841    
0.0662904010    0.0201221480    0.0003817069    
0.0665130620    0.0198618170    0.0003775847    
0.0667357230    0.0206189860    0.0003915546    
0.0669583840    0.0192847200    0.0003774070    
0.0671810450    0.0199123880    0.0003813822    
0.0674037060    0.0198524770    0.0003872594    
0.0676263670    0.0194809620    0.0003808102    
0.0678490280    0.0197654910    0.0003812352    
0.0680716890    0.0195507320    0.0003800021    
0.0682943500    0.0194932930    0.0003752876    
0.0685170110    0.0196855640    0.0003732909    
0.0687396720    0.0196022230    0.0003715102    
0.0689623330    0.0196041190    0.0003703508    
0.0691849940    0.0194865570    0.0003717969    
0.0694076550    0.0185516440    0.0003625748    
0.0696303160    0.0194865530    0.0003686564    
0.0698529770    0.0199953010    0.0003726551    
0.0700756380    0.0198845570    0.0003668513    
0.0702982990    0.0189367560    0.0003619002    
0.0705209600    0.0190664970    0.0003605161    
0.0707436210    0.0193780870    0.0003617809    
0.0709662820    0.0200987660    0.0003728392    
0.0711889430    0.0193044430    0.0003609095    
0.0714116040    0.0195798170    0.0003642166    
0.0716342650    0.0190918550    0.0003581892    
0.0718569260    0.0195783210    0.0003612630    
0.0720795870    0.0197303160    0.0003641296    
0.0723022480    0.0201073040    0.0003681521    
0.0725249090    0.0191087530    0.0003545962    
0.0727475700    0.0197779210    0.0003638328    
0.0729702310    0.0194571130    0.0003579919    
0.0731928920    0.0196660670    0.0003613474    
0.0734155530    0.0200108950    0.0003637743    
0.0736382140    0.0198136310    0.0003596538    
0.0738608750    0.0194290020    0.0003584467    
0.0740835360    0.0189839030    0.0003534375    
0.0743061970    0.0198602010    0.0003564124    
0.0745288580    0.0199704170    0.0003610750    
0.0747515190    0.0205016200    0.0003665682    
0.0749741800    0.0206706710    0.0003646693    
0.0751968410    0.0196307540    0.0003581682    
0.0754195020    0.0193045260    0.0003530988    
0.0756421630    0.0197526100    0.0003542535    
0.0758648240    0.0195795670    0.0003535462    
0.0760874850    0.0189612520    0.0003477519    
0.0763101460    0.0197333130    0.0003544208    
0.0765328070    0.0189828350    0.0003511729    
0.0767554680    0.0194054050    0.0003526507    
0.0769781290    0.0193097240    0.0003497587    
0.0772007900    0.0193877380    0.0003476538    
0.0774234510    0.0199683100    0.0003548275    
0.0776461120    0.0193263030    0.0003487457    
0.0778687730    0.0192425850    0.0003468399    
0.0780914340    0.0190746650    0.0003477907    
0.0783140950    0.0197946550    0.0003486726    
0.0785367560    0.0188971610    0.0003461692    
0.0787594170    0.0189773440    0.0003437947    
0.0789820780    0.0195169450    0.0003468617    
0.0792047390    0.0193345270    0.0003463657    
0.0794274000    0.0194611700    0.0003489705    
0.0796500610    0.0190463190    0.0003418615    
0.0798727220    0.0197216420    0.0003475483    
0.0800953830    0.0197651630    0.0003471314    
0.0803180440    0.0195902250    0.0003479992    
0.0805407050    0.0200165810    0.0003514386    
0.0807633660    0.0195298390    0.0003468171    
0.0809860270    0.0194286630    0.0003446402    
0.0812086880    0.0194788500    0.0003421029    
0.0814313490    0.0199358380    0.0003476711    
0.0816540100    0.0198330960    0.0003459846    
0.0818766710    0.0198085680    0.0003465601    
0.0820993320    0.0189450440    0.0003383044    
0.0823219930    0.0190468230    0.0003406109    
0.0825446540    0.0183328470    0.0003317381    
0.0827673150    0.0189105740    0.0003346611    
0.0829899760    0.0198229430    0.0003420292    
0.0832126370    0.0193697480    0.0003396112    
0.0834352980    0.0194669900    0.0003397013    
0.0836579590    0.0194099290    0.0003384480    
0.0838806200    0.0196266110    0.0003413969    
0.0841032810    0.0190669850    0.0003344056    
0.0843259420    0.0196375390    0.0003383269    
0.0845486030    0.0199231850    0.0003407789    
0.0847712640    0.0193759150    0.0003340179    
0.0849939250    0.0195301280    0.0003359284    
0.0852165860    0.0187702670    0.0003297600    
0.0854392470    0.0184960200    0.0003242422    
0.0856619080    0.0193693530    0.0003342526    
0.0858845690    0.0191183240    0.0003290887    
0.0861072300    0.0194750860    0.0003344379    
0.0863298910    0.0192849430    0.0003345440    
0.0865525520    0.0197803640    0.0003358882    
0.0867752130    0.0196083470    0.0003317260    
0.0869978740    0.0195617640    0.0003321762    
0.0872205350    0.0195964140    0.0003320472    
0.0874431960    0.0192813710    0.0003293676    
0.0876658570    0.0193106570    0.0003308832    
0.0878885180    0.0198036130    0.0003356544    
0.0881111790    0.0198379380    0.0003355141    
0.0883338400    0.0196855180    0.0003293293    
0.0885565010    0.0202060580    0.0003381797    
0.0887791620    0.0194868930    0.0003278003    
0.0890018230    0.0197543220    0.0003332432    
0.0892244840    0.0200528140    0.0003363222    
0.0894471450    0.0194586850    0.0003299030    
0.0896698060    0.0192122450    0.0003265708    
0.0898924670    0.0194523970    0.0003301287    
0.0901151280    0.0195936340    0.0003277462    
0.0903377890    0.0195717820    0.0003303049    
0.0905604500    0.0199559380    0.0003320001    
0.0907831110    0.0198182980    0.0003300301    
0.0910057720    0.0200006060    0.0003330660    
0.0912284330    0.0192325920    0.0003219323    
0.0914510940    0.0192176380    0.0003253957    
0.0916737550    0.0190017640    0.0003227599    
0.0918964160    0.0188284610    0.0003226209    
0.0921190770    0.0194612210    0.0003250315    
0.0923417380    0.0197977370    0.0003279641    
0.0925643990    0.0193873880    0.0003237533    
0.0927870600    0.0193722970    0.0003249544    
0.0930097210    0.0192580550    0.0003212354    
0.0932323820    0.0192649130    0.0003236544    
