# Diamond Light Source Ltd.
# Data extracted from: /dls/b21/data/2018/cm19678-3/processed/b21-386631_00355.dat
q(1/A)          Column          Error           
0.0035000000    2.0875468000    0.0245390040    
0.0037226610    1.8554370000    0.0226474990    
0.0039453220    1.6311619000    0.0193175620    
0.0041679830    1.2616274000    0.0139519240    
0.0043906440    0.9570562100    0.0116231170    
0.0046133050    0.7728496600    0.0100268670    
0.0048359660    0.5931441400    0.0083089383    
0.0050586270    0.4460832400    0.0070824710    
0.0052812880    0.4210873300    0.0065060440    
0.0055039490    0.3787097100    0.0058667109    
0.0057266100    0.3233025300    0.0052439697    
0.0059492710    0.2676751300    0.0047715519    
0.0061719320    0.2254928400    0.0042201677    
0.0063945930    0.2044548300    0.0040671927    
0.0066172539    0.1868351500    0.0036508234    
0.0068399149    0.1695935800    0.0034235141    
0.0070625759    0.1473799800    0.0031587065    
0.0072852369    0.1278284900    0.0028977188    
0.0075078979    0.1148023500    0.0027326149    
0.0077305589    0.0972012610    0.0024665287    
0.0079532199    0.0975084790    0.0024361898    
0.0081758809    0.0910844930    0.0023764766    
0.0083985419    0.0831736490    0.0021180859    
0.0086212029    0.0793979450    0.0020694520    
0.0088438639    0.0720238720    0.0019551791    
0.0090665249    0.0656021050    0.0018022284    
0.0092891859    0.0648884320    0.0018708306    
0.0095118469    0.0604585620    0.0017366268    
0.0097345079    0.0563695560    0.0016286067    
0.0099571689    0.0550165510    0.0015757652    
0.0101798300    0.0516316210    0.0015265209    
0.0104024910    0.0463517330    0.0014414703    
0.0106251520    0.0491944820    0.0014900579    
0.0108478130    0.0454141290    0.0013942264    
0.0110704740    0.0435315510    0.0012995940    
0.0112931350    0.0428119680    0.0012925932    
0.0115157960    0.0422755900    0.0012769809    
0.0117384570    0.0376460020    0.0011946598    
0.0119611180    0.0364897120    0.0011795449    
0.0121837790    0.0373374610    0.0011731136    
0.0124064400    0.0356773410    0.0010989354    
0.0126291010    0.0337336140    0.0010552064    
0.0128517620    0.0315802150    0.0010235207    
0.0130744230    0.0324861750    0.0010303989    
0.0132970840    0.0307452540    0.0009975077    
0.0135197450    0.0316318040    0.0009972981    
0.0137424060    0.0328973620    0.0010028938    
0.0139650670    0.0320911390    0.0009684651    
0.0141877280    0.0297672200    0.0009348013    
0.0144103890    0.0308476380    0.0009352064    
0.0146330500    0.0283016520    0.0008900947    
0.0148557110    0.0282591420    0.0008856968    
0.0150783720    0.0281216090    0.0008762369    
0.0153010330    0.0282365050    0.0008656456    
0.0155236940    0.0262496190    0.0008296711    
0.0157463550    0.0262848580    0.0008158437    
0.0159690160    0.0273171450    0.0008285535    
0.0161916770    0.0249974970    0.0007881294    
0.0164143380    0.0257813160    0.0008064541    
0.0166369990    0.0254244610    0.0007761611    
0.0168596600    0.0244197280    0.0007539683    
0.0170823210    0.0250510800    0.0007570410    
0.0173049820    0.0263085700    0.0007771501    
0.0175276430    0.0255300720    0.0007736385    
0.0177503040    0.0244899080    0.0007383985    
0.0179729650    0.0250759450    0.0007397710    
0.0181956260    0.0244176370    0.0007160013    
0.0184182870    0.0230649230    0.0006926060    
0.0186409480    0.0243056110    0.0007154901    
0.0188636090    0.0249575530    0.0007204625    
0.0190862700    0.0228477370    0.0006882598    
0.0193089310    0.0230865940    0.0006907697    
0.0195315920    0.0233559520    0.0006711591    
0.0197542530    0.0225536310    0.0006604914    
0.0199769140    0.0232886630    0.0006711681    
0.0201995750    0.0225275280    0.0006497725    
0.0204222360    0.0220008300    0.0006476437    
0.0206448970    0.0234935130    0.0006644969    
0.0208675580    0.0222113880    0.0006328056    
0.0210902190    0.0235242480    0.0006575227    
0.0213128800    0.0221927440    0.0006299776    
0.0215355410    0.0220163230    0.0006199937    
0.0217582020    0.0232908700    0.0006376873    
0.0219808630    0.0221326910    0.0006208139    
0.0222035240    0.0218188950    0.0006108118    
0.0224261850    0.0225072110    0.0006148501    
0.0226488460    0.0208468450    0.0005872933    
0.0228715070    0.0222250660    0.0006048897    
0.0230941680    0.0215994800    0.0005963159    
0.0233168290    0.0212604990    0.0005930917    
0.0235394900    0.0214249090    0.0005888098    
0.0237621510    0.0222481430    0.0005838623    
0.0239848120    0.0209788750    0.0005676189    
0.0242074730    0.0218382960    0.0005744931    
0.0244301340    0.0211610840    0.0005661607    
0.0246527950    0.0212307720    0.0005723432    
0.0248754560    0.0210243700    0.0005567539    
0.0250981170    0.0199482940    0.0005435280    
0.0253207780    0.0217437290    0.0005505183    
0.0255434390    0.0219967820    0.0005596222    
0.0257661000    0.0223256050    0.0005656132    
0.0259887610    0.0215310000    0.0005495536    
0.0262114220    0.0208253890    0.0005433532    
0.0264340830    0.0208280800    0.0005359950    
0.0266567440    0.0215387500    0.0005416947    
0.0268794050    0.0200931150    0.0005210648    
0.0271020660    0.0212844920    0.0005341190    
0.0273247270    0.0209633840    0.0005268912    
0.0275473880    0.0199567290    0.0005130621    
0.0277700490    0.0206730250    0.0005191017    
0.0279927100    0.0202498100    0.0005092781    
0.0282153710    0.0204989190    0.0005148922    
0.0284380320    0.0223456690    0.0005344691    
0.0286606930    0.0205071700    0.0005076281    
0.0288833540    0.0211023060    0.0005159195    
0.0291060150    0.0205838730    0.0005090591    
0.0293286760    0.0199285310    0.0004939103    
0.0295513370    0.0202753140    0.0004927642    
0.0297739980    0.0210669770    0.0005078223    
0.0299966590    0.0209802960    0.0004981210    
0.0302193200    0.0209632080    0.0005051742    
0.0304419810    0.0202950970    0.0004979736    
0.0306646420    0.0207464310    0.0004892700    
0.0308873030    0.0196982180    0.0004746903    
0.0311099640    0.0202720900    0.0004828057    
0.0313326250    0.0196230130    0.0004697513    
0.0315552860    0.0201926230    0.0004826960    
0.0317779470    0.0204705460    0.0004864298    
0.0320006080    0.0205444680    0.0004762354    
0.0322232690    0.0207390970    0.0004804890    
0.0324459300    0.0203099620    0.0004719420    
0.0326685910    0.0204398010    0.0004726676    
0.0328912520    0.0208944850    0.0004794786    
0.0331139130    0.0202686650    0.0004661003    
0.0333365740    0.0207780930    0.0004734537    
0.0335592350    0.0204016020    0.0004646337    
0.0337818960    0.0209713270    0.0004707016    
0.0340045570    0.0199464090    0.0004583262    
0.0342272170    0.0204685120    0.0004624546    
0.0344498780    0.0199780280    0.0004586896    
0.0346725390    0.0203101170    0.0004539211    
0.0348952000    0.0193011710    0.0004404869    
0.0351178610    0.0196507220    0.0004464920    
0.0353405220    0.0204371510    0.0004532644    
0.0355631830    0.0204930210    0.0004521742    
0.0357858440    0.0187270810    0.0004322529    
0.0360085050    0.0196233450    0.0004438126    
0.0362311660    0.0196398000    0.0004387208    
0.0364538270    0.0200394310    0.0004396050    
0.0366764880    0.0203762850    0.0004429627    
0.0368991490    0.0201427660    0.0004381970    
0.0371218100    0.0203878540    0.0004395935    
0.0373444710    0.0206793430    0.0004475461    
0.0375671320    0.0202521630    0.0004422544    
0.0377897930    0.0195196060    0.0004229424    
0.0380124540    0.0198488360    0.0004291703    
0.0382351150    0.0195055080    0.0004254425    
0.0384577760    0.0193402590    0.0004195491    
0.0386804370    0.0194517570    0.0004239677    
0.0389030980    0.0199682760    0.0004263068    
0.0391257590    0.0200931220    0.0004247343    
0.0393484200    0.0198867590    0.0004211255    
0.0395710810    0.0203427610    0.0004265002    
0.0397937420    0.0198688560    0.0004215031    
0.0400164030    0.0203553760    0.0004283681    
0.0402390640    0.0190270210    0.0004086403    
0.0404617250    0.0195490700    0.0004117647    
0.0406843860    0.0207042700    0.0004196620    
0.0409070470    0.0199828540    0.0004165808    
0.0411297080    0.0195810550    0.0004083820    
0.0413523690    0.0196393270    0.0004100435    
0.0415750300    0.0196086920    0.0004132039    
0.0417976910    0.0193098410    0.0003994380    
0.0420203520    0.0201295390    0.0004093603    
0.0422430130    0.0199634980    0.0004092118    
0.0424656740    0.0195779540    0.0003999668    
0.0426883350    0.0198718030    0.0004049571    
0.0429109960    0.0198300910    0.0004057958    
0.0431336570    0.0198241260    0.0004000183    
0.0433563180    0.0205207260    0.0004104966    
0.0435789790    0.0200560300    0.0003994464    
0.0438016400    0.0204115590    0.0004051636    
0.0440243010    0.0199285450    0.0003962791    
0.0442469620    0.0197932740    0.0003972983    
0.0444696230    0.0199207710    0.0003971466    
0.0446922840    0.0200151410    0.0003969040    
0.0449149450    0.0196827800    0.0003883331    
0.0451376060    0.0196537170    0.0003928387    
0.0453602670    0.0196743500    0.0003889245    
0.0455829280    0.0198666630    0.0003903687    
0.0458055890    0.0197110250    0.0003911041    
0.0460282500    0.0200413840    0.0003896124    
0.0462509110    0.0203838030    0.0003904828    
0.0464735720    0.0196804180    0.0003839031    
0.0466962330    0.0204416430    0.0003930358    
0.0469188940    0.0195143750    0.0003829294    
0.0471415550    0.0199203130    0.0003888788    
0.0473642160    0.0195656450    0.0003800050    
0.0475868770    0.0192986550    0.0003755285    
0.0478095380    0.0201804340    0.0003823314    
0.0480321990    0.0194686800    0.0003763513    
0.0482548600    0.0190686190    0.0003708417    
0.0484775210    0.0194197380    0.0003779561    
0.0487001820    0.0193053060    0.0003713245    
0.0489228430    0.0193487750    0.0003715426    
0.0491455040    0.0194901500    0.0003703184    
0.0493681650    0.0199053000    0.0003774577    
0.0495908260    0.0195386230    0.0003676729    
0.0498134870    0.0195809840    0.0003715751    
0.0500361480    0.0197791030    0.0003724621    
0.0502588090    0.0192180400    0.0003616402    
0.0504814700    0.0200171380    0.0003739073    
0.0507041310    0.0189370730    0.0003593560    
0.0509267920    0.0200704440    0.0003714838    
0.0511494530    0.0205431770    0.0003733272    
0.0513721140    0.0194842910    0.0003667804    
0.0515947750    0.0195559060    0.0003625819    
0.0518174360    0.0196863180    0.0003615975    
0.0520400970    0.0200823660    0.0003626843    
0.0522627580    0.0197523130    0.0003627485    
0.0524854190    0.0191066220    0.0003596710    
0.0527080800    0.0199880810    0.0003707222    
0.0529307410    0.0198847680    0.0003714995    
0.0531534020    0.0200365210    0.0003715567    
0.0533760630    0.0193856270    0.0003666159    
0.0535987240    0.0198369590    0.0003691276    
0.0538213850    0.0205523190    0.0003800775    
0.0540440460    0.0199544220    0.0003727357    
0.0542667070    0.0193198270    0.0003692885    
0.0544893680    0.0195100110    0.0003712995    
0.0547120290    0.0196966480    0.0003705154    
0.0549346900    0.0198150590    0.0003718230    
0.0551573510    0.0197843610    0.0003759085    
0.0553800120    0.0198426070    0.0003732610    
0.0556026730    0.0197082980    0.0003797085    
0.0558253340    0.0201661930    0.0003873104    
0.0560479950    0.0192438180    0.0003783494    
0.0562706560    0.0193826390    0.0003833827    
0.0564933170    0.0195046950    0.0003879276    
0.0567159780    0.0196875040    0.0003850684    
0.0569386390    0.0192222070    0.0003864590    
0.0571613000    0.0199803470    0.0003855227    
0.0573839610    0.0194743550    0.0003774497    
0.0576066220    0.0194499130    0.0003782570    
0.0578292830    0.0192483330    0.0003750466    
0.0580519440    0.0194789050    0.0003787492    
0.0582746050    0.0194534850    0.0003768329    
0.0584972660    0.0204711020    0.0003850837    
0.0587199270    0.0195145310    0.0003727379    
0.0589425880    0.0198990870    0.0003741911    
0.0591652490    0.0193152260    0.0003708300    
0.0593879100    0.0196536560    0.0003712866    
0.0596105710    0.0196332120    0.0003707020    
0.0598332320    0.0200343590    0.0003776708    
0.0600558930    0.0194915160    0.0003701440    
0.0602785540    0.0193661580    0.0003685618    
0.0605012150    0.0196618080    0.0003705819    
0.0607238760    0.0192248540    0.0003637706    
0.0609465370    0.0192490640    0.0003668652    
0.0611691980    0.0197870940    0.0003725465    
0.0613918590    0.0198308770    0.0003688867    
0.0616145200    0.0191613700    0.0003652602    
0.0618371810    0.0198244820    0.0003678778    
0.0620598420    0.0191197440    0.0003616522    
0.0622825030    0.0188205110    0.0003642983    
0.0625051640    0.0199475960    0.0003697806    
0.0627278250    0.0203843540    0.0003730371    
0.0629504860    0.0189864060    0.0003570918    
0.0631731470    0.0199340680    0.0003704219    
0.0633958080    0.0195723440    0.0003691581    
0.0636184690    0.0198922630    0.0003773461    
0.0638411300    0.0195442760    0.0003726270    
0.0640637910    0.0196400490    0.0003761661    
0.0642864520    0.0190745130    0.0003699085    
0.0645091130    0.0191693860    0.0003740769    
0.0647317740    0.0196872140    0.0003795137    
0.0649544350    0.0201330110    0.0003833642    
0.0651770960    0.0197045660    0.0003771943    
0.0653997570    0.0192669270    0.0003721732    
0.0656224180    0.0195746440    0.0003759491    
0.0658450790    0.0197524910    0.0003722250    
0.0660677400    0.0196521590    0.0003728586    
0.0662904010    0.0195301600    0.0003761368    
0.0665130620    0.0200576880    0.0003795294    
0.0667357230    0.0191778750    0.0003777105    
0.0669583840    0.0189536980    0.0003742401    
0.0671810450    0.0198557930    0.0003809276    
0.0674037060    0.0203453190    0.0003921272    
0.0676263670    0.0192516220    0.0003786492    
0.0678490280    0.0200026570    0.0003836040    
0.0680716890    0.0198331500    0.0003828251    
0.0682943500    0.0191480840    0.0003720355    
0.0685170110    0.0192768070    0.0003694801    
0.0687396720    0.0194985490    0.0003706118    
0.0689623330    0.0197951460    0.0003722365    
0.0691849940    0.0195310230    0.0003723066    
0.0694076550    0.0194321970    0.0003711653    
0.0696303160    0.0199979240    0.0003735483    
0.0698529770    0.0200740010    0.0003734738    
0.0700756380    0.0197582980    0.0003657690    
0.0702982990    0.0193122150    0.0003655545    
0.0705209600    0.0202005700    0.0003711685    
0.0707436210    0.0199411260    0.0003670837    
0.0709662820    0.0195475510    0.0003677758    
0.0711889430    0.0201639100    0.0003689412    
0.0714116040    0.0199413050    0.0003676480    
0.0716342650    0.0201225820    0.0003678158    
0.0718569260    0.0199741570    0.0003649808    
0.0720795870    0.0194637570    0.0003617449    
0.0723022480    0.0191589610    0.0003594482    
0.0725249090    0.0201840350    0.0003645205    
0.0727475700    0.0194388390    0.0003607836    
0.0729702310    0.0195781070    0.0003591860    
0.0731928920    0.0194094300    0.0003590647    
0.0734155530    0.0194445220    0.0003586720    
0.0736382140    0.0191043100    0.0003532388    
0.0738608750    0.0195768940    0.0003598913    
0.0740835360    0.0192493990    0.0003559824    
0.0743061970    0.0202725010    0.0003601760    
0.0745288580    0.0194440450    0.0003563668    
0.0747515190    0.0205569690    0.0003671473    
0.0749741800    0.0192770600    0.0003522430    
0.0751968410    0.0201432180    0.0003628967    
0.0754195020    0.0201792650    0.0003610932    
0.0756421630    0.0197617140    0.0003544168    
0.0758648240    0.0197291030    0.0003549755    
0.0760874850    0.0197994890    0.0003554374    
0.0763101460    0.0193284540    0.0003508470    
0.0765328070    0.0191215750    0.0003525351    
0.0767554680    0.0193181750    0.0003519383    
0.0769781290    0.0195531340    0.0003520374    
0.0772007900    0.0201638090    0.0003546253    
0.0774234510    0.0198008890    0.0003534183    
0.0776461120    0.0194737240    0.0003501540    
0.0778687730    0.0197955980    0.0003518696    
0.0780914340    0.0190707680    0.0003478353    
0.0783140950    0.0192692050    0.0003440929    
0.0785367560    0.0198575090    0.0003549381    
0.0787594170    0.0197400510    0.0003507161    
0.0789820780    0.0193964250    0.0003458688    
0.0792047390    0.0196662430    0.0003494048    
0.0794274000    0.0199271560    0.0003532051    
0.0796500610    0.0200495970    0.0003508307    
0.0798727220    0.0195407770    0.0003460307    
0.0800953830    0.0199877510    0.0003491610    
0.0803180440    0.0191168480    0.0003438482    
0.0805407050    0.0191615600    0.0003439300    
0.0807633660    0.0197298540    0.0003486689    
0.0809860270    0.0190339410    0.0003411999    
0.0812086880    0.0189528440    0.0003375300    
0.0814313490    0.0199146960    0.0003475668    
0.0816540100    0.0202286950    0.0003494986    
0.0818766710    0.0193324160    0.0003424484    
0.0820993320    0.0200416840    0.0003480382    
0.0823219930    0.0196649900    0.0003461738    
0.0825446540    0.0198787470    0.0003455214    
0.0827673150    0.0194584860    0.0003395529    
0.0829899760    0.0194305970    0.0003387055    
0.0832126370    0.0198195060    0.0003436105    
0.0834352980    0.0190786140    0.0003363731    
0.0836579590    0.0193125990    0.0003376762    
0.0838806200    0.0193504790    0.0003390649    
0.0841032810    0.0190170960    0.0003340448    
0.0843259420    0.0196407590    0.0003384326    
0.0845486030    0.0194891660    0.0003371243    
0.0847712640    0.0189527910    0.0003304268    
0.0849939250    0.0193425820    0.0003343886    
0.0852165860    0.0203206450    0.0003431875    
0.0854392470    0.0190390950    0.0003290437    
0.0856619080    0.0198053180    0.0003380712    
0.0858845690    0.0196995320    0.0003341304    
0.0861072300    0.0198460490    0.0003376859    
0.0863298910    0.0196073630    0.0003374067    
0.0865525520    0.0198465440    0.0003365271    
0.0867752130    0.0200609380    0.0003356099    
0.0869978740    0.0195143480    0.0003318498    
0.0872205350    0.0192677120    0.0003293265    
0.0874431960    0.0200895620    0.0003362770    
0.0876658570    0.0193819520    0.0003315698    
0.0878885180    0.0192891050    0.0003313418    
0.0881111790    0.0189217170    0.0003277501    
0.0883338400    0.0196504940    0.0003291120    
0.0885565010    0.0194792370    0.0003321182    
0.0887791620    0.0194627740    0.0003276729    
0.0890018230    0.0194315980    0.0003305860    
0.0892244840    0.0197573160    0.0003339119    
0.0894471450    0.0192158430    0.0003279135    
0.0896698060    0.0202596280    0.0003354317    
0.0898924670    0.0187158670    0.0003238931    
0.0901151280    0.0199207830    0.0003305472    
0.0903377890    0.0186996390    0.0003229360    
0.0905604500    0.0192191380    0.0003258886    
0.0907831110    0.0187112460    0.0003207537    
0.0910057720    0.0190498400    0.0003251281    
0.0912284330    0.0189988480    0.0003200437    
0.0914510940    0.0200147380    0.0003321519    
0.0916737550    0.0199868260    0.0003310965    
0.0918964160    0.0195284610    0.0003286390    
0.0921190770    0.0195462250    0.0003258157    
0.0923417380    0.0194263790    0.0003249485    
0.0925643990    0.0196072700    0.0003256590    
0.0927870600    0.0193757730    0.0003250584    
0.0930097210    0.0192294050    0.0003210703    
0.0932323820    0.0190779530    0.0003221543    
