# Diamond Light Source Ltd.
# Data extracted from: /dls/b21/data/2018/cm19678-3/processed/b21-386631_00361.dat
q(1/A)          Column          Error           
0.0035000000    2.1536893000    0.0249302320    
0.0037226610    1.8648306000    0.0227097730    
0.0039453220    1.6028158000    0.0191532090    
0.0041679830    1.2902783000    0.0141125740    
0.0043906440    0.9857235400    0.0117985170    
0.0046133050    0.8080701800    0.0102550610    
0.0048359660    0.6045851300    0.0083905441    
0.0050586270    0.4637176700    0.0072227013    
0.0052812880    0.4302239200    0.0065777015    
0.0055039490    0.3815139000    0.0058896926    
0.0057266100    0.3262535900    0.0052690127    
0.0059492710    0.2713674500    0.0048054106    
0.0061719320    0.2307286100    0.0042698245    
0.0063945930    0.1982315900    0.0040057005    
0.0066172539    0.1842770600    0.0036265457    
0.0068399149    0.1711204900    0.0034396512    
0.0070625759    0.1408077300    0.0030881562    
0.0072852369    0.1259792100    0.0028773178    
0.0075078979    0.1115344000    0.0026940363    
0.0077305589    0.1020657400    0.0025280531    
0.0079532199    0.1044325700    0.0025217608    
0.0081758809    0.0902563150    0.0023661709    
0.0083985419    0.0820772030    0.0021045437    
0.0086212029    0.0731733760    0.0019871161    
0.0088438639    0.0698255430    0.0019255351    
0.0090665249    0.0651357780    0.0017962084    
0.0092891859    0.0621650220    0.0018315545    
0.0095118469    0.0593873730    0.0017215539    
0.0097345079    0.0576654710    0.0016475849    
0.0099571689    0.0546345010    0.0015706315    
0.0101798300    0.0523768870    0.0015378383    
0.0104024910    0.0507672710    0.0015089005    
0.0106251520    0.0472746720    0.0014610167    
0.0108478130    0.0441067230    0.0013743146    
0.0110704740    0.0422698900    0.0012809058    
0.0112931350    0.0397854890    0.0012463431    
0.0115157960    0.0416768450    0.0012681860    
0.0117384570    0.0392176990    0.0012196124    
0.0119611180    0.0357810680    0.0011682933    
0.0121837790    0.0374645910    0.0011753688    
0.0124064400    0.0366751820    0.0011144435    
0.0126291010    0.0359279820    0.0010892270    
0.0128517620    0.0326561660    0.0010410405    
0.0130744230    0.0326967170    0.0010339610    
0.0132970840    0.0309207340    0.0010005715    
0.0135197450    0.0309537330    0.0009867690    
0.0137424060    0.0307707970    0.0009701519    
0.0139650670    0.0317252090    0.0009631404    
0.0141877280    0.0289874110    0.0009226795    
0.0144103890    0.0296132090    0.0009165058    
0.0146330500    0.0284541950    0.0008926875    
0.0148557110    0.0276328850    0.0008760213    
0.0150783720    0.0289807940    0.0008897184    
0.0153010330    0.0274790440    0.0008541447    
0.0155236940    0.0264973380    0.0008337610    
0.0157463550    0.0275631680    0.0008356313    
0.0159690160    0.0268766680    0.0008220279    
0.0161916770    0.0275193470    0.0008271120    
0.0164143380    0.0259441390    0.0008091755    
0.0166369990    0.0237052200    0.0007496249    
0.0168596600    0.0255949910    0.0007720690    
0.0170823210    0.0252681450    0.0007604818    
0.0173049820    0.0249192120    0.0007565183    
0.0175276430    0.0245093840    0.0007581834    
0.0177503040    0.0243448210    0.0007363707    
0.0179729650    0.0254800390    0.0007458726    
0.0181956260    0.0237352780    0.0007060819    
0.0184182870    0.0240946700    0.0007080545    
0.0186409480    0.0257492100    0.0007365942    
0.0188636090    0.0241779150    0.0007092768    
0.0190862700    0.0233556500    0.0006960217    
0.0193089310    0.0225178300    0.0006823585    
0.0195315920    0.0234241630    0.0006722870    
0.0197542530    0.0227958170    0.0006641750    
0.0199769140    0.0231828510    0.0006697896    
0.0201995750    0.0238687370    0.0006689832    
0.0204222360    0.0221631420    0.0006501720    
0.0206448970    0.0218492250    0.0006409630    
0.0208675580    0.0233214460    0.0006485690    
0.0210902190    0.0227072580    0.0006461468    
0.0213128800    0.0218626290    0.0006254128    
0.0215355410    0.0216243130    0.0006145850    
0.0217582020    0.0212225770    0.0006088495    
0.0219808630    0.0217592070    0.0006156896    
0.0222035240    0.0212640100    0.0006031282    
0.0224261850    0.0223491230    0.0006128224    
0.0226488460    0.0223954370    0.0006088505    
0.0228715070    0.0221854810    0.0006044843    
0.0230941680    0.0214772670    0.0005947579    
0.0233168290    0.0219319960    0.0006025183    
0.0235394900    0.0207868170    0.0005801035    
0.0237621510    0.0219207370    0.0005796784    
0.0239848120    0.0222326880    0.0005844639    
0.0242074730    0.0211675650    0.0005657270    
0.0244301340    0.0209734340    0.0005637694    
0.0246527950    0.0206690200    0.0005648454    
0.0248754560    0.0212106660    0.0005593387    
0.0250981170    0.0211572070    0.0005598791    
0.0253207780    0.0222135080    0.0005565565    
0.0255434390    0.0222486490    0.0005629413    
0.0257661000    0.0210022280    0.0005487146    
0.0259887610    0.0213861570    0.0005478230    
0.0262114220    0.0219550400    0.0005580187    
0.0264340830    0.0214306680    0.0005438135    
0.0266567440    0.0215346420    0.0005417627    
0.0268794050    0.0209942180    0.0005327384    
0.0271020660    0.0212402650    0.0005336817    
0.0273247270    0.0197007790    0.0005108906    
0.0275473880    0.0206253520    0.0005217013    
0.0277700490    0.0213602680    0.0005277761    
0.0279927100    0.0208225740    0.0005165445    
0.0282153710    0.0200292460    0.0005090719    
0.0284380320    0.0202453270    0.0005088436    
0.0286606930    0.0214465070    0.0005192387    
0.0288833540    0.0215154440    0.0005210605    
0.0291060150    0.0209708250    0.0005139352    
0.0293286760    0.0202679970    0.0004982093    
0.0295513370    0.0202842780    0.0004929820    
0.0297739980    0.0207333870    0.0005038970    
0.0299966590    0.0203269920    0.0004904125    
0.0302193200    0.0208628630    0.0005040751    
0.0304419810    0.0204140850    0.0004995416    
0.0306646420    0.0198782800    0.0004790295    
0.0308873030    0.0210001220    0.0004902344    
0.0311099640    0.0211093200    0.0004927836    
0.0313326250    0.0206554610    0.0004820572    
0.0315552860    0.0198090620    0.0004781953    
0.0317779470    0.0200748610    0.0004818121    
0.0320006080    0.0193938930    0.0004628100    
0.0322232690    0.0199909490    0.0004718470    
0.0324459300    0.0205493390    0.0004748200    
0.0326685910    0.0203613560    0.0004718640    
0.0328912520    0.0191424810    0.0004590378    
0.0331139130    0.0206422150    0.0004704797    
0.0333365740    0.0204526970    0.0004698356    
0.0335592350    0.0199765780    0.0004598701    
0.0337818960    0.0207797760    0.0004686505    
0.0340045570    0.0195127140    0.0004534164    
0.0342272170    0.0197353930    0.0004541976    
0.0344498780    0.0194179140    0.0004523139    
0.0346725390    0.0193346040    0.0004429837    
0.0348952000    0.0197019320    0.0004451349    
0.0351178610    0.0201059830    0.0004517343    
0.0353405220    0.0197321280    0.0004454761    
0.0355631830    0.0204122460    0.0004513819    
0.0357858440    0.0201128130    0.0004480591    
0.0360085050    0.0192403840    0.0004395578    
0.0362311660    0.0201877370    0.0004448970    
0.0364538270    0.0198939240    0.0004381029    
0.0366764880    0.0202793210    0.0004420052    
0.0368991490    0.0189500100    0.0004251190    
0.0371218100    0.0193822390    0.0004287099    
0.0373444710    0.0198066810    0.0004380980    
0.0375671320    0.0205702980    0.0004458130    
0.0377897930    0.0198124490    0.0004261974    
0.0380124540    0.0200525660    0.0004314625    
0.0382351150    0.0198112060    0.0004288582    
0.0384577760    0.0200317090    0.0004270775    
0.0386804370    0.0208008560    0.0004385206    
0.0389030980    0.0201227900    0.0004280476    
0.0391257590    0.0205062010    0.0004291729    
0.0393484200    0.0205468400    0.0004281521    
0.0395710810    0.0191887970    0.0004143183    
0.0397937420    0.0202086350    0.0004251859    
0.0400164030    0.0198593240    0.0004232099    
0.0402390640    0.0201329550    0.0004204414    
0.0404617250    0.0199568490    0.0004161291    
0.0406843860    0.0197262590    0.0004097208    
0.0409070470    0.0196615340    0.0004133093    
0.0411297080    0.0199390720    0.0004121896    
0.0413523690    0.0205387650    0.0004194206    
0.0415750300    0.0201226040    0.0004186761    
0.0417976910    0.0204177980    0.0004108284    
0.0420203520    0.0203466520    0.0004116529    
0.0422430130    0.0198548400    0.0004081869    
0.0424656740    0.0204286040    0.0004086538    
0.0426883350    0.0191210310    0.0003973215    
0.0429109960    0.0190579310    0.0003979047    
0.0431336570    0.0204546860    0.0004064201    
0.0433563180    0.0199875940    0.0004052187    
0.0435789790    0.0198579590    0.0003975569    
0.0438016400    0.0200906990    0.0004020553    
0.0440243010    0.0201107920    0.0003981749    
0.0442469620    0.0203285890    0.0004027240    
0.0444696230    0.0198266030    0.0003962944    
0.0446922840    0.0193074410    0.0003899101    
0.0449149450    0.0195765050    0.0003873689    
0.0451376060    0.0194974400    0.0003913602    
0.0453602670    0.0190215620    0.0003825024    
0.0455829280    0.0195454670    0.0003872858    
0.0458055890    0.0197119760    0.0003912000    
0.0460282500    0.0200502430    0.0003897847    
0.0462509110    0.0198240610    0.0003851693    
0.0464735720    0.0194718490    0.0003819478    
0.0466962330    0.0198382940    0.0003872776    
0.0469188940    0.0200943340    0.0003886638    
0.0471415550    0.0199594990    0.0003893471    
0.0473642160    0.0193084800    0.0003775828    
0.0475868770    0.0199505160    0.0003819024    
0.0478095380    0.0204284970    0.0003847591    
0.0480321990    0.0196301350    0.0003779922    
0.0482548600    0.0197841400    0.0003778187    
0.0484775210    0.0195828670    0.0003796242    
0.0487001820    0.0200355190    0.0003783655    
0.0489228430    0.0197784500    0.0003757284    
0.0491455040    0.0194776480    0.0003702814    
0.0493681650    0.0197637240    0.0003761961    
0.0495908260    0.0202048350    0.0003739713    
0.0498134870    0.0194062300    0.0003699950    
0.0500361480    0.0198931020    0.0003736164    
0.0502588090    0.0197303480    0.0003665098    
0.0504814700    0.0196486660    0.0003705317    
0.0507041310    0.0195048710    0.0003647842    
0.0509267920    0.0193776760    0.0003650970    
0.0511494530    0.0196563210    0.0003652607    
0.0513721140    0.0199487980    0.0003712087    
0.0515947750    0.0196587090    0.0003636140    
0.0518174360    0.0197348890    0.0003621233    
0.0520400970    0.0196194350    0.0003585590    
0.0522627580    0.0194011470    0.0003595889    
0.0524854190    0.0195621260    0.0003640135    
0.0527080800    0.0193640610    0.0003649701    
0.0529307410    0.0199074460    0.0003717934    
0.0531534020    0.0196731470    0.0003682535    
0.0533760630    0.0199629820    0.0003721174    
0.0535987240    0.0194746520    0.0003658220    
0.0538213850    0.0195909960    0.0003711641    
0.0540440460    0.0201095200    0.0003742642    
0.0542667070    0.0193213060    0.0003693843    
0.0544893680    0.0194196640    0.0003705206    
0.0547120290    0.0195310340    0.0003690359    
0.0549346900    0.0198726800    0.0003724455    
0.0551573510    0.0198216890    0.0003763461    
0.0553800120    0.0194580050    0.0003697076    
0.0556026730    0.0195633150    0.0003783929    
0.0558253340    0.0192895170    0.0003788819    
0.0560479950    0.0198179140    0.0003840364    
0.0562706560    0.0192546500    0.0003821992    
0.0564933170    0.0195673500    0.0003886360    
0.0567159780    0.0199976030    0.0003881749    
0.0569386390    0.0203189420    0.0003974187    
0.0571613000    0.0188579970    0.0003746211    
0.0573839610    0.0195049210    0.0003778293    
0.0576066220    0.0196130610    0.0003799240    
0.0578292830    0.0195273450    0.0003778385    
0.0580519440    0.0192959560    0.0003770497    
0.0582746050    0.0199805870    0.0003819884    
0.0584972660    0.0195452830    0.0003763583    
0.0587199270    0.0201998090    0.0003793099    
0.0589425880    0.0200064390    0.0003752820    
0.0591652490    0.0198223510    0.0003757496    
0.0593879100    0.0202728460    0.0003771733    
0.0596105710    0.0195158470    0.0003696740    
0.0598332320    0.0198509040    0.0003760208    
0.0600558930    0.0201470900    0.0003764003    
0.0602785540    0.0187501820    0.0003627332    
0.0605012150    0.0198591700    0.0003725195    
0.0607238760    0.0201492270    0.0003724957    
0.0609465370    0.0193205300    0.0003676268    
0.0611691980    0.0196765480    0.0003715865    
0.0613918590    0.0197915890    0.0003686026    
0.0616145200    0.0192952250    0.0003666148    
0.0618371810    0.0191502830    0.0003616481    
0.0620598420    0.0193882570    0.0003642634    
0.0622825030    0.0197459340    0.0003732297    
0.0625051640    0.0196272370    0.0003668803    
0.0627278250    0.0197172300    0.0003669632    
0.0629504860    0.0191963720    0.0003591402    
0.0631731470    0.0200117440    0.0003712249    
0.0633958080    0.0195322360    0.0003688612    
0.0636184690    0.0193997710    0.0003727281    
0.0638411300    0.0198727570    0.0003758283    
0.0640637910    0.0195261980    0.0003751571    
0.0642864520    0.0199010940    0.0003779219    
0.0645091130    0.0199738940    0.0003819303    
0.0647317740    0.0194763420    0.0003775591    
0.0649544350    0.0196160890    0.0003784944    
0.0651770960    0.0194026610    0.0003743763    
0.0653997570    0.0195775230    0.0003752439    
0.0656224180    0.0201828600    0.0003818295    
0.0658450790    0.0194945590    0.0003698685    
0.0660677400    0.0191229690    0.0003678855    
0.0662904010    0.0195677830    0.0003765822    
0.0665130620    0.0204760770    0.0003835521    
0.0667357230    0.0196701050    0.0003826116    
0.0669583840    0.0200118300    0.0003846296    
0.0671810450    0.0196086790    0.0003786334    
0.0674037060    0.0197721140    0.0003866493    
0.0676263670    0.0196699230    0.0003828254    
0.0678490280    0.0201366170    0.0003849714    
0.0680716890    0.0199306300    0.0003838496    
0.0682943500    0.0185346310    0.0003661083    
0.0685170110    0.0192711600    0.0003695076    
0.0687396720    0.0191548000    0.0003674116    
0.0689623330    0.0189145430    0.0003639432    
0.0691849940    0.0195893590    0.0003729446    
0.0694076550    0.0195046210    0.0003719385    
0.0696303160    0.0199928030    0.0003735831    
0.0698529770    0.0199160400    0.0003720837    
0.0700756380    0.0198347750    0.0003665572    
0.0702982990    0.0192722950    0.0003652572    
0.0705209600    0.0201685630    0.0003709563    
0.0707436210    0.0198147340    0.0003659994    
0.0709662820    0.0201653770    0.0003736251    
0.0711889430    0.0191395330    0.0003595269    
0.0714116040    0.0197127810    0.0003656162    
0.0716342650    0.0192839790    0.0003601495    
0.0718569260    0.0188954320    0.0003550669    
0.0720795870    0.0196674220    0.0003637129    
0.0723022480    0.0198286100    0.0003657568    
0.0725249090    0.0201797860    0.0003645627    
0.0727475700    0.0192129650    0.0003587607    
0.0729702310    0.0195933540    0.0003594052    
0.0731928920    0.0193116840    0.0003582386    
0.0734155530    0.0201017770    0.0003647641    
0.0736382140    0.0190539470    0.0003528509    
0.0738608750    0.0196451200    0.0003605975    
0.0740835360    0.0195740440    0.0003590510    
0.0743061970    0.0194235980    0.0003526321    
0.0745288580    0.0199361800    0.0003609282    
0.0747515190    0.0192671480    0.0003555212    
0.0749741800    0.0197298910    0.0003564350    
0.0751968410    0.0197596770    0.0003595046    
0.0754195020    0.0198003240    0.0003577658    
0.0756421630    0.0198404000    0.0003552001    
0.0758648240    0.0195333540    0.0003532882    
0.0760874850    0.0194316110    0.0003521977    
0.0763101460    0.0196874220    0.0003541682    
0.0765328070    0.0202354340    0.0003627377    
0.0767554680    0.0195576350    0.0003541911    
0.0769781290    0.0200119850    0.0003562228    
0.0772007900    0.0194364470    0.0003482474    
0.0774234510    0.0191659390    0.0003477825    
0.0776461120    0.0198728620    0.0003538024    
0.0778687730    0.0190159300    0.0003449469    
0.0780914340    0.0194981040    0.0003517886    
0.0783140950    0.0196650000    0.0003476857    
0.0785367560    0.0191617640    0.0003487417    
0.0787594170    0.0193248780    0.0003470850    
0.0789820780    0.0200713720    0.0003519128    
0.0792047390    0.0197680950    0.0003503858    
0.0794274000    0.0194850100    0.0003493419    
0.0796500610    0.0198189380    0.0003488839    
0.0798727220    0.0192183820    0.0003432401    
0.0800953830    0.0196060530    0.0003458875    
0.0803180440    0.0197502290    0.0003495753    
0.0805407050    0.0191515040    0.0003439157    
0.0807633660    0.0200036480    0.0003511574    
0.0809860270    0.0190362370    0.0003412959    
0.0812086880    0.0192077850    0.0003398676    
0.0814313490    0.0195472420    0.0003444214    
0.0816540100    0.0200382820    0.0003479267    
0.0818766710    0.0192135200    0.0003414692    
0.0820993320    0.0198328660    0.0003462969    
0.0823219930    0.0199785130    0.0003489996    
0.0825446540    0.0191064530    0.0003388180    
0.0827673150    0.0191351280    0.0003367942    
0.0829899760    0.0187835350    0.0003330917    
0.0832126370    0.0197984690    0.0003435040    
0.0834352980    0.0196151020    0.0003411451    
0.0836579590    0.0200181390    0.0003438650    
0.0838806200    0.0195135730    0.0003405661    
0.0841032810    0.0198766910    0.0003415864    
0.0843259420    0.0196552760    0.0003386325    
0.0845486030    0.0190718890    0.0003335694    
0.0847712640    0.0195547860    0.0003357076    
0.0849939250    0.0195709010    0.0003364307    
0.0852165860    0.0193148860    0.0003346608    
0.0854392470    0.0189451060    0.0003283031    
0.0856619080    0.0190750870    0.0003318536    
0.0858845690    0.0194587690    0.0003321557    
0.0861072300    0.0189868210    0.0003303680    
0.0863298910    0.0199529370    0.0003404423    
0.0865525520    0.0197982290    0.0003361916    
0.0867752130    0.0199293800    0.0003345815    
0.0869978740    0.0193874770    0.0003308424    
0.0872205350    0.0191973900    0.0003287976    
0.0874431960    0.0196760890    0.0003328720    
0.0876658570    0.0196231840    0.0003337006    
0.0878885180    0.0190357000    0.0003292310    
0.0881111790    0.0197990600    0.0003353365    
0.0883338400    0.0194110290    0.0003271728    
0.0885565010    0.0194708530    0.0003321201    
0.0887791620    0.0195596840    0.0003285602    
0.0890018230    0.0196033630    0.0003321173    
0.0892244840    0.0191506550    0.0003288181    
0.0894471450    0.0194314730    0.0003298211    
0.0896698060    0.0192796020    0.0003272904    
0.0898924670    0.0198400750    0.0003335526    
0.0901151280    0.0193205080    0.0003256009    
0.0903377890    0.0189589810    0.0003252395    
0.0905604500    0.0190175560    0.0003242466    
0.0907831110    0.0194016280    0.0003266897    
0.0910057720    0.0196467200    0.0003302553    
0.0912284330    0.0196329120    0.0003254123    
0.0914510940    0.0191853640    0.0003252691    
0.0916737550    0.0193042650    0.0003254658    
0.0918964160    0.0201567930    0.0003339580    
0.0921190770    0.0196744010    0.0003269545    
0.0923417380    0.0202452100    0.0003317995    
0.0925643990    0.0198973260    0.0003281315    
0.0927870600    0.0191006390    0.0003228136    
0.0930097210    0.0198171350    0.0003260120    
0.0932323820    0.0197340290    0.0003277192    
