# Diamond Light Source Ltd.
# Data extracted from: /dls/b21/data/2018/cm19678-3/processed/b21-386631_00359.dat
q(1/A)          Column          Error           
0.0035000000    2.1327575000    0.0248095720    
0.0037226610    1.8497368000    0.0226183960    
0.0039453220    1.6267217000    0.0192961250    
0.0041679830    1.3064141000    0.0142009920    
0.0043906440    0.9756172600    0.0117382490    
0.0046133050    0.7917219400    0.0101511160    
0.0048359660    0.5986842400    0.0083497606    
0.0050586270    0.4610468400    0.0072020988    
0.0052812880    0.4240155800    0.0065302756    
0.0055039490    0.3853570300    0.0059194698    
0.0057266100    0.3144452800    0.0051729449    
0.0059492710    0.2738525100    0.0048275158    
0.0061719320    0.2183367900    0.0041537130    
0.0063945930    0.2040724400    0.0040644141    
0.0066172539    0.1832894600    0.0036169290    
0.0068399149    0.1644243300    0.0033717873    
0.0070625759    0.1486736400    0.0031733408    
0.0072852369    0.1292732200    0.0029147841    
0.0075078979    0.1146651300    0.0027316712    
0.0077305589    0.1005692900    0.0025095313    
0.0079532199    0.0952436460    0.0024083391    
0.0081758809    0.0924332690    0.0023946121    
0.0083985419    0.0836474060    0.0021246462    
0.0086212029    0.0761461340    0.0020271428    
0.0088438639    0.0687148000    0.0019102190    
0.0090665249    0.0633565970    0.0017715629    
0.0092891859    0.0648672550    0.0018709978    
0.0095118469    0.0622858190    0.0017631201    
0.0097345079    0.0558801950    0.0016219317    
0.0099571689    0.0552701280    0.0015797915    
0.0101798300    0.0530123710    0.0015471883    
0.0104024910    0.0486176670    0.0014766565    
0.0106251520    0.0472325040    0.0014604111    
0.0108478130    0.0438953860    0.0013710615    
0.0110704740    0.0414962050    0.0012691692    
0.0112931350    0.0439268920    0.0013096469    
0.0115157960    0.0397112810    0.0012379589    
0.0117384570    0.0363753870    0.0011746225    
0.0119611180    0.0375381610    0.0011966729    
0.0121837790    0.0376882200    0.0011789087    
0.0124064400    0.0344084390    0.0010794887    
0.0126291010    0.0363595660    0.0010957842    
0.0128517620    0.0343176920    0.0010672295    
0.0130744230    0.0328622770    0.0010366082    
0.0132970840    0.0342254260    0.0010527163    
0.0135197450    0.0323398860    0.0010086533    
0.0137424060    0.0307727410    0.0009702132    
0.0139650670    0.0304698210    0.0009439219    
0.0141877280    0.0291948400    0.0009260041    
0.0144103890    0.0299838500    0.0009222526    
0.0146330500    0.0295202920    0.0009092857    
0.0148557110    0.0278845930    0.0008800299    
0.0150783720    0.0270977980    0.0008603560    
0.0153010330    0.0267373390    0.0008425651    
0.0155236940    0.0279420280    0.0008562156    
0.0157463550    0.0268808540    0.0008252497    
0.0159690160    0.0250428930    0.0007935144    
0.0161916770    0.0260045670    0.0008040514    
0.0164143380    0.0268796240    0.0008236608    
0.0166369990    0.0267174710    0.0007958540    
0.0168596600    0.0257130630    0.0007738722    
0.0170823210    0.0254986340    0.0007639665    
0.0173049820    0.0254031250    0.0007638526    
0.0175276430    0.0239714580    0.0007498407    
0.0177503040    0.0241236110    0.0007330407    
0.0179729650    0.0236474940    0.0007185730    
0.0181956260    0.0248711020    0.0007228017    
0.0184182870    0.0244707450    0.0007135814    
0.0186409480    0.0232853310    0.0007004889    
0.0188636090    0.0225771900    0.0006854172    
0.0190862700    0.0237512510    0.0007019137    
0.0193089310    0.0238220190    0.0007018630    
0.0195315920    0.0227116820    0.0006620047    
0.0197542530    0.0213845240    0.0006433072    
0.0199769140    0.0230101430    0.0006673112    
0.0201995750    0.0226889210    0.0006522606    
0.0204222360    0.0218021280    0.0006448753    
0.0206448970    0.0239566880    0.0006711847    
0.0208675580    0.0224210280    0.0006359456    
0.0210902190    0.0224512660    0.0006425146    
0.0213128800    0.0214703870    0.0006197967    
0.0215355410    0.0225165590    0.0006271560    
0.0217582020    0.0227960600    0.0006310366    
0.0219808630    0.0235550890    0.0006406140    
0.0222035240    0.0220865420    0.0006147020    
0.0224261850    0.0214598750    0.0006005259    
0.0226488460    0.0214201970    0.0005954651    
0.0228715070    0.0225492520    0.0006094392    
0.0230941680    0.0220221780    0.0006022746    
0.0233168290    0.0212712420    0.0005933914    
0.0235394900    0.0202862360    0.0005730941    
0.0237621510    0.0213855670    0.0005725767    
0.0239848120    0.0212045950    0.0005708085    
0.0242074730    0.0214108330    0.0005689865    
0.0244301340    0.0227024490    0.0005865659    
0.0246527950    0.0221059790    0.0005841687    
0.0248754560    0.0216545380    0.0005651788    
0.0250981170    0.0203436140    0.0005490259    
0.0253207780    0.0206809250    0.0005370311    
0.0255434390    0.0213526450    0.0005515068    
0.0257661000    0.0204587530    0.0005415857    
0.0259887610    0.0209945620    0.0005428015    
0.0262114220    0.0205947880    0.0005404730    
0.0264340830    0.0213216190    0.0005424453    
0.0266567440    0.0213451770    0.0005393912    
0.0268794050    0.0205764450    0.0005274278    
0.0271020660    0.0205174610    0.0005245392    
0.0273247270    0.0199802640    0.0005145180    
0.0275473880    0.0212733000    0.0005298493    
0.0277700490    0.0205400170    0.0005175598    
0.0279927100    0.0209135920    0.0005176885    
0.0282153710    0.0202116670    0.0005114010    
0.0284380320    0.0211035380    0.0005195332    
0.0286606930    0.0208946930    0.0005125314    
0.0288833540    0.0206334160    0.0005102844    
0.0291060150    0.0207580200    0.0005113371    
0.0293286760    0.0200978160    0.0004961289    
0.0295513370    0.0203574520    0.0004938860    
0.0297739980    0.0207714390    0.0005043751    
0.0299966590    0.0202691140    0.0004897293    
0.0302193200    0.0205475040    0.0005002666    
0.0304419810    0.0207943430    0.0005041886    
0.0306646420    0.0206876480    0.0004886997    
0.0308873030    0.0208412200    0.0004883916    
0.0311099640    0.0199947230    0.0004796125    
0.0313326250    0.0211180560    0.0004874407    
0.0315552860    0.0207915940    0.0004899265    
0.0317779470    0.0195557230    0.0004755564    
0.0320006080    0.0207205250    0.0004783925    
0.0322232690    0.0202595170    0.0004750209    
0.0324459300    0.0211102120    0.0004812714    
0.0326685910    0.0203954500    0.0004722738    
0.0328912520    0.0204426880    0.0004743862    
0.0331139130    0.0199035700    0.0004620000    
0.0333365740    0.0197308130    0.0004614843    
0.0335592350    0.0208671560    0.0004700239    
0.0337818960    0.0197029250    0.0004563602    
0.0340045570    0.0196403880    0.0004549117    
0.0342272170    0.0203743180    0.0004615058    
0.0344498780    0.0203042230    0.0004625360    
0.0346725390    0.0205639800    0.0004568645    
0.0348952000    0.0201054880    0.0004496848    
0.0351178610    0.0204219050    0.0004552839    
0.0353405220    0.0198641260    0.0004469778    
0.0355631830    0.0196848380    0.0004432802    
0.0357858440    0.0197647080    0.0004441788    
0.0360085050    0.0201353900    0.0004496793    
0.0362311660    0.0210322640    0.0004541218    
0.0364538270    0.0194320540    0.0004330011    
0.0366764880    0.0203287750    0.0004425578    
0.0368991490    0.0194757750    0.0004309897    
0.0371218100    0.0200093490    0.0004356039    
0.0373444710    0.0198951490    0.0004390892    
0.0375671320    0.0204363220    0.0004443729    
0.0377897930    0.0200795950    0.0004290747    
0.0380124540    0.0203045060    0.0004341782    
0.0382351150    0.0195525010    0.0004260623    
0.0384577760    0.0194684090    0.0004210432    
0.0386804370    0.0206912260    0.0004373772    
0.0389030980    0.0200421080    0.0004272021    
0.0391257590    0.0197709160    0.0004214216    
0.0393484200    0.0189688850    0.0004113961    
0.0395710810    0.0201293800    0.0004243646    
0.0397937420    0.0202099120    0.0004252128    
0.0400164030    0.0199958690    0.0004246757    
0.0402390640    0.0202044730    0.0004212008    
0.0404617250    0.0195763030    0.0004121555    
0.0406843860    0.0201275020    0.0004138799    
0.0409070470    0.0196453990    0.0004131527    
0.0411297080    0.0196335570    0.0004090324    
0.0413523690    0.0195807270    0.0004095347    
0.0415750300    0.0198451030    0.0004157923    
0.0417976910    0.0196502720    0.0004030454    
0.0420203520    0.0201730270    0.0004099057    
0.0422430130    0.0197553870    0.0004071761    
0.0424656740    0.0199639070    0.0004039919    
0.0426883350    0.0204020090    0.0004104276    
0.0429109960    0.0197819530    0.0004054054    
0.0431336570    0.0200521890    0.0004024143    
0.0433563180    0.0201285250    0.0004066576    
0.0435789790    0.0194134760    0.0003930949    
0.0438016400    0.0196413680    0.0003975464    
0.0440243010    0.0197099790    0.0003941996    
0.0442469620    0.0192447630    0.0003918537    
0.0444696230    0.0200496620    0.0003985300    
0.0446922840    0.0197338920    0.0003942051    
0.0449149450    0.0199303560    0.0003908665    
0.0451376060    0.0196086560    0.0003924872    
0.0453602670    0.0197689060    0.0003899564    
0.0455829280    0.0202757700    0.0003944672    
0.0458055890    0.0197054570    0.0003911476    
0.0460282500    0.0200136200    0.0003894408    
0.0462509110    0.0199300900    0.0003862102    
0.0464735720    0.0190235280    0.0003775372    
0.0466962330    0.0202402700    0.0003911939    
0.0469188940    0.0191558540    0.0003794913    
0.0471415550    0.0193227450    0.0003830983    
0.0473642160    0.0202770310    0.0003869493    
0.0475868770    0.0200760640    0.0003831143    
0.0478095380    0.0201833840    0.0003824559    
0.0480321990    0.0193766120    0.0003755552    
0.0482548600    0.0198070380    0.0003780492    
0.0484775210    0.0192381990    0.0003762804    
0.0487001820    0.0198009740    0.0003761563    
0.0489228430    0.0198011140    0.0003759555    
0.0491455040    0.0195915150    0.0003713739    
0.0493681650    0.0199583260    0.0003780556    
0.0495908260    0.0198392310    0.0003705841    
0.0498134870    0.0195485500    0.0003713610    
0.0500361480    0.0193329660    0.0003683305    
0.0502588090    0.0191800900    0.0003613743    
0.0504814700    0.0198246050    0.0003721987    
0.0507041310    0.0201269690    0.0003705675    
0.0509267920    0.0196334330    0.0003675101    
0.0511494530    0.0196439880    0.0003651576    
0.0513721140    0.0203369020    0.0003748141    
0.0515947750    0.0200029740    0.0003667956    
0.0518174360    0.0201282010    0.0003657256    
0.0520400970    0.0200859610    0.0003628084    
0.0522627580    0.0200155710    0.0003652501    
0.0524854190    0.0197394870    0.0003656715    
0.0527080800    0.0202664750    0.0003733893    
0.0529307410    0.0196448290    0.0003693446    
0.0531534020    0.0198743050    0.0003701431    
0.0533760630    0.0193191170    0.0003660789    
0.0535987240    0.0200050440    0.0003707818    
0.0538213850    0.0195852020    0.0003711209    
0.0540440460    0.0192052130    0.0003657638    
0.0542667070    0.0199016370    0.0003749025    
0.0544893680    0.0198804320    0.0003749023    
0.0547120290    0.0192533350    0.0003664146    
0.0549346900    0.0200973170    0.0003745564    
0.0551573510    0.0192083880    0.0003704898    
0.0553800120    0.0187145850    0.0003625877    
0.0556026730    0.0196011480    0.0003787706    
0.0558253340    0.0197149530    0.0003830494    
0.0560479950    0.0194693730    0.0003806564    
0.0562706560    0.0191496490    0.0003811677    
0.0564933170    0.0193215670    0.0003861997    
0.0567159780    0.0204208470    0.0003922736    
0.0569386390    0.0194806760    0.0003891468    
0.0571613000    0.0194843550    0.0003808038    
0.0573839610    0.0202014940    0.0003845289    
0.0576066220    0.0194303020    0.0003781617    
0.0578292830    0.0195651350    0.0003782159    
0.0580519440    0.0196213740    0.0003802278    
0.0582746050    0.0198942100    0.0003811739    
0.0584972660    0.0195900030    0.0003768005    
0.0587199270    0.0201939620    0.0003792670    
0.0589425880    0.0195008220    0.0003705212    
0.0591652490    0.0203222210    0.0003804699    
0.0593879100    0.0194951630    0.0003698799    
0.0596105710    0.0189358400    0.0003641508    
0.0598332320    0.0195031250    0.0003727241    
0.0600558930    0.0192341270    0.0003677848    
0.0602785540    0.0196847240    0.0003716746    
0.0605012150    0.0194900510    0.0003690530    
0.0607238760    0.0201780470    0.0003727737    
0.0609465370    0.0200702760    0.0003747038    
0.0611691980    0.0199795550    0.0003744485    
0.0613918590    0.0198614940    0.0003692646    
0.0616145200    0.0201881210    0.0003750133    
0.0618371810    0.0191856430    0.0003619933    
0.0620598420    0.0193073530    0.0003635140    
0.0622825030    0.0200434960    0.0003760433    
0.0625051640    0.0201565670    0.0003718063    
0.0627278250    0.0198277570    0.0003680019    
0.0629504860    0.0193991700    0.0003610437    
0.0631731470    0.0195653670    0.0003670730    
0.0633958080    0.0191781890    0.0003655144    
0.0636184690    0.0195513920    0.0003741936    
0.0638411300    0.0194048830    0.0003713896    
0.0640637910    0.0201617670    0.0003812259    
0.0642864520    0.0194286570    0.0003734209    
0.0645091130    0.0195369450    0.0003777415    
0.0647317740    0.0194482940    0.0003772991    
0.0649544350    0.0190841700    0.0003733392    
0.0651770960    0.0203502420    0.0003834212    
0.0653997570    0.0196291090    0.0003757499    
0.0656224180    0.0194256040    0.0003746098    
0.0658450790    0.0194185940    0.0003691588    
0.0660677400    0.0198602680    0.0003749223    
0.0662904010    0.0189312150    0.0003704178    
0.0665130620    0.0193636890    0.0003729999    
0.0667357230    0.0198723040    0.0003845852    
0.0669583840    0.0194807920    0.0003795039    
0.0671810450    0.0197122810    0.0003796444    
0.0674037060    0.0199548390    0.0003884441    
0.0676263670    0.0190005580    0.0003762671    
0.0678490280    0.0195049010    0.0003788967    
0.0680716890    0.0199466760    0.0003840162    
0.0682943500    0.0192228490    0.0003728552    
0.0685170110    0.0194282570    0.0003710224    
0.0687396720    0.0190502930    0.0003664195    
0.0689623330    0.0201903270    0.0003760287    
0.0691849940    0.0194414840    0.0003715461    
0.0694076550    0.0196264350    0.0003731099    
0.0696303160    0.0203221810    0.0003766598    
0.0698529770    0.0192221050    0.0003655555    
0.0700756380    0.0193821300    0.0003623619    
0.0702982990    0.0193288970    0.0003658048    
0.0705209600    0.0192555080    0.0003624737    
0.0707436210    0.0194306190    0.0003624459    
0.0709662820    0.0193774310    0.0003662644    
0.0711889430    0.0201133130    0.0003685711    
0.0714116040    0.0194563270    0.0003632416    
0.0716342650    0.0198098730    0.0003650388    
0.0718569260    0.0194037390    0.0003598224    
0.0720795870    0.0194668660    0.0003618652    
0.0723022480    0.0191484010    0.0003594399    
0.0725249090    0.0196409670    0.0003596740    
0.0727475700    0.0193883660    0.0003604060    
0.0729702310    0.0198780940    0.0003620188    
0.0731928920    0.0192331540    0.0003575207    
0.0734155530    0.0196264510    0.0003604371    
0.0736382140    0.0203228810    0.0003644224    
0.0738608750    0.0187858400    0.0003526342    
0.0740835360    0.0193249910    0.0003567708    
0.0743061970    0.0189126350    0.0003479740    
0.0745288580    0.0193819880    0.0003558875    
0.0747515190    0.0197341660    0.0003598155    
0.0749741800    0.0198728100    0.0003577349    
0.0751968410    0.0196235610    0.0003582756    
0.0754195020    0.0195559140    0.0003555621    
0.0756421630    0.0200324390    0.0003569263    
0.0758648240    0.0196304390    0.0003541762    
0.0760874850    0.0193498470    0.0003514670    
0.0763101460    0.0190960950    0.0003488199    
0.0765328070    0.0192482870    0.0003537906    
0.0767554680    0.0197449020    0.0003558940    
0.0769781290    0.0197152060    0.0003535827    
0.0772007900    0.0194938350    0.0003487721    
0.0774234510    0.0196846700    0.0003524686    
0.0776461120    0.0190741130    0.0003466302    
0.0778687730    0.0193049850    0.0003475697    
0.0780914340    0.0199119200    0.0003555133    
0.0783140950    0.0194264850    0.0003455817    
0.0785367560    0.0195311280    0.0003520980    
0.0787594170    0.0198310710    0.0003516125    
0.0789820780    0.0196221940    0.0003479638    
0.0792047390    0.0197817660    0.0003505180    
0.0794274000    0.0192043770    0.0003468280    
0.0796500610    0.0197034930    0.0003478773    
0.0798727220    0.0201085410    0.0003511103    
0.0800953830    0.0198635970    0.0003481628    
0.0803180440    0.0196462840    0.0003486652    
0.0805407050    0.0195479970    0.0003474685    
0.0807633660    0.0200234060    0.0003513419    
0.0809860270    0.0195698270    0.0003460571    
0.0812086880    0.0195097030    0.0003425392    
0.0814313490    0.0194695790    0.0003437474    
0.0816540100    0.0198039310    0.0003458971    
0.0818766710    0.0202768250    0.0003508017    
0.0820993320    0.0199308710    0.0003471624    
0.0823219930    0.0192847210    0.0003428971    
0.0825446540    0.0195763390    0.0003429699    
0.0827673150    0.0194208930    0.0003393105    
0.0829899760    0.0197121440    0.0003412367    
0.0832126370    0.0193050250    0.0003392071    
0.0834352980    0.0193730650    0.0003390445    
0.0836579590    0.0198185600    0.0003421573    
0.0838806200    0.0192829830    0.0003385586    
0.0841032810    0.0196724750    0.0003398379    
0.0843259420    0.0194931510    0.0003372437    
0.0845486030    0.0198665910    0.0003404590    
0.0847712640    0.0195156770    0.0003353823    
0.0849939250    0.0194680310    0.0003355560    
0.0852165860    0.0192929110    0.0003344809    
0.0854392470    0.0194811240    0.0003329255    
0.0856619080    0.0198268730    0.0003383406    
0.0858845690    0.0197945390    0.0003350198    
0.0861072300    0.0190627540    0.0003310384    
0.0863298910    0.0196288890    0.0003376771    
0.0865525520    0.0194226740    0.0003329982    
0.0867752130    0.0192846350    0.0003291353    
0.0869978740    0.0192927180    0.0003300433    
0.0872205350    0.0192830790    0.0003295410    
0.0874431960    0.0194914840    0.0003313173    
0.0876658570    0.0197549510    0.0003348297    
0.0878885180    0.0196006640    0.0003340914    
0.0881111790    0.0195447130    0.0003331862    
0.0883338400    0.0191254830    0.0003247677    
0.0885565010    0.0191831470    0.0003296677    
0.0887791620    0.0191414420    0.0003250387    
0.0890018230    0.0193007410    0.0003295543    
0.0892244840    0.0186098320    0.0003241521    
0.0894471450    0.0197350250    0.0003323978    
0.0896698060    0.0193141590    0.0003275940    
0.0898924670    0.0195048450    0.0003307331    
0.0901151280    0.0198869480    0.0003303498    
0.0903377890    0.0191387330    0.0003267880    
0.0905604500    0.0192177910    0.0003259595    
0.0907831110    0.0196504090    0.0003287879    
0.0910057720    0.0191427440    0.0003260022    
0.0912284330    0.0191163290    0.0003211128    
0.0914510940    0.0192637860    0.0003259435    
0.0916737550    0.0188664740    0.0003217643    
0.0918964160    0.0191675930    0.0003256707    
0.0921190770    0.0196213070    0.0003265233    
0.0923417380    0.0200235220    0.0003299883    
0.0925643990    0.0196171780    0.0003258236    
0.0927870600    0.0189436180    0.0003214942    
0.0930097210    0.0190996690    0.0003200662    
0.0932323820    0.0196209790    0.0003267895    
