# Diamond Light Source Ltd.
# Data extracted from: /dls/b21/data/2018/cm19678-3/processed/b21-386631_00357.dat
q(1/A)          Column          Error           
0.0035000000    2.1163364000    0.0247106770    
0.0037226610    1.8766317000    0.0227792870    
0.0039453220    1.6890001000    0.0196594820    
0.0041679830    1.2807661000    0.0140590810    
0.0043906440    0.9626572500    0.0116585140    
0.0046133050    0.7842302600    0.0101016660    
0.0048359660    0.5892154200    0.0082823949    
0.0050586270    0.4677885200    0.0072536250    
0.0052812880    0.4321506400    0.0065917687    
0.0055039490    0.3800756400    0.0058780051    
0.0057266100    0.3257643400    0.0052645452    
0.0059492710    0.2671455100    0.0047674160    
0.0061719320    0.2210453100    0.0041788563    
0.0063945930    0.2024010500    0.0040472116    
0.0066172539    0.1880228500    0.0036628600    
0.0068399149    0.1664555500    0.0033921108    
0.0070625759    0.1454525300    0.0031383700    
0.0072852369    0.1266115900    0.0028842481    
0.0075078979    0.1153511000    0.0027394753    
0.0077305589    0.0984772930    0.0024829715    
0.0079532199    0.1018550900    0.0024902031    
0.0081758809    0.0871996830    0.0023255316    
0.0083985419    0.0848126940    0.0021391172    
0.0086212029    0.0763422280    0.0020294886    
0.0088438639    0.0722539640    0.0019585408    
0.0090665249    0.0664601560    0.0018141997    
0.0092891859    0.0647965080    0.0018697352    
0.0095118469    0.0611220940    0.0017463455    
0.0097345079    0.0547832400    0.0016057252    
0.0099571689    0.0513283210    0.0015222179    
0.0101798300    0.0485745680    0.0014808218    
0.0104024910    0.0513850740    0.0015179053    
0.0106251520    0.0476265680    0.0014663008    
0.0108478130    0.0473947420    0.0014244800    
0.0110704740    0.0433482320    0.0012970144    
0.0112931350    0.0400899900    0.0012509810    
0.0115157960    0.0415915230    0.0012667632    
0.0117384570    0.0387170530    0.0012116841    
0.0119611180    0.0384819090    0.0012114654    
0.0121837790    0.0399642400    0.0012138273    
0.0124064400    0.0354829800    0.0010960729    
0.0126291010    0.0359209500    0.0010890137    
0.0128517620    0.0333465680    0.0010518846    
0.0130744230    0.0328864590    0.0010368552    
0.0132970840    0.0330835650    0.0010348725    
0.0135197450    0.0324887680    0.0010108415    
0.0137424060    0.0296026850    0.0009514663    
0.0139650670    0.0309881460    0.0009517933    
0.0141877280    0.0299507310    0.0009377938    
0.0144103890    0.0298910080    0.0009207045    
0.0146330500    0.0286726300    0.0008960197    
0.0148557110    0.0287658950    0.0008937129    
0.0150783720    0.0281558430    0.0008768781    
0.0153010330    0.0286416280    0.0008719408    
0.0155236940    0.0279085640    0.0008555919    
0.0157463550    0.0277857320    0.0008389161    
0.0159690160    0.0251620940    0.0007952977    
0.0161916770    0.0263706520    0.0008095864    
0.0164143380    0.0262670840    0.0008141164    
0.0166369990    0.0262128410    0.0007882002    
0.0168596600    0.0259392530    0.0007771679    
0.0170823210    0.0248741820    0.0007544562    
0.0173049820    0.0239269460    0.0007412307    
0.0175276430    0.0248094290    0.0007627354    
0.0177503040    0.0236719840    0.0007260525    
0.0179729650    0.0233575880    0.0007140623    
0.0181956260    0.0247596590    0.0007210872    
0.0184182870    0.0234034520    0.0006977561    
0.0186409480    0.0246276060    0.0007203025    
0.0188636090    0.0228833910    0.0006899602    
0.0190862700    0.0233718160    0.0006961944    
0.0193089310    0.0238778720    0.0007025943    
0.0195315920    0.0232652480    0.0006699371    
0.0197542530    0.0248808850    0.0006938176    
0.0199769140    0.0247454610    0.0006919270    
0.0201995750    0.0240890210    0.0006719974    
0.0204222360    0.0229406550    0.0006614134    
0.0206448970    0.0215441570    0.0006364103    
0.0208675580    0.0240923070    0.0006591362    
0.0210902190    0.0224822190    0.0006428741    
0.0213128800    0.0229137040    0.0006402075    
0.0215355410    0.0219169630    0.0006186692    
0.0217582020    0.0208866120    0.0006039520    
0.0219808630    0.0208143810    0.0006021152    
0.0222035240    0.0225768300    0.0006214068    
0.0224261850    0.0223615490    0.0006129328    
0.0226488460    0.0204382490    0.0005815810    
0.0228715070    0.0218847310    0.0006003143    
0.0230941680    0.0215389310    0.0005955528    
0.0233168290    0.0206368640    0.0005844004    
0.0235394900    0.0214625570    0.0005893994    
0.0237621510    0.0224068840    0.0005860137    
0.0239848120    0.0217674860    0.0005782603    
0.0242074730    0.0207703860    0.0005603395    
0.0244301340    0.0212572030    0.0005675149    
0.0246527950    0.0210353690    0.0005697735    
0.0248754560    0.0212065150    0.0005592292    
0.0250981170    0.0206197950    0.0005526685    
0.0253207780    0.0204246200    0.0005336238    
0.0255434390    0.0204641810    0.0005398412    
0.0257661000    0.0207831190    0.0005457914    
0.0259887610    0.0204138900    0.0005351731    
0.0262114220    0.0205610960    0.0005399608    
0.0264340830    0.0205572730    0.0005325647    
0.0266567440    0.0205084130    0.0005286446    
0.0268794050    0.0202737690    0.0005234665    
0.0271020660    0.0204451160    0.0005235458    
0.0273247270    0.0211407460    0.0005291805    
0.0275473880    0.0215580470    0.0005333145    
0.0277700490    0.0201957140    0.0005131372    
0.0279927100    0.0214334440    0.0005240153    
0.0282153710    0.0212283980    0.0005240382    
0.0284380320    0.0209446330    0.0005175065    
0.0286606930    0.0209646960    0.0005133228    
0.0288833540    0.0209813370    0.0005145020    
0.0291060150    0.0207652380    0.0005113598    
0.0293286760    0.0200926120    0.0004960005    
0.0295513370    0.0201605180    0.0004914277    
0.0297739980    0.0202150750    0.0004975100    
0.0299966590    0.0202283770    0.0004891736    
0.0302193200    0.0211266680    0.0005072024    
0.0304419810    0.0209967260    0.0005065706    
0.0306646420    0.0204052960    0.0004852905    
0.0308873030    0.0201836320    0.0004805627    
0.0311099640    0.0193224610    0.0004714198    
0.0313326250    0.0203927130    0.0004789345    
0.0315552860    0.0214556170    0.0004976240    
0.0317779470    0.0202790400    0.0004842087    
0.0320006080    0.0202624310    0.0004730135    
0.0322232690    0.0209223620    0.0004826667    
0.0324459300    0.0198103800    0.0004661589    
0.0326685910    0.0204339020    0.0004726576    
0.0328912520    0.0207015290    0.0004773182    
0.0331139130    0.0204988000    0.0004687967    
0.0333365740    0.0199954770    0.0004645089    
0.0335592350    0.0201631860    0.0004619678    
0.0337818960    0.0197189580    0.0004564867    
0.0340045570    0.0200566610    0.0004596478    
0.0342272170    0.0206407690    0.0004644536    
0.0344498780    0.0198986760    0.0004578342    
0.0346725390    0.0201324650    0.0004519872    
0.0348952000    0.0203315510    0.0004521473    
0.0351178610    0.0202847010    0.0004536932    
0.0353405220    0.0198288180    0.0004465225    
0.0355631830    0.0197595780    0.0004440635    
0.0357858440    0.0198494070    0.0004450719    
0.0360085050    0.0202807760    0.0004512414    
0.0362311660    0.0195172010    0.0004374031    
0.0364538270    0.0197164020    0.0004361011    
0.0366764880    0.0200249190    0.0004391810    
0.0368991490    0.0201572620    0.0004384086    
0.0371218100    0.0202696260    0.0004383711    
0.0373444710    0.0200256340    0.0004404697    
0.0375671320    0.0209816550    0.0004502045    
0.0377897930    0.0196252430    0.0004241375    
0.0380124540    0.0195938340    0.0004264571    
0.0382351150    0.0198630190    0.0004293766    
0.0384577760    0.0202007550    0.0004288337    
0.0386804370    0.0200388580    0.0004303713    
0.0389030980    0.0193541520    0.0004197518    
0.0391257590    0.0198825420    0.0004225549    
0.0393484200    0.0201681780    0.0004241470    
0.0395710810    0.0201867770    0.0004249142    
0.0397937420    0.0194444330    0.0004170283    
0.0400164030    0.0191160430    0.0004151739    
0.0402390640    0.0200587870    0.0004196252    
0.0404617250    0.0200396950    0.0004169511    
0.0406843860    0.0198585320    0.0004110519    
0.0409070470    0.0206132070    0.0004231523    
0.0411297080    0.0201481510    0.0004143045    
0.0413523690    0.0200038210    0.0004138820    
0.0415750300    0.0188383860    0.0004050563    
0.0417976910    0.0197030370    0.0004035339    
0.0420203520    0.0201178420    0.0004092917    
0.0422430130    0.0201194360    0.0004108575    
0.0424656740    0.0192885430    0.0003970484    
0.0426883350    0.0198684420    0.0004049727    
0.0429109960    0.0196688530    0.0004041924    
0.0431336570    0.0200066290    0.0004019049    
0.0433563180    0.0201725950    0.0004070498    
0.0435789790    0.0201325860    0.0004002574    
0.0438016400    0.0191214440    0.0003921986    
0.0440243010    0.0199413340    0.0003964551    
0.0442469620    0.0202528200    0.0004019334    
0.0444696230    0.0202503800    0.0004004680    
0.0446922840    0.0198862350    0.0003956725    
0.0449149450    0.0198792150    0.0003903141    
0.0451376060    0.0195328930    0.0003916776    
0.0453602670    0.0197484070    0.0003897037    
0.0455829280    0.0196797450    0.0003885758    
0.0458055890    0.0200496520    0.0003944979    
0.0460282500    0.0197205470    0.0003865288    
0.0462509110    0.0194161450    0.0003811486    
0.0464735720    0.0194156040    0.0003813585    
0.0466962330    0.0199099990    0.0003879389    
0.0469188940    0.0200678520    0.0003883696    
0.0471415550    0.0197505690    0.0003872661    
0.0473642160    0.0202274870    0.0003864263    
0.0475868770    0.0194057350    0.0003766152    
0.0478095380    0.0192580050    0.0003735372    
0.0480321990    0.0197936660    0.0003795262    
0.0482548600    0.0198235510    0.0003781578    
0.0484775210    0.0198586290    0.0003822503    
0.0487001820    0.0192314760    0.0003706595    
0.0489228430    0.0193820840    0.0003719081    
0.0491455040    0.0194738360    0.0003702090    
0.0493681650    0.0195235970    0.0003738671    
0.0495908260    0.0198686970    0.0003708112    
0.0498134870    0.0195858060    0.0003716666    
0.0500361480    0.0194682730    0.0003695693    
0.0502588090    0.0200940600    0.0003698363    
0.0504814700    0.0198334440    0.0003722335    
0.0507041310    0.0199921600    0.0003692766    
0.0509267920    0.0199997340    0.0003708745    
0.0511494530    0.0197135480    0.0003657562    
0.0513721140    0.0198896440    0.0003706216    
0.0515947750    0.0193926170    0.0003611094    
0.0518174360    0.0194387150    0.0003593605    
0.0520400970    0.0197466270    0.0003596841    
0.0522627580    0.0198637920    0.0003638155    
0.0524854190    0.0194296240    0.0003627431    
0.0527080800    0.0196422490    0.0003675464    
0.0529307410    0.0193828780    0.0003668264    
0.0531534020    0.0191248410    0.0003630499    
0.0533760630    0.0199660100    0.0003721092    
0.0535987240    0.0201578850    0.0003721473    
0.0538213850    0.0193832750    0.0003691550    
0.0540440460    0.0205582550    0.0003783799    
0.0542667070    0.0197552750    0.0003734730    
0.0544893680    0.0198682160    0.0003747386    
0.0547120290    0.0193598940    0.0003673796    
0.0549346900    0.0200641980    0.0003741992    
0.0551573510    0.0195534770    0.0003737546    
0.0553800120    0.0194331260    0.0003694351    
0.0556026730    0.0195448510    0.0003781773    
0.0558253340    0.0195238370    0.0003811389    
0.0560479950    0.0198065950    0.0003838891    
0.0562706560    0.0194025830    0.0003836271    
0.0564933170    0.0193860200    0.0003867932    
0.0567159780    0.0197300190    0.0003855314    
0.0569386390    0.0197709530    0.0003919846    
0.0571613000    0.0194569890    0.0003804870    
0.0573839610    0.0190181490    0.0003730483    
0.0576066220    0.0195724320    0.0003794932    
0.0578292830    0.0204445120    0.0003865721    
0.0580519440    0.0194616030    0.0003786275    
0.0582746050    0.0202249240    0.0003842793    
0.0584972660    0.0194110360    0.0003750269    
0.0587199270    0.0200463090    0.0003778289    
0.0589425880    0.0189960620    0.0003656471    
0.0591652490    0.0189069490    0.0003669350    
0.0593879100    0.0199952590    0.0003745455    
0.0596105710    0.0195400310    0.0003698668    
0.0598332320    0.0199182310    0.0003766210    
0.0600558930    0.0195174080    0.0003704353    
0.0602785540    0.0195814050    0.0003706499    
0.0605012150    0.0201067920    0.0003747981    
0.0607238760    0.0193466320    0.0003649658    
0.0609465370    0.0200301110    0.0003742802    
0.0611691980    0.0198691430    0.0003733641    
0.0613918590    0.0199524420    0.0003700612    
0.0616145200    0.0196814560    0.0003702296    
0.0618371810    0.0197405970    0.0003671438    
0.0620598420    0.0198907990    0.0003689179    
0.0622825030    0.0198196550    0.0003738892    
0.0625051640    0.0196508210    0.0003670647    
0.0627278250    0.0195016920    0.0003649162    
0.0629504860    0.0193874290    0.0003608877    
0.0631731470    0.0195396460    0.0003667841    
0.0633958080    0.0200855710    0.0003740129    
0.0636184690    0.0193530150    0.0003722422    
0.0638411300    0.0192150990    0.0003695211    
0.0640637910    0.0192485290    0.0003724437    
0.0642864520    0.0199761270    0.0003785966    
0.0645091130    0.0194807750    0.0003771493    
0.0647317740    0.0205409210    0.0003877026    
0.0649544350    0.0192544690    0.0003749527    
0.0651770960    0.0197888630    0.0003780468    
0.0653997570    0.0194370630    0.0003738588    
0.0656224180    0.0193339080    0.0003736762    
0.0658450790    0.0191820350    0.0003668558    
0.0660677400    0.0199117330    0.0003753592    
0.0662904010    0.0195277240    0.0003761597    
0.0665130620    0.0198686820    0.0003777835    
0.0667357230    0.0191751560    0.0003777302    
0.0669583840    0.0198674800    0.0003832023    
0.0671810450    0.0194586450    0.0003771452    
0.0674037060    0.0197909220    0.0003867953    
0.0676263670    0.0194500440    0.0003806424    
0.0678490280    0.0198751310    0.0003824263    
0.0680716890    0.0199119470    0.0003836321    
0.0682943500    0.0199915030    0.0003801875    
0.0685170110    0.0191540500    0.0003683471    
0.0687396720    0.0196935930    0.0003725067    
0.0689623330    0.0206191880    0.0003799522    
0.0691849940    0.0193867590    0.0003709748    
0.0694076550    0.0199830050    0.0003764353    
0.0696303160    0.0197655500    0.0003714174    
0.0698529770    0.0194673330    0.0003678323    
0.0700756380    0.0197225270    0.0003654827    
0.0702982990    0.0195938180    0.0003682554    
0.0705209600    0.0198644650    0.0003681130    
0.0707436210    0.0197432650    0.0003653030    
0.0709662820    0.0187702700    0.0003604339    
0.0711889430    0.0194801500    0.0003626765    
0.0714116040    0.0196885830    0.0003653559    
0.0716342650    0.0198652680    0.0003655015    
0.0718569260    0.0196922310    0.0003624405    
0.0720795870    0.0198115200    0.0003650072    
0.0723022480    0.0194874580    0.0003625613    
0.0725249090    0.0193593210    0.0003570397    
0.0727475700    0.0201334960    0.0003672186    
0.0729702310    0.0192401770    0.0003561164    
0.0731928920    0.0192348180    0.0003574899    
0.0734155530    0.0198331360    0.0003622830    
0.0736382140    0.0193311370    0.0003553734    
0.0738608750    0.0200515710    0.0003642731    
0.0740835360    0.0201891890    0.0003646135    
0.0743061970    0.0195478100    0.0003537232    
0.0745288580    0.0192789750    0.0003548945    
0.0747515190    0.0193748780    0.0003564788    
0.0749741800    0.0194170050    0.0003535628    
0.0751968410    0.0200500870    0.0003621014    
0.0754195020    0.0193763470    0.0003538801    
0.0756421630    0.0189527740    0.0003471297    
0.0758648240    0.0197659030    0.0003553502    
0.0760874850    0.0196001310    0.0003536870    
0.0763101460    0.0196771990    0.0003540416    
0.0765328070    0.0194643420    0.0003557245    
0.0767554680    0.0189253140    0.0003483842    
0.0769781290    0.0201792390    0.0003576733    
0.0772007900    0.0199317150    0.0003526219    
0.0774234510    0.0194965950    0.0003507353    
0.0776461120    0.0193021860    0.0003486513    
0.0778687730    0.0197566800    0.0003515669    
0.0780914340    0.0205603810    0.0003612091    
0.0783140950    0.0202757540    0.0003530091    
0.0785367560    0.0191516680    0.0003486157    
0.0787594170    0.0192774670    0.0003466251    
0.0789820780    0.0193641890    0.0003456238    
0.0792047390    0.0199691330    0.0003521285    
0.0794274000    0.0199070150    0.0003530700    
0.0796500610    0.0196247060    0.0003471361    
0.0798727220    0.0200726890    0.0003507518    
0.0800953830    0.0192849690    0.0003430099    
0.0803180440    0.0192267220    0.0003448774    
0.0805407050    0.0193823940    0.0003459487    
0.0807633660    0.0191307150    0.0003433763    
0.0809860270    0.0192833410    0.0003434703    
0.0812086880    0.0197150910    0.0003442929    
0.0814313490    0.0196526310    0.0003453148    
0.0816540100    0.0201309990    0.0003486966    
0.0818766710    0.0197376330    0.0003460613    
0.0820993320    0.0200587100    0.0003482289    
0.0823219930    0.0194991620    0.0003447536    
0.0825446540    0.0194150850    0.0003415101    
0.0827673150    0.0194810580    0.0003397916    
0.0829899760    0.0196066450    0.0003402783    
0.0832126370    0.0196694620    0.0003423495    
0.0834352980    0.0193858460    0.0003391124    
0.0836579590    0.0194827130    0.0003392019    
0.0838806200    0.0195275820    0.0003406549    
0.0841032810    0.0195441300    0.0003386837    
0.0843259420    0.0197680890    0.0003395697    
0.0845486030    0.0192664780    0.0003352340    
0.0847712640    0.0195048620    0.0003352460    
0.0849939250    0.0196942790    0.0003374565    
0.0852165860    0.0191255890    0.0003329842    
0.0854392470    0.0198173670    0.0003357429    
0.0856619080    0.0198101950    0.0003381545    
0.0858845690    0.0194946420    0.0003324292    
0.0861072300    0.0194428830    0.0003342794    
0.0863298910    0.0189501280    0.0003317444    
0.0865525520    0.0193149060    0.0003320301    
0.0867752130    0.0197626160    0.0003331461    
0.0869978740    0.0198352530    0.0003346084    
0.0872205350    0.0195483400    0.0003317570    
0.0874431960    0.0193231590    0.0003298409    
0.0876658570    0.0198179190    0.0003353195    
0.0878885180    0.0197037570    0.0003349255    
0.0881111790    0.0195680450    0.0003333418    
0.0883338400    0.0199916510    0.0003319975    
0.0885565010    0.0194840340    0.0003322000    
0.0887791620    0.0192137390    0.0003256098    
0.0890018230    0.0197514160    0.0003333365    
0.0892244840    0.0192710910    0.0003298181    
0.0894471450    0.0194780440    0.0003301838    
0.0896698060    0.0191647290    0.0003262820    
0.0898924670    0.0194269090    0.0003300290    
0.0901151280    0.0191027660    0.0003237292    
0.0903377890    0.0202829200    0.0003363710    
0.0905604500    0.0195499800    0.0003287220    
0.0907831110    0.0194748270    0.0003272734    
0.0910057720    0.0193986570    0.0003281316    
0.0912284330    0.0195751430    0.0003249014    
0.0914510940    0.0196061510    0.0003287846    
0.0916737550    0.0193827790    0.0003260951    
0.0918964160    0.0202413580    0.0003346250    
0.0921190770    0.0192902850    0.0003237154    
0.0923417380    0.0199150390    0.0003290506    
0.0925643990    0.0196283290    0.0003258740    
0.0927870600    0.0194132720    0.0003254129    
0.0930097210    0.0192931250    0.0003216414    
0.0932323820    0.0194526600    0.0003253426    
