# Diamond Light Source Ltd.
# Data extracted from: /dls/b21/data/2018/cm19678-3/processed/b21-386631_00367.dat
q(1/A)          Column          Error           
0.0035000000    2.0669525000    0.0244289230    
0.0037226610    1.8798374000    0.0228064410    
0.0039453220    1.6315218000    0.0193286030    
0.0041679830    1.3347567000    0.0143572030    
0.0043906440    0.9582217400    0.0116355560    
0.0046133050    0.7699168600    0.0100124390    
0.0048359660    0.6107005700    0.0084348976    
0.0050586270    0.4622521000    0.0072130101    
0.0052812880    0.4291225500    0.0065708540    
0.0055039490    0.3798777900    0.0058784613    
0.0057266100    0.3180669800    0.0052037348    
0.0059492710    0.2628990800    0.0047309724    
0.0061719320    0.2204832700    0.0041749510    
0.0063945930    0.2035906700    0.0040604601    
0.0066172539    0.1822234400    0.0036071475    
0.0068399149    0.1707184600    0.0034364332    
0.0070625759    0.1453475900    0.0031382981    
0.0072852369    0.1243302600    0.0028591113    
0.0075078979    0.1121088000    0.0027016130    
0.0077305589    0.1009244700    0.0025144830    
0.0079532199    0.0989387400    0.0024551236    
0.0081758809    0.0950163460    0.0024283469    
0.0083985419    0.0810908400    0.0020923620    
0.0086212029    0.0767717660    0.0020358779    
0.0088438639    0.0710278240    0.0019425079    
0.0090665249    0.0667033190    0.0018181299    
0.0092891859    0.0598733670    0.0017979098    
0.0095118469    0.0592161770    0.0017194835    
0.0097345079    0.0608486290    0.0016928541    
0.0099571689    0.0572356680    0.0016079719    
0.0101798300    0.0500078100    0.0015030175    
0.0104024910    0.0488622880    0.0014806754    
0.0106251520    0.0472070290    0.0014603216    
0.0108478130    0.0446420170    0.0013829611    
0.0110704740    0.0455522440    0.0013300280    
0.0112931350    0.0412499060    0.0012693781    
0.0115157960    0.0403841820    0.0012486636    
0.0117384570    0.0376427870    0.0011951597    
0.0119611180    0.0378972970    0.0012026344    
0.0121837790    0.0363758150    0.0011584420    
0.0124064400    0.0363201080    0.0011093019    
0.0126291010    0.0370354880    0.0011061532    
0.0128517620    0.0342988010    0.0010671581    
0.0130744230    0.0323525840    0.0010287523    
0.0132970840    0.0312271240    0.0010057579    
0.0135197450    0.0306853500    0.0009827177    
0.0137424060    0.0324380810    0.0009963277    
0.0139650670    0.0315064140    0.0009600440    
0.0141877280    0.0311756980    0.0009571026    
0.0144103890    0.0299112190    0.0009213270    
0.0146330500    0.0299248770    0.0009156864    
0.0148557110    0.0287575590    0.0008938854    
0.0150783720    0.0286667800    0.0008850976    
0.0153010330    0.0264297390    0.0008378791    
0.0155236940    0.0277437010    0.0008533494    
0.0157463550    0.0278045190    0.0008394833    
0.0159690160    0.0263864970    0.0008146930    
0.0161916770    0.0262143830    0.0008074569    
0.0164143380    0.0262343450    0.0008138839    
0.0166369990    0.0264677310    0.0007922908    
0.0168596600    0.0257936880    0.0007752462    
0.0170823210    0.0267687030    0.0007829248    
0.0173049820    0.0239890800    0.0007424434    
0.0175276430    0.0233713600    0.0007405499    
0.0177503040    0.0248244790    0.0007437681    
0.0179729650    0.0259510060    0.0007529151    
0.0181956260    0.0246923410    0.0007203496    
0.0184182870    0.0231694710    0.0006944941    
0.0186409480    0.0232107160    0.0006995115    
0.0188636090    0.0236482810    0.0007016336    
0.0190862700    0.0240516860    0.0007064864    
0.0193089310    0.0241422660    0.0007067122    
0.0195315920    0.0237442810    0.0006770278    
0.0197542530    0.0220710630    0.0006536885    
0.0199769140    0.0229229370    0.0006661843    
0.0201995750    0.0225670710    0.0006506424    
0.0204222360    0.0220402100    0.0006485220    
0.0206448970    0.0222547730    0.0006470395    
0.0208675580    0.0216002920    0.0006243276    
0.0210902190    0.0225526060    0.0006440973    
0.0213128800    0.0221595210    0.0006297962    
0.0215355410    0.0216521730    0.0006151285    
0.0217582020    0.0221939230    0.0006227765    
0.0219808630    0.0215256420    0.0006125233    
0.0222035240    0.0210688400    0.0006004980    
0.0224261850    0.0215192600    0.0006014816    
0.0226488460    0.0216940960    0.0005993851    
0.0228715070    0.0222126140    0.0006049991    
0.0230941680    0.0215699730    0.0005961832    
0.0233168290    0.0209157840    0.0005885352    
0.0235394900    0.0226108510    0.0006051656    
0.0237621510    0.0222840050    0.0005846022    
0.0239848120    0.0214593910    0.0005743474    
0.0242074730    0.0219794590    0.0005766127    
0.0244301340    0.0216960970    0.0005735375    
0.0246527950    0.0210650360    0.0005703678    
0.0248754560    0.0201140630    0.0005448186    
0.0250981170    0.0216268830    0.0005661953    
0.0253207780    0.0211638900    0.0005433788    
0.0255434390    0.0213473000    0.0005515527    
0.0257661000    0.0214282580    0.0005543851    
0.0259887610    0.0203574940    0.0005346140    
0.0262114220    0.0213554290    0.0005504781    
0.0264340830    0.0212338680    0.0005414408    
0.0266567440    0.0211495390    0.0005370256    
0.0268794050    0.0220592500    0.0005462152    
0.0271020660    0.0205796810    0.0005254434    
0.0273247270    0.0216189660    0.0005353132    
0.0275473880    0.0205428410    0.0005207817    
0.0277700490    0.0207312380    0.0005200718    
0.0279927100    0.0205377130    0.0005131222    
0.0282153710    0.0212556960    0.0005245523    
0.0284380320    0.0204085940    0.0005110139    
0.0286606930    0.0210166030    0.0005141316    
0.0288833540    0.0210081490    0.0005150046    
0.0291060150    0.0201114180    0.0005034151    
0.0293286760    0.0213927000    0.0005119688    
0.0295513370    0.0214207990    0.0005067262    
0.0297739980    0.0206085680    0.0005024986    
0.0299966590    0.0199579560    0.0004860571    
0.0302193200    0.0203732980    0.0004982453    
0.0304419810    0.0205094980    0.0005008279    
0.0306646420    0.0196106450    0.0004759080    
0.0308873030    0.0202659770    0.0004817047    
0.0311099640    0.0205555050    0.0004863931    
0.0313326250    0.0201138550    0.0004758094    
0.0315552860    0.0205346320    0.0004869911    
0.0317779470    0.0207555280    0.0004900299    
0.0320006080    0.0197015490    0.0004665785    
0.0322232690    0.0201231160    0.0004735178    
0.0324459300    0.0196371730    0.0004642734    
0.0326685910    0.0203273730    0.0004715833    
0.0328912520    0.0204402010    0.0004744562    
0.0331139130    0.0202659080    0.0004662835    
0.0333365740    0.0201493730    0.0004664506    
0.0335592350    0.0199755810    0.0004599690    
0.0337818960    0.0204196430    0.0004646832    
0.0340045570    0.0202494210    0.0004620074    
0.0342272170    0.0207279320    0.0004655905    
0.0344498780    0.0198910480    0.0004579011    
0.0346725390    0.0199531460    0.0004501219    
0.0348952000    0.0204157320    0.0004532355    
0.0351178610    0.0207045880    0.0004585197    
0.0353405220    0.0200535260    0.0004491973    
0.0355631830    0.0198827880    0.0004455964    
0.0357858440    0.0195332790    0.0004416627    
0.0360085050    0.0206260330    0.0004552199    
0.0362311660    0.0204917130    0.0004483416    
0.0364538270    0.0197973010    0.0004371426    
0.0366764880    0.0204239990    0.0004436856    
0.0368991490    0.0200563920    0.0004374581    
0.0371218100    0.0195148800    0.0004302776    
0.0373444710    0.0201070380    0.0004415132    
0.0375671320    0.0197295170    0.0004367118    
0.0377897930    0.0197944470    0.0004261060    
0.0380124540    0.0200807730    0.0004318696    
0.0382351150    0.0201829550    0.0004329671    
0.0384577760    0.0197133810    0.0004237722    
0.0386804370    0.0196546880    0.0004263700    
0.0389030980    0.0201688930    0.0004286406    
0.0391257590    0.0196533510    0.0004202544    
0.0393484200    0.0200122190    0.0004226467    
0.0395710810    0.0203078280    0.0004263303    
0.0397937420    0.0201198890    0.0004243531    
0.0400164030    0.0193364990    0.0004177022    
0.0402390640    0.0193959500    0.0004127732    
0.0404617250    0.0202095040    0.0004188554    
0.0406843860    0.0203487490    0.0004162352    
0.0409070470    0.0192885100    0.0004094681    
0.0411297080    0.0202555500    0.0004155476    
0.0413523690    0.0197774130    0.0004116722    
0.0415750300    0.0192781720    0.0004098956    
0.0417976910    0.0198569540    0.0004052440    
0.0420203520    0.0193981800    0.0004020402    
0.0422430130    0.0200406870    0.0004101912    
0.0424656740    0.0203811650    0.0004082771    
0.0426883350    0.0198653560    0.0004050782    
0.0429109960    0.0196322810    0.0004039530    
0.0431336570    0.0196485150    0.0003984262    
0.0433563180    0.0203423980    0.0004088976    
0.0435789790    0.0204328640    0.0004033675    
0.0438016400    0.0201647470    0.0004028922    
0.0440243010    0.0197418610    0.0003946005    
0.0442469620    0.0196918030    0.0003964614    
0.0444696230    0.0203512460    0.0004015998    
0.0446922840    0.0197972680    0.0003949199    
0.0449149450    0.0200306930    0.0003919308    
0.0451376060    0.0201669860    0.0003981188    
0.0453602670    0.0202927420    0.0003951715    
0.0455829280    0.0200846090    0.0003926852    
0.0458055890    0.0196670710    0.0003908479    
0.0460282500    0.0198400180    0.0003878289    
0.0462509110    0.0196763500    0.0003838238    
0.0464735720    0.0204256530    0.0003912846    
0.0466962330    0.0196133390    0.0003851681    
0.0469188940    0.0198407450    0.0003862963    
0.0471415550    0.0197639240    0.0003875279    
0.0473642160    0.0201672910    0.0003859813    
0.0475868770    0.0195797660    0.0003784280    
0.0478095380    0.0193435290    0.0003744922    
0.0480321990    0.0198798690    0.0003804803    
0.0482548600    0.0199307970    0.0003793075    
0.0484775210    0.0203653610    0.0003872273    
0.0487001820    0.0192158850    0.0003706344    
0.0489228430    0.0193880480    0.0003720910    
0.0491455040    0.0201419690    0.0003766335    
0.0493681650    0.0196370960    0.0003750790    
0.0495908260    0.0197505530    0.0003698320    
0.0498134870    0.0203048120    0.0003785551    
0.0500361480    0.0199096770    0.0003738618    
0.0502588090    0.0197670700    0.0003669388    
0.0504814700    0.0200006520    0.0003739256    
0.0507041310    0.0184562780    0.0003549284    
0.0509267920    0.0198618500    0.0003697188    
0.0511494530    0.0197540400    0.0003662554    
0.0513721140    0.0192811210    0.0003650314    
0.0515947750    0.0197623530    0.0003646588    
0.0518174360    0.0192324760    0.0003575699    
0.0520400970    0.0190060310    0.0003529940    
0.0522627580    0.0197305280    0.0003627156    
0.0524854190    0.0193546620    0.0003621650    
0.0527080800    0.0191668950    0.0003631944    
0.0529307410    0.0194446120    0.0003675343    
0.0531534020    0.0196619060    0.0003682366    
0.0533760630    0.0197504980    0.0003702206    
0.0535987240    0.0193327530    0.0003645743    
0.0538213850    0.0202406200    0.0003773583    
0.0540440460    0.0191992850    0.0003657836    
0.0542667070    0.0195566740    0.0003717166    
0.0544893680    0.0199453060    0.0003755918    
0.0547120290    0.0197287720    0.0003709884    
0.0549346900    0.0199939620    0.0003736700    
0.0551573510    0.0194594630    0.0003729811    
0.0553800120    0.0195657410    0.0003708187    
0.0556026730    0.0201292110    0.0003839188    
0.0558253340    0.0194253550    0.0003803049    
0.0560479950    0.0192913540    0.0003789911    
0.0562706560    0.0187705350    0.0003774545    
0.0564933170    0.0191828960    0.0003848916    
0.0567159780    0.0192307410    0.0003807508    
0.0569386390    0.0193099330    0.0003875185    
0.0571613000    0.0194031350    0.0003800885    
0.0573839610    0.0193824840    0.0003767320    
0.0576066220    0.0196151180    0.0003800352    
0.0578292830    0.0199902150    0.0003823822    
0.0580519440    0.0192683670    0.0003768705    
0.0582746050    0.0197636870    0.0003800006    
0.0584972660    0.0198881940    0.0003797366    
0.0587199270    0.0193971390    0.0003717865    
0.0589425880    0.0192483660    0.0003681918    
0.0591652490    0.0196038360    0.0003737625    
0.0593879100    0.0194330870    0.0003693676    
0.0596105710    0.0198755110    0.0003731545    
0.0598332320    0.0197250420    0.0003749168    
0.0600558930    0.0187285550    0.0003629947    
0.0602785540    0.0195946450    0.0003709005    
0.0605012150    0.0201553430    0.0003753772    
0.0607238760    0.0196835230    0.0003682542    
0.0609465370    0.0194347860    0.0003688008    
0.0611691980    0.0190822190    0.0003660194    
0.0613918590    0.0193134510    0.0003642103    
0.0616145200    0.0196320410    0.0003698895    
0.0618371810    0.0200819230    0.0003704295    
0.0620598420    0.0193290990    0.0003637945    
0.0622825030    0.0194307490    0.0003703279    
0.0625051640    0.0194994400    0.0003657717    
0.0627278250    0.0192620590    0.0003627899    
0.0629504860    0.0197837090    0.0003646805    
0.0631731470    0.0199800160    0.0003710196    
0.0633958080    0.0195067700    0.0003687091    
0.0636184690    0.0197888160    0.0003765373    
0.0638411300    0.0191569810    0.0003690866    
0.0640637910    0.0200331590    0.0003800873    
0.0642864520    0.0194295790    0.0003735076    
0.0645091130    0.0192309100    0.0003748495    
0.0647317740    0.0193538870    0.0003764607    
0.0649544350    0.0201150520    0.0003833699    
0.0651770960    0.0196866100    0.0003771963    
0.0653997570    0.0191767650    0.0003714726    
0.0656224180    0.0197011090    0.0003773356    
0.0658450790    0.0199813400    0.0003745477    
0.0660677400    0.0190259430    0.0003670391    
0.0662904010    0.0197729530    0.0003786422    
0.0665130620    0.0188757900    0.0003683475    
0.0667357230    0.0199773890    0.0003856811    
0.0669583840    0.0197699710    0.0003823900    
0.0671810450    0.0198887410    0.0003814193    
0.0674037060    0.0197891740    0.0003869090    
0.0676263670    0.0194855580    0.0003811185    
0.0678490280    0.0199032960    0.0003828265    
0.0680716890    0.0196147690    0.0003808872    
0.0682943500    0.0192308660    0.0003730107    
0.0685170110    0.0192095310    0.0003690049    
0.0687396720    0.0195094870    0.0003708867    
0.0689623330    0.0189376390    0.0003642527    
0.0691849940    0.0195703530    0.0003728532    
0.0694076550    0.0192159570    0.0003692646    
0.0696303160    0.0199954210    0.0003736972    
0.0698529770    0.0185624570    0.0003593033    
0.0700756380    0.0195460940    0.0003639673    
0.0702982990    0.0200503200    0.0003726465    
0.0705209600    0.0198028080    0.0003676655    
0.0707436210    0.0195266500    0.0003634163    
0.0709662820    0.0192539210    0.0003651714    
0.0711889430    0.0196081860    0.0003639894    
0.0714116040    0.0196611890    0.0003652251    
0.0716342650    0.0196633580    0.0003637622    
0.0718569260    0.0197188960    0.0003628084    
0.0720795870    0.0194144200    0.0003614527    
0.0723022480    0.0208641270    0.0003752759    
0.0725249090    0.0196755160    0.0003600653    
0.0727475700    0.0194835820    0.0003613652    
0.0729702310    0.0197346810    0.0003607857    
0.0731928920    0.0200190660    0.0003648282    
0.0734155530    0.0194425950    0.0003588196    
0.0736382140    0.0188473640    0.0003510171    
0.0738608750    0.0194757570    0.0003591260    
0.0740835360    0.0198536070    0.0003616928    
0.0743061970    0.0200670270    0.0003585113    
0.0745288580    0.0190305120    0.0003527194    
0.0747515190    0.0192764020    0.0003556919    
0.0749741800    0.0192368630    0.0003520378    
0.0751968410    0.0195204980    0.0003574080    
0.0754195020    0.0195123300    0.0003552397    
0.0756421630    0.0193155080    0.0003505543    
0.0758648240    0.0201372630    0.0003587940    
0.0760874850    0.0192301850    0.0003504516    
0.0763101460    0.0192825420    0.0003505917    
0.0765328070    0.0196791730    0.0003578032    
0.0767554680    0.0197274660    0.0003558110    
0.0769781290    0.0195077340    0.0003517906    
0.0772007900    0.0199077360    0.0003525288    
0.0774234510    0.0194340120    0.0003502903    
0.0776461120    0.0196933490    0.0003522853    
0.0778687730    0.0192692150    0.0003473199    
0.0780914340    0.0198694230    0.0003552078    
0.0783140950    0.0193792350    0.0003452331    
0.0785367560    0.0194630720    0.0003515573    
0.0787594170    0.0197270790    0.0003507625    
0.0789820780    0.0193711090    0.0003458024    
0.0792047390    0.0193674980    0.0003469006    
0.0794274000    0.0196635580    0.0003510230    
0.0796500610    0.0191095440    0.0003426653    
0.0798727220    0.0190558820    0.0003418680    
0.0800953830    0.0193041130    0.0003432961    
0.0803180440    0.0196606680    0.0003488655    
0.0805407050    0.0184810250    0.0003379231    
0.0807633660    0.0196247080    0.0003478990    
0.0809860270    0.0191555740    0.0003424462    
0.0812086880    0.0197885870    0.0003450506    
0.0814313490    0.0190830440    0.0003403890    
0.0816540100    0.0192682320    0.0003412579    
0.0818766710    0.0195627580    0.0003446413    
0.0820993320    0.0197032530    0.0003452463    
0.0823219930    0.0194818490    0.0003447170    
0.0825446540    0.0191697300    0.0003394601    
0.0827673150    0.0196128440    0.0003410543    
0.0829899760    0.0199508390    0.0003433681    
0.0832126370    0.0192713370    0.0003389816    
0.0834352980    0.0197669870    0.0003425456    
0.0836579590    0.0196731750    0.0003409711    
0.0838806200    0.0193445440    0.0003391692    
0.0841032810    0.0188173370    0.0003324390    
0.0843259420    0.0193436830    0.0003360183    
0.0845486030    0.0198923870    0.0003407510    
0.0847712640    0.0194719220    0.0003350760    
0.0849939250    0.0200547640    0.0003406460    
0.0852165860    0.0190689050    0.0003326028    
0.0854392470    0.0192957220    0.0003314066    
0.0856619080    0.0202336930    0.0003418654    
0.0858845690    0.0199332620    0.0003362618    
0.0861072300    0.0194387760    0.0003343571    
0.0863298910    0.0195731490    0.0003372676    
0.0865525520    0.0192308690    0.0003314190    
0.0867752130    0.0196748220    0.0003325177    
0.0869978740    0.0196283750    0.0003329714    
0.0872205350    0.0190939290    0.0003279892    
0.0874431960    0.0192855170    0.0003296308    
0.0876658570    0.0190080900    0.0003285078    
0.0878885180    0.0193581730    0.0003320876    
0.0881111790    0.0195244520    0.0003330829    
0.0883338400    0.0191665630    0.0003251841    
0.0885565010    0.0192081500    0.0003299512    
0.0887791620    0.0197457740    0.0003301987    
0.0890018230    0.0191793150    0.0003285845    
0.0892244840    0.0190073420    0.0003276641    
0.0894471450    0.0192895810    0.0003286936    
0.0896698060    0.0191276580    0.0003260765    
0.0898924670    0.0194288240    0.0003301568    
0.0901151280    0.0193737060    0.0003261271    
0.0903377890    0.0196546890    0.0003312327    
0.0905604500    0.0196351020    0.0003295482    
0.0907831110    0.0193889310    0.0003266612    
0.0910057720    0.0189785490    0.0003246688    
0.0912284330    0.0190487530    0.0003206116    
0.0914510940    0.0195476830    0.0003284050    
0.0916737550    0.0191872680    0.0003245559    
0.0918964160    0.0198620110    0.0003315866    
0.0921190770    0.0194664100    0.0003252997    
0.0923417380    0.0194062180    0.0003249297    
0.0925643990    0.0191651780    0.0003221152    
0.0927870600    0.0193008560    0.0003245790    
0.0930097210    0.0192471460    0.0003213665    
0.0932323820    0.0190792190    0.0003223135    
