# Diamond Light Source Ltd.
# Data extracted from: /dls/b21/data/2018/cm19678-3/processed/b21-386631_00369.dat
q(1/A)          Column          Error           
0.0035000000    2.0567796000    0.0243700420    
0.0037226610    1.8717379000    0.0227584790    
0.0039453220    1.6122313000    0.0192150280    
0.0041679830    1.2797620000    0.0140590750    
0.0043906440    0.9933681600    0.0118476600    
0.0046133050    0.7879701800    0.0101296910    
0.0048359660    0.5916579200    0.0083027954    
0.0050586270    0.4601630600    0.0071970797    
0.0052812880    0.4242380100    0.0065337013    
0.0055039490    0.3766434700    0.0058536974    
0.0057266100    0.3163982700    0.0051903453    
0.0059492710    0.2732298600    0.0048232892    
0.0061719320    0.2197163400    0.0041679076    
0.0063945930    0.1997249700    0.0040219422    
0.0066172539    0.1833856100    0.0036188264    
0.0068399149    0.1696299300    0.0034256441    
0.0070625759    0.1439400800    0.0031232337    
0.0072852369    0.1255929800    0.0028737479    
0.0075078979    0.1189574900    0.0027830597    
0.0077305589    0.1010606200    0.0025163137    
0.0079532199    0.0960856920    0.0024195961    
0.0081758809    0.0895645490    0.0023577784    
0.0083985419    0.0848251680    0.0021401127    
0.0086212029    0.0771039840    0.0020403878    
0.0088438639    0.0726293730    0.0019643915    
0.0090665249    0.0641332630    0.0017828557    
0.0092891859    0.0665751100    0.0018959652    
0.0095118469    0.0633671220    0.0017788248    
0.0097345079    0.0561450170    0.0016261968    
0.0099571689    0.0542600050    0.0015656992    
0.0101798300    0.0535371500    0.0015552352    
0.0104024910    0.0452327640    0.0014246982    
0.0106251520    0.0473024610    0.0014618755    
0.0108478130    0.0456751490    0.0013989474    
0.0110704740    0.0448968920    0.0013204968    
0.0112931350    0.0419575390    0.0012802886    
0.0115157960    0.0406974220    0.0012535642    
0.0117384570    0.0398100080    0.0012291490    
0.0119611180    0.0374815160    0.0011960833    
0.0121837790    0.0379293680    0.0011829845    
0.0124064400    0.0339859930    0.0010731230    
0.0126291010    0.0354865210    0.0010828325    
0.0128517620    0.0326753610    0.0010416525    
0.0130744230    0.0352350640    0.0010736611    
0.0132970840    0.0329799060    0.0010336548    
0.0135197450    0.0325771800    0.0010126126    
0.0137424060    0.0316764360    0.0009846143    
0.0139650670    0.0315390580    0.0009605928    
0.0141877280    0.0298566580    0.0009366867    
0.0144103890    0.0298292880    0.0009201138    
0.0146330500    0.0290874170    0.0009028310    
0.0148557110    0.0271211550    0.0008681270    
0.0150783720    0.0260187870    0.0008432737    
0.0153010330    0.0289031630    0.0008762559    
0.0155236940    0.0273266770    0.0008469572    
0.0157463550    0.0276047180    0.0008365066    
0.0159690160    0.0272949730    0.0008286436    
0.0161916770    0.0262172010    0.0008075437    
0.0164143380    0.0277270520    0.0008367631    
0.0166369990    0.0263045420    0.0007898870    
0.0168596600    0.0261693090    0.0007809125    
0.0170823210    0.0248478740    0.0007543525    
0.0173049820    0.0255083730    0.0007656341    
0.0175276430    0.0255563720    0.0007744355    
0.0177503040    0.0246934280    0.0007418421    
0.0179729650    0.0249925440    0.0007389201    
0.0181956260    0.0241485530    0.0007124118    
0.0184182870    0.0229429480    0.0006911279    
0.0186409480    0.0245625710    0.0007196327    
0.0188636090    0.0243586820    0.0007121326    
0.0190862700    0.0233901330    0.0006967400    
0.0193089310    0.0230896870    0.0006911717    
0.0195315920    0.0239592040    0.0006801215    
0.0197542530    0.0236224480    0.0006763087    
0.0199769140    0.0230996640    0.0006687833    
0.0201995750    0.0231698490    0.0006593101    
0.0204222360    0.0236838440    0.0006723049    
0.0206448970    0.0225393780    0.0006511987    
0.0208675580    0.0229381140    0.0006434057    
0.0210902190    0.0228677830    0.0006486173    
0.0213128800    0.0206939900    0.0006086468    
0.0215355410    0.0219166620    0.0006189074    
0.0217582020    0.0221788320    0.0006225982    
0.0219808630    0.0220334700    0.0006197398    
0.0222035240    0.0215503820    0.0006073543    
0.0224261850    0.0215552010    0.0006020160    
0.0226488460    0.0220773580    0.0006046889    
0.0228715070    0.0208966040    0.0005868351    
0.0230941680    0.0214734110    0.0005948793    
0.0233168290    0.0213486490    0.0005946261    
0.0235394900    0.0215603710    0.0005909724    
0.0237621510    0.0216882110    0.0005767652    
0.0239848120    0.0216154350    0.0005764628    
0.0242074730    0.0215430930    0.0005708908    
0.0244301340    0.0217287560    0.0005739998    
0.0246527950    0.0218395610    0.0005807901    
0.0248754560    0.0206475420    0.0005520260    
0.0250981170    0.0212437660    0.0005611881    
0.0253207780    0.0215986960    0.0005489617    
0.0255434390    0.0218769210    0.0005583828    
0.0257661000    0.0216170390    0.0005568517    
0.0259887610    0.0209353700    0.0005421779    
0.0262114220    0.0207191210    0.0005422442    
0.0264340830    0.0204629230    0.0005315493    
0.0266567440    0.0201835470    0.0005246463    
0.0268794050    0.0207225030    0.0005294352    
0.0271020660    0.0214540070    0.0005365179    
0.0273247270    0.0210247490    0.0005279335    
0.0275473880    0.0216541650    0.0005347115    
0.0277700490    0.0202506850    0.0005140364    
0.0279927100    0.0207963490    0.0005163708    
0.0282153710    0.0208825360    0.0005199553    
0.0284380320    0.0214473230    0.0005238852    
0.0286606930    0.0209056540    0.0005128003    
0.0288833540    0.0202528200    0.0005056888    
0.0291060150    0.0212099970    0.0005170095    
0.0293286760    0.0197775080    0.0004922886    
0.0295513370    0.0203561430    0.0004939996    
0.0297739980    0.0207945890    0.0005047885    
0.0299966590    0.0204928440    0.0004925538    
0.0302193200    0.0202170660    0.0004963579    
0.0304419810    0.0199979930    0.0004945697    
0.0306646420    0.0205252430    0.0004869054    
0.0308873030    0.0201650970    0.0004805302    
0.0311099640    0.0205922460    0.0004868538    
0.0313326250    0.0202173280    0.0004770573    
0.0315552860    0.0199131100    0.0004795904    
0.0317779470    0.0200866610    0.0004820953    
0.0320006080    0.0205324800    0.0004763416    
0.0322232690    0.0208830410    0.0004824018    
0.0324459300    0.0207480410    0.0004772503    
0.0326685910    0.0208109900    0.0004771858    
0.0328912520    0.0200238570    0.0004696246    
0.0331139130    0.0196135840    0.0004587424    
0.0333365740    0.0202055350    0.0004671254    
0.0335592350    0.0200200980    0.0004605060    
0.0337818960    0.0201045650    0.0004611090    
0.0340045570    0.0200196680    0.0004594036    
0.0342272170    0.0206151090    0.0004643466    
0.0344498780    0.0204202970    0.0004639778    
0.0346725390    0.0202193300    0.0004531387    
0.0348952000    0.0206996920    0.0004564011    
0.0351178610    0.0188890010    0.0004379782    
0.0353405220    0.0209915470    0.0004596077    
0.0355631830    0.0196652020    0.0004431753    
0.0357858440    0.0204142700    0.0004515371    
0.0360085050    0.0201961920    0.0004504758    
0.0362311660    0.0208961410    0.0004527686    
0.0364538270    0.0197897760    0.0004370830    
0.0366764880    0.0197610660    0.0004364489    
0.0368991490    0.0197627270    0.0004342670    
0.0371218100    0.0205322020    0.0004413742    
0.0373444710    0.0200898080    0.0004413477    
0.0375671320    0.0196446290    0.0004357947    
0.0377897930    0.0198791360    0.0004270395    
0.0380124540    0.0201479550    0.0004326146    
0.0382351150    0.0199250310    0.0004302148    
0.0384577760    0.0191779700    0.0004180003    
0.0386804370    0.0190000330    0.0004192317    
0.0389030980    0.0195242020    0.0004217569    
0.0391257590    0.0203654690    0.0004278233    
0.0393484200    0.0194162600    0.0004163283    
0.0395710810    0.0199788200    0.0004228855    
0.0397937420    0.0200235900    0.0004233591    
0.0400164030    0.0196905160    0.0004215312    
0.0402390640    0.0200305800    0.0004194943    
0.0404617250    0.0204113620    0.0004209647    
0.0406843860    0.0200699400    0.0004133960    
0.0409070470    0.0204468010    0.0004216059    
0.0411297080    0.0204197210    0.0004172507    
0.0413523690    0.0206022580    0.0004201918    
0.0415750300    0.0195591620    0.0004128942    
0.0417976910    0.0193049200    0.0003995927    
0.0420203520    0.0192669300    0.0004006993    
0.0422430130    0.0204290870    0.0004141693    
0.0424656740    0.0190909920    0.0003951646    
0.0426883350    0.0195948810    0.0004023327    
0.0429109960    0.0198505190    0.0004062138    
0.0431336570    0.0191658250    0.0003935231    
0.0433563180    0.0194650410    0.0004000041    
0.0435789790    0.0201085450    0.0004001750    
0.0438016400    0.0195550640    0.0003967761    
0.0440243010    0.0201226130    0.0003984090    
0.0442469620    0.0201649140    0.0004012173    
0.0444696230    0.0193389320    0.0003915052    
0.0446922840    0.0196890930    0.0003938606    
0.0449149450    0.0201785680    0.0003933960    
0.0451376060    0.0191866340    0.0003883425    
0.0453602670    0.0197484920    0.0003898572    
0.0455829280    0.0200253400    0.0003921264    
0.0458055890    0.0198090130    0.0003922769    
0.0460282500    0.0201681780    0.0003910442    
0.0462509110    0.0197383690    0.0003844488    
0.0464735720    0.0194608050    0.0003819517    
0.0466962330    0.0194792810    0.0003838701    
0.0469188940    0.0200083600    0.0003879455    
0.0471415550    0.0203360030    0.0003931177    
0.0473642160    0.0197113980    0.0003816142    
0.0475868770    0.0198159460    0.0003807240    
0.0478095380    0.0200272000    0.0003810732    
0.0480321990    0.0190007890    0.0003719928    
0.0482548600    0.0191532370    0.0003718550    
0.0484775210    0.0195207420    0.0003791329    
0.0487001820    0.0195182300    0.0003735589    
0.0489228430    0.0195686790    0.0003738404    
0.0491455040    0.0194468370    0.0003700972    
0.0493681650    0.0197896720    0.0003765535    
0.0495908260    0.0190947150    0.0003636594    
0.0498134870    0.0201587690    0.0003772115    
0.0500361480    0.0194835300    0.0003698590    
0.0502588090    0.0195512020    0.0003649493    
0.0504814700    0.0196112750    0.0003702878    
0.0507041310    0.0199327390    0.0003688719    
0.0509267920    0.0196781470    0.0003680248    
0.0511494530    0.0191381470    0.0003605200    
0.0513721140    0.0192831940    0.0003650706    
0.0515947750    0.0199259850    0.0003661850    
0.0518174360    0.0206174630    0.0003702408    
0.0520400970    0.0201358380    0.0003633539    
0.0522627580    0.0196059430    0.0003615881    
0.0524854190    0.0197972850    0.0003663025    
0.0527080800    0.0193134970    0.0003646003    
0.0529307410    0.0198635660    0.0003714926    
0.0531534020    0.0192156990    0.0003640539    
0.0533760630    0.0196346330    0.0003691529    
0.0535987240    0.0202149370    0.0003728196    
0.0538213850    0.0206297790    0.0003809891    
0.0540440460    0.0204001260    0.0003770696    
0.0542667070    0.0197283610    0.0003733647    
0.0544893680    0.0200111120    0.0003762311    
0.0547120290    0.0197797320    0.0003714872    
0.0549346900    0.0194792710    0.0003688489    
0.0551573510    0.0203338210    0.0003812889    
0.0553800120    0.0193850980    0.0003691228    
0.0556026730    0.0195967840    0.0003788277    
0.0558253340    0.0197923120    0.0003839008    
0.0560479950    0.0198742420    0.0003846948    
0.0562706560    0.0200402510    0.0003900328    
0.0564933170    0.0205442780    0.0003983365    
0.0567159780    0.0196625490    0.0003850224    
0.0569386390    0.0200820000    0.0003952108    
0.0571613000    0.0196732890    0.0003827459    
0.0573839610    0.0199997190    0.0003827040    
0.0576066220    0.0195288600    0.0003792190    
0.0578292830    0.0196046600    0.0003786970    
0.0580519440    0.0191524860    0.0003757557    
0.0582746050    0.0198315750    0.0003806732    
0.0584972660    0.0198033160    0.0003789458    
0.0587199270    0.0195275070    0.0003730538    
0.0589425880    0.0203140340    0.0003782671    
0.0591652490    0.0197556070    0.0003752267    
0.0593879100    0.0195756030    0.0003707394    
0.0596105710    0.0194502470    0.0003691606    
0.0598332320    0.0195347370    0.0003731239    
0.0600558930    0.0195186310    0.0003705921    
0.0602785540    0.0198495220    0.0003733251    
0.0605012150    0.0198568600    0.0003726073    
0.0607238760    0.0192170970    0.0003638845    
0.0609465370    0.0202067910    0.0003760746    
0.0611691980    0.0195055570    0.0003700771    
0.0613918590    0.0195834160    0.0003667667    
0.0616145200    0.0196620310    0.0003701918    
0.0618371810    0.0200772480    0.0003704062    
0.0620598420    0.0192490040    0.0003630595    
0.0622825030    0.0194822490    0.0003708383    
0.0625051640    0.0190555120    0.0003616035    
0.0627278250    0.0193803020    0.0003639213    
0.0629504860    0.0193959000    0.0003611079    
0.0631731470    0.0195756310    0.0003672655    
0.0633958080    0.0198573640    0.0003720278    
0.0636184690    0.0196906260    0.0003756221    
0.0638411300    0.0194435100    0.0003718565    
0.0640637910    0.0192996750    0.0003730843    
0.0642864520    0.0196399150    0.0003755441    
0.0645091130    0.0194741200    0.0003772326    
0.0647317740    0.0198832590    0.0003815950    
0.0649544350    0.0199345300    0.0003816663    
0.0651770960    0.0196309030    0.0003766825    
0.0653997570    0.0201215760    0.0003805339    
0.0656224180    0.0204260160    0.0003842356    
0.0658450790    0.0200396600    0.0003751141    
0.0660677400    0.0198069530    0.0003745169    
0.0662904010    0.0191514420    0.0003726639    
0.0665130620    0.0196685880    0.0003760236    
0.0667357230    0.0200316630    0.0003862254    
0.0669583840    0.0192617050    0.0003774629    
0.0671810450    0.0198469860    0.0003810392    
0.0674037060    0.0198593910    0.0003876156    
0.0676263670    0.0194056460    0.0003803567    
0.0678490280    0.0189628180    0.0003736924    
0.0680716890    0.0195724950    0.0003804970    
0.0682943500    0.0195947260    0.0003765432    
0.0685170110    0.0198141740    0.0003747875    
0.0687396720    0.0198006970    0.0003736646    
0.0689623330    0.0195983240    0.0003705721    
0.0691849940    0.0195582480    0.0003727579    
0.0694076550    0.0196580210    0.0003735080    
0.0696303160    0.0197321470    0.0003712488    
0.0698529770    0.0198581910    0.0003716521    
0.0700756380    0.0198125430    0.0003664594    
0.0702982990    0.0192766980    0.0003654063    
0.0705209600    0.0203783990    0.0003729906    
0.0707436210    0.0196843290    0.0003649002    
0.0709662820    0.0197062200    0.0003694556    
0.0711889430    0.0192318730    0.0003604991    
0.0714116040    0.0203350300    0.0003714509    
0.0716342650    0.0198135350    0.0003651683    
0.0718569260    0.0187396380    0.0003537040    
0.0720795870    0.0193895860    0.0003612409    
0.0723022480    0.0197187530    0.0003648494    
0.0725249090    0.0197303510    0.0003605860    
0.0727475700    0.0197873120    0.0003641905    
0.0729702310    0.0192354660    0.0003562123    
0.0731928920    0.0194227760    0.0003593731    
0.0734155530    0.0197758270    0.0003619010    
0.0736382140    0.0191370670    0.0003537236    
0.0738608750    0.0192990330    0.0003575121    
0.0740835360    0.0198030200    0.0003612511    
0.0743061970    0.0189481790    0.0003483922    
0.0745288580    0.0185814250    0.0003485515    
0.0747515190    0.0205387620    0.0003671736    
0.0749741800    0.0193806780    0.0003533703    
0.0751968410    0.0193458920    0.0003558251    
0.0754195020    0.0198895810    0.0003586766    
0.0756421630    0.0193557610    0.0003509382    
0.0758648240    0.0202033630    0.0003594017    
0.0760874850    0.0196154910    0.0003539642    
0.0763101460    0.0193292400    0.0003510348    
0.0765328070    0.0197268320    0.0003582554    
0.0767554680    0.0203778260    0.0003616479    
0.0769781290    0.0195923110    0.0003525714    
0.0772007900    0.0201159050    0.0003543862    
0.0774234510    0.0192087780    0.0003482733    
0.0776461120    0.0188887400    0.0003450322    
0.0778687730    0.0192838080    0.0003474701    
0.0780914340    0.0197254910    0.0003539379    
0.0783140950    0.0203347000    0.0003536603    
0.0785367560    0.0196366350    0.0003531403    
0.0787594170    0.0194297990    0.0003481283    
0.0789820780    0.0194657970    0.0003466652    
0.0792047390    0.0196243610    0.0003492122    
0.0794274000    0.0196406040    0.0003508370    
0.0796500610    0.0198551690    0.0003493052    
0.0798727220    0.0195977110    0.0003467128    
0.0800953830    0.0196358950    0.0003462523    
0.0803180440    0.0198299400    0.0003503829    
0.0805407050    0.0198857680    0.0003505495    
0.0807633660    0.0195157920    0.0003469508    
0.0809860270    0.0195923380    0.0003463469    
0.0812086880    0.0193454380    0.0003411835    
0.0814313490    0.0190668800    0.0003402631    
0.0816540100    0.0195302220    0.0003435886    
0.0818766710    0.0194798490    0.0003439287    
0.0820993320    0.0200562790    0.0003483442    
0.0823219930    0.0203867680    0.0003526510    
0.0825446540    0.0196767870    0.0003439388    
0.0827673150    0.0197335790    0.0003421208    
0.0829899760    0.0193560490    0.0003382292    
0.0832126370    0.0187068950    0.0003339984    
0.0834352980    0.0202915390    0.0003470795    
0.0836579590    0.0196102770    0.0003404439    
0.0838806200    0.0196499370    0.0003418544    
0.0841032810    0.0193891100    0.0003374700    
0.0843259420    0.0195675900    0.0003379756    
0.0845486030    0.0200521400    0.0003421349    
0.0847712640    0.0200160800    0.0003397439    
0.0849939250    0.0199469710    0.0003397475    
0.0852165860    0.0194944960    0.0003363120    
0.0854392470    0.0194742660    0.0003329542    
0.0856619080    0.0191787270    0.0003328517    
0.0858845690    0.0199921360    0.0003367761    
0.0861072300    0.0192510580    0.0003327566    
0.0863298910    0.0190172880    0.0003324619    
0.0865525520    0.0192157990    0.0003313069    
0.0867752130    0.0193172330    0.0003294998    
0.0869978740    0.0199355340    0.0003355846    
0.0872205350    0.0198904730    0.0003347786    
0.0874431960    0.0196200380    0.0003324953    
0.0876658570    0.0195041230    0.0003327845    
0.0878885180    0.0195767600    0.0003339752    
0.0881111790    0.0194981360    0.0003328762    
0.0883338400    0.0196100420    0.0003289424    
0.0885565010    0.0199357710    0.0003361606    
0.0887791620    0.0194717790    0.0003279174    
0.0890018230    0.0199132750    0.0003348306    
0.0892244840    0.0189359460    0.0003270657    
0.0894471450    0.0193924820    0.0003295868    
0.0896698060    0.0199580560    0.0003330972    
0.0898924670    0.0190718080    0.0003271269    
0.0901151280    0.0193593170    0.0003260235    
0.0903377890    0.0191431900    0.0003269118    
0.0905604500    0.0189512930    0.0003237764    
0.0907831110    0.0193139580    0.0003260465    
0.0910057720    0.0196693780    0.0003305428    
0.0912284330    0.0186568330    0.0003173133    
0.0914510940    0.0192794090    0.0003261612    
0.0916737550    0.0190740290    0.0003236142    
0.0918964160    0.0199914800    0.0003326835    
0.0921190770    0.0195935440    0.0003263778    
0.0923417380    0.0200612320    0.0003303855    
0.0925643990    0.0195191790    0.0003250940    
0.0927870600    0.0188552940    0.0003208279    
0.0930097210    0.0201078360    0.0003284910    
0.0932323820    0.0196639450    0.0003272329    
