# Diamond Light Source Ltd.
# Data extracted from: /dls/b21/data/2018/cm19678-3/processed/b21-386631_00371.dat
q(1/A)          Column          Error           
0.0035000000    2.0814938000    0.0245153220    
0.0037226610    1.8541989000    0.0226509550    
0.0039453220    1.6277114000    0.0193065060    
0.0041679830    1.2897277000    0.0141133070    
0.0043906440    0.9776277500    0.0117530840    
0.0046133050    0.7875346900    0.0101266030    
0.0048359660    0.6185374400    0.0084890605    
0.0050586270    0.4579982700    0.0071799264    
0.0052812880    0.4338733800    0.0066072940    
0.0055039490    0.3840816900    0.0059110481    
0.0057266100    0.3174019400    0.0051984232    
0.0059492710    0.2692127300    0.0047875647    
0.0061719320    0.2207316000    0.0041774070    
0.0063945930    0.1976079400    0.0040004558    
0.0066172539    0.1803760500    0.0035889069    
0.0068399149    0.1683059200    0.0034121518    
0.0070625759    0.1486754000    0.0031741015    
0.0072852369    0.1319637500    0.0029456487    
0.0075078979    0.1103565800    0.0026804849    
0.0077305589    0.1046259400    0.0025602426    
0.0079532199    0.0968113340    0.0024286462    
0.0081758809    0.0917317170    0.0023860652    
0.0083985419    0.0854142440    0.0021474698    
0.0086212029    0.0792052560    0.0020679448    
0.0088438639    0.0723596010    0.0019606840    
0.0090665249    0.0661615400    0.0018107770    
0.0092891859    0.0639257450    0.0018578042    
0.0095118469    0.0579209430    0.0017006175    
0.0097345079    0.0566599080    0.0016335900    
0.0099571689    0.0536696220    0.0015571137    
0.0101798300    0.0544376320    0.0015682153    
0.0104024910    0.0492237280    0.0014861792    
0.0106251520    0.0478870630    0.0014708394    
0.0108478130    0.0462295320    0.0014073716    
0.0110704740    0.0438069300    0.0013043324    
0.0112931350    0.0403925750    0.0012561493    
0.0115157960    0.0384171060    0.0012179041    
0.0117384570    0.0403010690    0.0012366714    
0.0119611180    0.0390060380    0.0012201308    
0.0121837790    0.0384068340    0.0011903732    
0.0124064400    0.0346955890    0.0010842371    
0.0126291010    0.0373677560    0.0011111322    
0.0128517620    0.0335700310    0.0010557866    
0.0130744230    0.0325505040    0.0010319204    
0.0132970840    0.0315202570    0.0010104931    
0.0135197450    0.0316625880    0.0009982686    
0.0137424060    0.0311543740    0.0009764390    
0.0139650670    0.0315957730    0.0009614288    
0.0141877280    0.0299431130    0.0009380151    
0.0144103890    0.0303384340    0.0009279067    
0.0146330500    0.0288055510    0.0008984205    
0.0148557110    0.0284533620    0.0008891676    
0.0150783720    0.0280396600    0.0008753849    
0.0153010330    0.0275733230    0.0008558358    
0.0155236940    0.0270626320    0.0008428314    
0.0157463550    0.0266399520    0.0008217355    
0.0159690160    0.0258344160    0.0008061455    
0.0161916770    0.0247482260    0.0007845715    
0.0164143380    0.0267406890    0.0008217214    
0.0166369990    0.0267299650    0.0007962261    
0.0168596600    0.0260280090    0.0007787792    
0.0170823210    0.0256708580    0.0007667214    
0.0173049820    0.0252311710    0.0007614410    
0.0175276430    0.0245927950    0.0007596740    
0.0177503040    0.0243131740    0.0007360872    
0.0179729650    0.0248163580    0.0007362900    
0.0181956260    0.0238949890    0.0007086415    
0.0184182870    0.0235245510    0.0006998132    
0.0186409480    0.0238022010    0.0007083863    
0.0188636090    0.0244405680    0.0007133082    
0.0190862700    0.0224756620    0.0006829647    
0.0193089310    0.0227573570    0.0006861601    
0.0195315920    0.0238033980    0.0006778872    
0.0197542530    0.0228272800    0.0006648096    
0.0199769140    0.0222270790    0.0006560115    
0.0201995750    0.0227558110    0.0006533741    
0.0204222360    0.0225565760    0.0006560915    
0.0206448970    0.0231589270    0.0006600691    
0.0208675580    0.0225578370    0.0006380320    
0.0210902190    0.0222594070    0.0006399129    
0.0213128800    0.0222322420    0.0006308447    
0.0215355410    0.0224746590    0.0006267187    
0.0217582020    0.0224222390    0.0006259875    
0.0219808630    0.0224854100    0.0006260456    
0.0222035240    0.0219770580    0.0006133199    
0.0224261850    0.0213522210    0.0005991578    
0.0226488460    0.0227054270    0.0006132124    
0.0228715070    0.0234331850    0.0006214147    
0.0230941680    0.0221478300    0.0006041316    
0.0233168290    0.0219767610    0.0006032929    
0.0235394900    0.0211380030    0.0005851385    
0.0237621510    0.0208587610    0.0005656126    
0.0239848120    0.0215219670    0.0005751988    
0.0242074730    0.0215872500    0.0005714593    
0.0244301340    0.0218943040    0.0005761659    
0.0246527950    0.0202938830    0.0005598446    
0.0248754560    0.0222844980    0.0005734749    
0.0250981170    0.0215242100    0.0005648640    
0.0253207780    0.0210393930    0.0005417919    
0.0255434390    0.0208780880    0.0005454713    
0.0257661000    0.0210994380    0.0005501290    
0.0259887610    0.0204568060    0.0005359300    
0.0262114220    0.0211010820    0.0005472040    
0.0264340830    0.0205307920    0.0005324149    
0.0266567440    0.0207005950    0.0005313087    
0.0268794050    0.0214111330    0.0005381449    
0.0271020660    0.0209027150    0.0005295646    
0.0273247270    0.0208909950    0.0005262366    
0.0275473880    0.0209795790    0.0005263018    
0.0277700490    0.0209410440    0.0005227100    
0.0279927100    0.0210131170    0.0005190402    
0.0282153710    0.0211014230    0.0005226584    
0.0284380320    0.0202304820    0.0005087920    
0.0286606930    0.0213572690    0.0005182948    
0.0288833540    0.0206304390    0.0005103668    
0.0291060150    0.0215616390    0.0005212628    
0.0293286760    0.0198621540    0.0004933269    
0.0295513370    0.0204748600    0.0004954240    
0.0297739980    0.0203890550    0.0004998278    
0.0299966590    0.0204561630    0.0004920988    
0.0302193200    0.0208130100    0.0005036061    
0.0304419810    0.0210364460    0.0005072338    
0.0306646420    0.0193806400    0.0004731209    
0.0308873030    0.0200952480    0.0004796835    
0.0311099640    0.0201997400    0.0004821778    
0.0313326250    0.0208915510    0.0004849329    
0.0315552860    0.0207435670    0.0004894747    
0.0317779470    0.0203747680    0.0004855266    
0.0320006080    0.0193489380    0.0004623960    
0.0322232690    0.0203915640    0.0004766779    
0.0324459300    0.0203187500    0.0004722737    
0.0326685910    0.0201314630    0.0004693171    
0.0328912520    0.0203641390    0.0004735846    
0.0331139130    0.0204278660    0.0004681548    
0.0333365740    0.0204095600    0.0004694645    
0.0335592350    0.0208133620    0.0004695274    
0.0337818960    0.0208436830    0.0004694952    
0.0340045570    0.0206299430    0.0004663399    
0.0342272170    0.0202269660    0.0004599414    
0.0344498780    0.0203769680    0.0004634721    
0.0346725390    0.0197612140    0.0004479631    
0.0348952000    0.0209702000    0.0004593606    
0.0351178610    0.0201166570    0.0004519741    
0.0353405220    0.0200646030    0.0004493327    
0.0355631830    0.0204230820    0.0004516215    
0.0357858440    0.0192746080    0.0004387397    
0.0360085050    0.0202151370    0.0004506742    
0.0362311660    0.0192763290    0.0004348536    
0.0364538270    0.0207925610    0.0004480074    
0.0366764880    0.0195382440    0.0004339690    
0.0368991490    0.0190745740    0.0004266271    
0.0371218100    0.0189940520    0.0004245077    
0.0373444710    0.0198462810    0.0004386521    
0.0375671320    0.0195951760    0.0004352335    
0.0377897930    0.0199513890    0.0004278027    
0.0380124540    0.0193387060    0.0004238255    
0.0382351150    0.0196266640    0.0004269694    
0.0384577760    0.0196597160    0.0004232057    
0.0386804370    0.0195261860    0.0004249847    
0.0389030980    0.0199148280    0.0004259430    
0.0391257590    0.0195465020    0.0004191210    
0.0393484200    0.0203078060    0.0004257673    
0.0395710810    0.0195749070    0.0004185770    
0.0397937420    0.0192168980    0.0004147317    
0.0400164030    0.0202037380    0.0004269772    
0.0402390640    0.0194759950    0.0004136345    
0.0404617250    0.0199587620    0.0004162595    
0.0406843860    0.0197707890    0.0004102918    
0.0409070470    0.0201935440    0.0004189748    
0.0411297080    0.0192335150    0.0004049385    
0.0413523690    0.0197184260    0.0004110683    
0.0415750300    0.0200025500    0.0004175361    
0.0417976910    0.0193534450    0.0004000832    
0.0420203520    0.0191575050    0.0003995485    
0.0422430130    0.0199157570    0.0004089211    
0.0424656740    0.0194661420    0.0003990170    
0.0426883350    0.0197672350    0.0004040867    
0.0429109960    0.0194088460    0.0004016579    
0.0431336570    0.0198999750    0.0004009778    
0.0433563180    0.0199406680    0.0004048501    
0.0435789790    0.0195340410    0.0003944058    
0.0438016400    0.0204636240    0.0004058773    
0.0440243010    0.0203186590    0.0004003337    
0.0442469620    0.0201238530    0.0004007972    
0.0444696230    0.0196072930    0.0003942011    
0.0446922840    0.0199873490    0.0003968213    
0.0449149450    0.0197479490    0.0003891647    
0.0451376060    0.0200579690    0.0003970513    
0.0453602670    0.0201552440    0.0003938404    
0.0455829280    0.0193408590    0.0003853556    
0.0458055890    0.0194971730    0.0003891659    
0.0460282500    0.0202883350    0.0003921962    
0.0462509110    0.0202164510    0.0003890658    
0.0464735720    0.0198344990    0.0003855905    
0.0466962330    0.0202421700    0.0003913038    
0.0469188940    0.0195709740    0.0003836708    
0.0471415550    0.0192785890    0.0003827498    
0.0473642160    0.0198949670    0.0003833761    
0.0475868770    0.0191638330    0.0003743965    
0.0478095380    0.0197287860    0.0003782127    
0.0480321990    0.0194148030    0.0003760130    
0.0482548600    0.0192099000    0.0003723940    
0.0484775210    0.0205136530    0.0003886444    
0.0487001820    0.0193455400    0.0003718921    
0.0489228430    0.0196961110    0.0003750450    
0.0491455040    0.0200373430    0.0003756635    
0.0493681650    0.0198458620    0.0003770770    
0.0495908260    0.0198831370    0.0003710806    
0.0498134870    0.0196847360    0.0003727394    
0.0500361480    0.0194543380    0.0003695713    
0.0502588090    0.0197816930    0.0003670838    
0.0504814700    0.0191347610    0.0003657511    
0.0507041310    0.0202592470    0.0003718702    
0.0509267920    0.0194912000    0.0003662621    
0.0511494530    0.0201081720    0.0003695331    
0.0513721140    0.0199179210    0.0003710197    
0.0515947750    0.0196691450    0.0003638070    
0.0518174360    0.0194262480    0.0003593758    
0.0520400970    0.0196495190    0.0003589290    
0.0522627580    0.0200382670    0.0003655425    
0.0524854190    0.0196538370    0.0003649626    
0.0527080800    0.0193330450    0.0003647744    
0.0529307410    0.0200291720    0.0003730273    
0.0531534020    0.0194284070    0.0003660528    
0.0533760630    0.0190505480    0.0003636104    
0.0535987240    0.0197187550    0.0003682052    
0.0538213850    0.0198968940    0.0003741499    
0.0540440460    0.0200853490    0.0003741385    
0.0542667070    0.0200239940    0.0003761411    
0.0544893680    0.0194582660    0.0003709871    
0.0547120290    0.0195553550    0.0003693636    
0.0549346900    0.0197575190    0.0003714633    
0.0551573510    0.0196963750    0.0003752541    
0.0553800120    0.0191309770    0.0003666849    
0.0556026730    0.0198373190    0.0003811347    
0.0558253340    0.0194561210    0.0003806156    
0.0560479950    0.0192253170    0.0003783514    
0.0562706560    0.0193180060    0.0003829291    
0.0564933170    0.0191684200    0.0003847560    
0.0567159780    0.0198197470    0.0003865474    
0.0569386390    0.0194431220    0.0003888624    
0.0571613000    0.0195158050    0.0003812001    
0.0573839610    0.0195006290    0.0003778879    
0.0576066220    0.0198149210    0.0003819755    
0.0578292830    0.0197864130    0.0003804376    
0.0580519440    0.0193799160    0.0003779694    
0.0582746050    0.0203638370    0.0003857368    
0.0584972660    0.0194976520    0.0003759992    
0.0587199270    0.0198827160    0.0003764208    
0.0589425880    0.0192986420    0.0003686816    
0.0591652490    0.0198114940    0.0003757464    
0.0593879100    0.0194059860    0.0003691192    
0.0596105710    0.0198625030    0.0003730418    
0.0598332320    0.0197901780    0.0003755448    
0.0600558930    0.0200381760    0.0003754812    
0.0602785540    0.0189286390    0.0003645520    
0.0605012150    0.0196040370    0.0003702171    
0.0607238760    0.0190437550    0.0003622293    
0.0609465370    0.0191138220    0.0003657520    
0.0611691980    0.0193499830    0.0003685878    
0.0613918590    0.0198570450    0.0003693096    
0.0616145200    0.0191451700    0.0003652834    
0.0618371810    0.0193176140    0.0003633211    
0.0620598420    0.0194259390    0.0003647139    
0.0622825030    0.0191846880    0.0003679849    
0.0625051640    0.0190269810    0.0003613225    
0.0627278250    0.0194680320    0.0003647336    
0.0629504860    0.0194821910    0.0003619000    
0.0631731470    0.0197674360    0.0003690499    
0.0633958080    0.0197516910    0.0003710260    
0.0636184690    0.0198328060    0.0003769651    
0.0638411300    0.0195561840    0.0003729218    
0.0640637910    0.0200990780    0.0003807217    
0.0642864520    0.0197177840    0.0003762771    
0.0645091130    0.0201525580    0.0003837364    
0.0647317740    0.0192596660    0.0003755527    
0.0649544350    0.0205179520    0.0003872001    
0.0651770960    0.0198972020    0.0003792180    
0.0653997570    0.0196742690    0.0003762698    
0.0656224180    0.0196226030    0.0003765925    
0.0658450790    0.0199893710    0.0003746325    
0.0660677400    0.0199191220    0.0003755652    
0.0662904010    0.0190633380    0.0003717951    
0.0665130620    0.0193368020    0.0003728280    
0.0667357230    0.0191593060    0.0003777112    
0.0669583840    0.0193493670    0.0003783101    
0.0671810450    0.0189387840    0.0003722083    
0.0674037060    0.0196766990    0.0003858176    
0.0676263670    0.0198443680    0.0003846212    
0.0678490280    0.0195361130    0.0003792884    
0.0680716890    0.0191349820    0.0003762096    
0.0682943500    0.0193041920    0.0003737307    
0.0685170110    0.0196783600    0.0003734902    
0.0687396720    0.0202014840    0.0003774166    
0.0689623330    0.0197443450    0.0003719394    
0.0691849940    0.0194718870    0.0003719234    
0.0694076550    0.0199478520    0.0003762407    
0.0696303160    0.0195284750    0.0003693174    
0.0698529770    0.0196484050    0.0003696733    
0.0700756380    0.0196758600    0.0003651827    
0.0702982990    0.0197742860    0.0003700818    
0.0705209600    0.0196126660    0.0003659054    
0.0707436210    0.0197373210    0.0003653807    
0.0709662820    0.0196981720    0.0003693696    
0.0711889430    0.0192105080    0.0003602885    
0.0714116040    0.0197436000    0.0003659990    
0.0716342650    0.0194288110    0.0003615953    
0.0718569260    0.0192058680    0.0003580668    
0.0720795870    0.0195298070    0.0003625344    
0.0723022480    0.0191236040    0.0003592911    
0.0725249090    0.0194656440    0.0003581488    
0.0727475700    0.0200006700    0.0003661383    
0.0729702310    0.0194982170    0.0003586268    
0.0731928920    0.0187700700    0.0003532730    
0.0734155530    0.0195694050    0.0003599970    
0.0736382140    0.0201166390    0.0003626533    
0.0738608750    0.0193575370    0.0003580434    
0.0740835360    0.0196569210    0.0003599058    
0.0743061970    0.0193634500    0.0003521792    
0.0745288580    0.0194760430    0.0003568334    
0.0747515190    0.0196121220    0.0003587850    
0.0749741800    0.0197339220    0.0003565660    
0.0751968410    0.0191550080    0.0003540552    
0.0754195020    0.0192740090    0.0003530725    
0.0756421630    0.0193801090    0.0003511489    
0.0758648240    0.0197674820    0.0003554935    
0.0760874850    0.0206746110    0.0003633842    
0.0763101460    0.0191113990    0.0003490412    
0.0765328070    0.0195760750    0.0003568737    
0.0767554680    0.0196193600    0.0003548437    
0.0769781290    0.0194072110    0.0003508919    
0.0772007900    0.0192782050    0.0003469189    
0.0774234510    0.0194665650    0.0003505924    
0.0776461120    0.0192720990    0.0003485060    
0.0778687730    0.0195393960    0.0003497553    
0.0780914340    0.0202451020    0.0003585592    
0.0783140950    0.0189681320    0.0003415603    
0.0785367560    0.0198958850    0.0003554537    
0.0787594170    0.0197654990    0.0003511128    
0.0789820780    0.0196992770    0.0003487281    
0.0792047390    0.0194430430    0.0003475853    
0.0794274000    0.0191694920    0.0003465938    
0.0796500610    0.0192088280    0.0003435630    
0.0798727220    0.0192592520    0.0003436961    
0.0800953830    0.0196042510    0.0003459633    
0.0803180440    0.0195626110    0.0003480032    
0.0805407050    0.0194397340    0.0003465860    
0.0807633660    0.0199525900    0.0003508021    
0.0809860270    0.0187647180    0.0003389431    
0.0812086880    0.0192360320    0.0003402077    
0.0814313490    0.0195879780    0.0003448716    
0.0816540100    0.0193356930    0.0003418634    
0.0818766710    0.0200737900    0.0003491226    
0.0820993320    0.0188088760    0.0003373281    
0.0823219930    0.0196353290    0.0003460810    
0.0825446540    0.0196155510    0.0003433934    
0.0827673150    0.0196612840    0.0003414838    
0.0829899760    0.0196208940    0.0003405256    
0.0832126370    0.0187654590    0.0003345113    
0.0834352980    0.0201063570    0.0003454823    
0.0836579590    0.0189058790    0.0003342641    
0.0838806200    0.0197499170    0.0003427132    
0.0841032810    0.0191648180    0.0003355028    
0.0843259420    0.0200101080    0.0003417661    
0.0845486030    0.0194672720    0.0003370988    
0.0847712640    0.0193921770    0.0003343976    
0.0849939250    0.0195176400    0.0003360618    
0.0852165860    0.0195688070    0.0003369428    
0.0854392470    0.0195642330    0.0003337130    
0.0856619080    0.0198476980    0.0003385974    
0.0858845690    0.0197811040    0.0003349844    
0.0861072300    0.0191349340    0.0003317421    
0.0863298910    0.0196148210    0.0003376350    
0.0865525520    0.0194945870    0.0003336921    
0.0867752130    0.0192037320    0.0003285210    
0.0869978740    0.0192283060    0.0003295689    
0.0872205350    0.0195456440    0.0003318546    
0.0874431960    0.0194048140    0.0003306571    
0.0876658570    0.0194632690    0.0003324263    
0.0878885180    0.0189888330    0.0003289127    
0.0881111790    0.0191958480    0.0003302764    
0.0883338400    0.0189689040    0.0003235112    
0.0885565010    0.0197929330    0.0003349447    
0.0887791620    0.0194596270    0.0003278057    
0.0890018230    0.0188312450    0.0003255974    
0.0892244840    0.0195901330    0.0003326579    
0.0894471450    0.0193353660    0.0003290917    
0.0896698060    0.0188729100    0.0003239060    
0.0898924670    0.0191885460    0.0003281172    
0.0901151280    0.0197589950    0.0003293623    
0.0903377890    0.0194882100    0.0003298352    
0.0905604500    0.0191714660    0.0003256425    
0.0907831110    0.0191862710    0.0003249577    
0.0910057720    0.0193905370    0.0003281821    
0.0912284330    0.0198969700    0.0003276803    
0.0914510940    0.0192893460    0.0003262359    
0.0916737550    0.0199019630    0.0003305536    
0.0918964160    0.0195253220    0.0003287725    
0.0921190770    0.0193858490    0.0003246341    
0.0923417380    0.0195160140    0.0003258558    
0.0925643990    0.0192365310    0.0003227224    
0.0927870600    0.0190179810    0.0003221998    
0.0930097210    0.0193286100    0.0003220541    
0.0932323820    0.0197662860    0.0003280740    
