# Diamond Light Source Ltd.
# Data extracted from: /dls/b21/data/2018/cm19678-3/processed/b21-386631_00375.dat
q(1/A)          Column          Error           
0.0035000000    2.0911827000    0.0245749540    
0.0037226610    1.8285816000    0.0224963570    
0.0039453220    1.6360779000    0.0193581410    
0.0041679830    1.3012815000    0.0141779050    
0.0043906440    0.9795338000    0.0117658000    
0.0046133050    0.7839269400    0.0101044670    
0.0048359660    0.5968788400    0.0083400066    
0.0050586270    0.4531431000    0.0071425358    
0.0052812880    0.4259153100    0.0065471219    
0.0055039490    0.3878038900    0.0059402598    
0.0057266100    0.3088691800    0.0051286232    
0.0059492710    0.2645017300    0.0047460006    
0.0061719320    0.2306634900    0.0042708138    
0.0063945930    0.2069659100    0.0040945234    
0.0066172539    0.1853430100    0.0036383757    
0.0068399149    0.1667507000    0.0033967153    
0.0070625759    0.1479617900    0.0031668151    
0.0072852369    0.1313344500    0.0029389326    
0.0075078979    0.1109663900    0.0026881695    
0.0077305589    0.1001366400    0.0025049820    
0.0079532199    0.0962836920    0.0024222792    
0.0081758809    0.0964072920    0.0024463814    
0.0083985419    0.0807883530    0.0020887331    
0.0086212029    0.0724719160    0.0019783061    
0.0088438639    0.0696119330    0.0019233045    
0.0090665249    0.0663740410    0.0018138776    
0.0092891859    0.0646955270    0.0018691573    
0.0095118469    0.0601808090    0.0017336623    
0.0097345079    0.0594044070    0.0016728659    
0.0099571689    0.0540426470    0.0015626835    
0.0101798300    0.0513314870    0.0015229817    
0.0104024910    0.0489201420    0.0014817484    
0.0106251520    0.0448246950    0.0014231855    
0.0108478130    0.0464108850    0.0014102809    
0.0110704740    0.0471569550    0.0013534319    
0.0112931350    0.0441913170    0.0013140311    
0.0115157960    0.0419782620    0.0012732383    
0.0117384570    0.0389812570    0.0012163838    
0.0119611180    0.0370675180    0.0011895533    
0.0121837790    0.0384519910    0.0011912008    
0.0124064400    0.0367703180    0.0011163041    
0.0126291010    0.0368470420    0.0011034818    
0.0128517620    0.0343411200    0.0010679580    
0.0130744230    0.0329174330    0.0010378318    
0.0132970840    0.0315594340    0.0010112295    
0.0135197450    0.0324564060    0.0010108136    
0.0137424060    0.0327834050    0.0010017499    
0.0139650670    0.0316903490    0.0009629701    
0.0141877280    0.0297144200    0.0009345266    
0.0144103890    0.0299475470    0.0009220087    
0.0146330500    0.0280830410    0.0008871770    
0.0148557110    0.0299880630    0.0009129305    
0.0150783720    0.0288384010    0.0008878609    
0.0153010330    0.0265164660    0.0008393641    
0.0155236940    0.0275410310    0.0008503397    
0.0157463550    0.0285978350    0.0008514882    
0.0159690160    0.0256890050    0.0008039600    
0.0161916770    0.0262959780    0.0008088199    
0.0164143380    0.0259634910    0.0008097790    
0.0166369990    0.0271390000    0.0008023814    
0.0168596600    0.0246118940    0.0007573787    
0.0170823210    0.0248747050    0.0007548194    
0.0173049820    0.0250067530    0.0007581285    
0.0175276430    0.0237296370    0.0007463036    
0.0177503040    0.0228918390    0.0007143244    
0.0179729650    0.0248653930    0.0007370962    
0.0181956260    0.0238370640    0.0007078581    
0.0184182870    0.0241542880    0.0007091943    
0.0186409480    0.0243555820    0.0007166507    
0.0188636090    0.0229882340    0.0006918645    
0.0190862700    0.0233523130    0.0006962315    
0.0193089310    0.0232381860    0.0006934455    
0.0195315920    0.0238278240    0.0006783078    
0.0197542530    0.0221737520    0.0006552944    
0.0199769140    0.0230258520    0.0006677667    
0.0201995750    0.0225918270    0.0006510856    
0.0204222360    0.0225041620    0.0006553992    
0.0206448970    0.0218655230    0.0006414411    
0.0208675580    0.0235012930    0.0006513078    
0.0210902190    0.0230185980    0.0006508040    
0.0213128800    0.0208225890    0.0006105832    
0.0215355410    0.0224095700    0.0006258777    
0.0217582020    0.0238429520    0.0006455841    
0.0219808630    0.0216185280    0.0006139249    
0.0222035240    0.0204923620    0.0005923044    
0.0224261850    0.0222312620    0.0006114323    
0.0226488460    0.0206894050    0.0005854190    
0.0228715070    0.0203559800    0.0005792400    
0.0230941680    0.0215097700    0.0005954297    
0.0233168290    0.0222133920    0.0006065973    
0.0235394900    0.0204458960    0.0005755413    
0.0237621510    0.0207865410    0.0005646932    
0.0239848120    0.0226029230    0.0005895300    
0.0242074730    0.0218793780    0.0005753748    
0.0244301340    0.0206554370    0.0005596878    
0.0246527950    0.0203600360    0.0005608166    
0.0248754560    0.0211231600    0.0005583918    
0.0250981170    0.0217808960    0.0005682832    
0.0253207780    0.0212532380    0.0005445969    
0.0255434390    0.0214099860    0.0005524353    
0.0257661000    0.0215200280    0.0005556447    
0.0259887610    0.0205173760    0.0005367805    
0.0262114220    0.0210062640    0.0005460318    
0.0264340830    0.0208666410    0.0005368096    
0.0266567440    0.0200639790    0.0005231313    
0.0268794050    0.0210234060    0.0005333074    
0.0271020660    0.0200752130    0.0005190323    
0.0273247270    0.0209882960    0.0005275173    
0.0275473880    0.0212085880    0.0005292233    
0.0277700490    0.0211021470    0.0005247732    
0.0279927100    0.0206329300    0.0005143786    
0.0282153710    0.0219217110    0.0005327776    
0.0284380320    0.0204780070    0.0005119502    
0.0286606930    0.0204812170    0.0005076081    
0.0288833540    0.0211652680    0.0005169955    
0.0291060150    0.0206587510    0.0005102871    
0.0293286760    0.0217537940    0.0005163401    
0.0295513370    0.0200596040    0.0004904270    
0.0297739980    0.0205037390    0.0005012854    
0.0299966590    0.0203539950    0.0004909211    
0.0302193200    0.0199521200    0.0004931337    
0.0304419810    0.0204660110    0.0005003631    
0.0306646420    0.0209097130    0.0004914833    
0.0308873030    0.0200537560    0.0004792395    
0.0311099640    0.0211711150    0.0004936883    
0.0313326250    0.0197026250    0.0004709828    
0.0315552860    0.0199162570    0.0004796662    
0.0317779470    0.0207494670    0.0004900234    
0.0320006080    0.0204251980    0.0004751331    
0.0322232690    0.0198498250    0.0004703539    
0.0324459300    0.0197302230    0.0004654338    
0.0326685910    0.0195339050    0.0004623490    
0.0328912520    0.0204676600    0.0004748379    
0.0331139130    0.0198742330    0.0004618170    
0.0333365740    0.0204355490    0.0004698138    
0.0335592350    0.0198219700    0.0004582579    
0.0337818960    0.0196211790    0.0004555679    
0.0340045570    0.0197803220    0.0004566852    
0.0342272170    0.0198442620    0.0004556184    
0.0344498780    0.0203813480    0.0004635718    
0.0346725390    0.0204662920    0.0004559337    
0.0348952000    0.0201695370    0.0004505542    
0.0351178610    0.0206796150    0.0004583039    
0.0353405220    0.0197065880    0.0004453537    
0.0355631830    0.0206472300    0.0004541419    
0.0357858440    0.0201477930    0.0004486158    
0.0360085050    0.0190336480    0.0004373529    
0.0362311660    0.0201046760    0.0004441463    
0.0364538270    0.0198411780    0.0004376849    
0.0366764880    0.0199473690    0.0004385361    
0.0368991490    0.0199758200    0.0004366365    
0.0371218100    0.0190455820    0.0004251289    
0.0373444710    0.0201802580    0.0004423751    
0.0375671320    0.0200441690    0.0004402389    
0.0377897930    0.0196437270    0.0004245370    
0.0380124540    0.0209036710    0.0004406881    
0.0382351150    0.0199003080    0.0004299818    
0.0384577760    0.0200466510    0.0004273960    
0.0386804370    0.0199559620    0.0004296824    
0.0389030980    0.0203109300    0.0004302043    
0.0391257590    0.0196046370    0.0004197889    
0.0393484200    0.0194907560    0.0004171592    
0.0395710810    0.0200267400    0.0004234257    
0.0397937420    0.0200715160    0.0004238990    
0.0400164030    0.0196846020    0.0004215012    
0.0402390640    0.0203237070    0.0004225860    
0.0404617250    0.0211092560    0.0004281347    
0.0406843860    0.0210013970    0.0004229136    
0.0409070470    0.0195196950    0.0004119693    
0.0411297080    0.0196810700    0.0004096668    
0.0413523690    0.0197826640    0.0004117815    
0.0415750300    0.0194663590    0.0004119461    
0.0417976910    0.0198870440    0.0004056047    
0.0420203520    0.0208369100    0.0004167382    
0.0422430130    0.0202895500    0.0004127850    
0.0424656740    0.0202147790    0.0004066611    
0.0426883350    0.0198458440    0.0004049329    
0.0429109960    0.0196374940    0.0004040602    
0.0431336570    0.0196860570    0.0003988597    
0.0433563180    0.0192543620    0.0003978650    
0.0435789790    0.0201037580    0.0004001590    
0.0438016400    0.0199124390    0.0004004169    
0.0440243010    0.0199048900    0.0003962791    
0.0442469620    0.0199126050    0.0003987309    
0.0444696230    0.0195163830    0.0003933284    
0.0446922840    0.0197158440    0.0003941593    
0.0449149450    0.0197752060    0.0003894750    
0.0451376060    0.0202588160    0.0003990771    
0.0453602670    0.0188510120    0.0003809257    
0.0455829280    0.0203203310    0.0003950352    
0.0458055890    0.0195324420    0.0003895596    
0.0460282500    0.0201106990    0.0003905174    
0.0462509110    0.0200785010    0.0003877777    
0.0464735720    0.0197487910    0.0003847978    
0.0466962330    0.0192553800    0.0003816877    
0.0469188940    0.0195601340    0.0003836058    
0.0471415550    0.0197311680    0.0003872580    
0.0473642160    0.0203130410    0.0003874249    
0.0475868770    0.0201848780    0.0003842822    
0.0478095380    0.0201826590    0.0003825796    
0.0480321990    0.0195937900    0.0003777829    
0.0482548600    0.0191923670    0.0003722640    
0.0484775210    0.0194133560    0.0003781185    
0.0487001820    0.0197429850    0.0003757332    
0.0489228430    0.0188717580    0.0003671521    
0.0491455040    0.0194569550    0.0003702227    
0.0493681650    0.0200866090    0.0003793980    
0.0495908260    0.0198250670    0.0003705782    
0.0498134870    0.0199854660    0.0003756162    
0.0500361480    0.0192338090    0.0003675101    
0.0502588090    0.0188320770    0.0003582030    
0.0504814700    0.0194745210    0.0003690236    
0.0507041310    0.0198129960    0.0003677913    
0.0509267920    0.0197638640    0.0003688547    
0.0511494530    0.0197796630    0.0003665415    
0.0513721140    0.0199844160    0.0003716785    
0.0515947750    0.0190810850    0.0003583658    
0.0518174360    0.0189981940    0.0003554325    
0.0520400970    0.0194307770    0.0003569639    
0.0522627580    0.0201492900    0.0003665932    
0.0524854190    0.0199020930    0.0003672998    
0.0527080800    0.0196194450    0.0003675059    
0.0529307410    0.0191996170    0.0003652600    
0.0531534020    0.0193360070    0.0003652206    
0.0533760630    0.0196446770    0.0003692765    
0.0535987240    0.0197642550    0.0003686694    
0.0538213850    0.0201474730    0.0003765389    
0.0540440460    0.0202360520    0.0003755798    
0.0542667070    0.0190318300    0.0003667435    
0.0544893680    0.0200354980    0.0003764901    
0.0547120290    0.0195874710    0.0003697066    
0.0549346900    0.0189444710    0.0003637790    
0.0551573510    0.0198579270    0.0003768304    
0.0553800120    0.0198029190    0.0003731091    
0.0556026730    0.0204934480    0.0003874281    
0.0558253340    0.0190879280    0.0003770374    
0.0560479950    0.0208530050    0.0003940847    
0.0562706560    0.0191247610    0.0003810500    
0.0564933170    0.0196746410    0.0003898453    
0.0567159780    0.0193791170    0.0003822675    
0.0569386390    0.0203418770    0.0003977912    
0.0571613000    0.0193710490    0.0003798245    
0.0573839610    0.0192777650    0.0003757628    
0.0576066220    0.0194509310    0.0003784916    
0.0578292830    0.0202589110    0.0003849946    
0.0580519440    0.0195757840    0.0003799154    
0.0582746050    0.0189357890    0.0003720058    
0.0584972660    0.0193712980    0.0003748192    
0.0587199270    0.0202505160    0.0003799273    
0.0589425880    0.0196198070    0.0003717767    
0.0591652490    0.0196232970    0.0003739977    
0.0593879100    0.0200070680    0.0003748325    
0.0596105710    0.0188436520    0.0003633872    
0.0598332320    0.0198015600    0.0003756932    
0.0600558930    0.0197609870    0.0003729152    
0.0602785540    0.0194172620    0.0003692669    
0.0605012150    0.0191746880    0.0003661800    
0.0607238760    0.0196336180    0.0003678359    
0.0609465370    0.0198179650    0.0003724681    
0.0611691980    0.0196842020    0.0003717973    
0.0613918590    0.0197651320    0.0003684935    
0.0616145200    0.0196302830    0.0003699221    
0.0618371810    0.0192055760    0.0003623049    
0.0620598420    0.0197588580    0.0003678654    
0.0622825030    0.0199089210    0.0003749067    
0.0625051640    0.0204311210    0.0003744577    
0.0627278250    0.0194722160    0.0003648120    
0.0629504860    0.0193317240    0.0003605385    
0.0631731470    0.0192617150    0.0003643377    
0.0633958080    0.0196862260    0.0003704504    
0.0636184690    0.0196650720    0.0003754080    
0.0638411300    0.0200013860    0.0003771833    
0.0640637910    0.0199158530    0.0003790231    
0.0642864520    0.0195281050    0.0003745032    
0.0645091130    0.0198060800    0.0003804643    
0.0647317740    0.0197252580    0.0003801058    
0.0649544350    0.0197111150    0.0003795515    
0.0651770960    0.0201038910    0.0003812235    
0.0653997570    0.0192322410    0.0003720589    
0.0656224180    0.0200027300    0.0003802636    
0.0658450790    0.0197759640    0.0003726673    
0.0660677400    0.0194488690    0.0003711454    
0.0662904010    0.0203076520    0.0003837786    
0.0665130620    0.0204050710    0.0003830292    
0.0667357230    0.0190442580    0.0003766159    
0.0669583840    0.0194053130    0.0003788973    
0.0671810450    0.0192135720    0.0003749391    
0.0674037060    0.0202030290    0.0003909857    
0.0676263670    0.0195802070    0.0003820937    
0.0678490280    0.0190026410    0.0003741141    
0.0680716890    0.0197753390    0.0003824938    
0.0682943500    0.0198004580    0.0003785447    
0.0685170110    0.0198598460    0.0003752488    
0.0687396720    0.0193665620    0.0003695747    
0.0689623330    0.0194963010    0.0003696355    
0.0691849940    0.0202008300    0.0003788618    
0.0694076550    0.0198030850    0.0003749132    
0.0696303160    0.0194837710    0.0003689341    
0.0698529770    0.0195413210    0.0003687042    
0.0700756380    0.0196055180    0.0003645685    
0.0702982990    0.0198547410    0.0003708738    
0.0705209600    0.0195895700    0.0003657292    
0.0707436210    0.0192273900    0.0003606686    
0.0709662820    0.0197370450    0.0003697736    
0.0711889430    0.0197553230    0.0003654010    
0.0714116040    0.0195171130    0.0003639327    
0.0716342650    0.0195204930    0.0003624865    
0.0718569260    0.0193969550    0.0003598823    
0.0720795870    0.0198974910    0.0003659705    
0.0723022480    0.0195598260    0.0003634049    
0.0725249090    0.0195291470    0.0003587711    
0.0727475700    0.0198239590    0.0003645564    
0.0729702310    0.0190141880    0.0003541855    
0.0731928920    0.0196852110    0.0003618214    
0.0734155530    0.0191563060    0.0003562154    
0.0736382140    0.0194081960    0.0003562486    
0.0738608750    0.0201565670    0.0003653975    
0.0740835360    0.0191140880    0.0003549397    
0.0743061970    0.0190280540    0.0003491533    
0.0745288580    0.0193298280    0.0003555296    
0.0747515190    0.0195375570    0.0003581408    
0.0749741800    0.0189842090    0.0003497648    
0.0751968410    0.0197744160    0.0003597728    
0.0754195020    0.0197956860    0.0003578573    
0.0756421630    0.0192442700    0.0003499537    
0.0758648240    0.0198292810    0.0003560870    
0.0760874850    0.0198549590    0.0003561464    
0.0763101460    0.0194916970    0.0003525347    
0.0765328070    0.0190011380    0.0003516318    
0.0767554680    0.0192961970    0.0003519470    
0.0769781290    0.0192844700    0.0003498182    
0.0772007900    0.0194134790    0.0003481713    
0.0774234510    0.0194770650    0.0003507247    
0.0776461120    0.0193518830    0.0003492642    
0.0778687730    0.0199130510    0.0003531216    
0.0780914340    0.0194110190    0.0003511330    
0.0783140950    0.0198519190    0.0003494645    
0.0785367560    0.0195254060    0.0003521666    
0.0787594170    0.0191084690    0.0003452649    
0.0789820780    0.0194133000    0.0003462247    
0.0792047390    0.0199630800    0.0003522409    
0.0794274000    0.0191861480    0.0003467817    
0.0796500610    0.0198460140    0.0003492523    
0.0798727220    0.0195946730    0.0003467133    
0.0800953830    0.0190405460    0.0003409898    
0.0803180440    0.0194305910    0.0003468642    
0.0805407050    0.0187207920    0.0003401532    
0.0807633660    0.0189883370    0.0003422572    
0.0809860270    0.0191239190    0.0003422086    
0.0812086880    0.0194327490    0.0003419796    
0.0814313490    0.0195678950    0.0003447318    
0.0816540100    0.0194184420    0.0003426310    
0.0818766710    0.0198776880    0.0003474504    
0.0820993320    0.0194785420    0.0003433175    
0.0823219930    0.0196517520    0.0003462629    
0.0825446540    0.0196378060    0.0003436251    
0.0827673150    0.0194816090    0.0003399564    
0.0829899760    0.0190753710    0.0003357944    
0.0832126370    0.0197893800    0.0003435532    
0.0834352980    0.0198078610    0.0003429451    
0.0836579590    0.0195128850    0.0003396243    
0.0838806200    0.0189689920    0.0003359054    
0.0841032810    0.0198856430    0.0003417907    
0.0843259420    0.0194013650    0.0003365636    
0.0845486030    0.0192145620    0.0003349396    
0.0847712640    0.0197077940    0.0003371441    
0.0849939250    0.0193887180    0.0003349860    
0.0852165860    0.0194337450    0.0003358141    
0.0854392470    0.0199214330    0.0003367818    
0.0856619080    0.0192453120    0.0003334553    
0.0858845690    0.0196378310    0.0003338049    
0.0861072300    0.0198063540    0.0003375484    
0.0863298910    0.0196364760    0.0003378576    
0.0865525520    0.0191274260    0.0003305703    
0.0867752130    0.0199330030    0.0003347367    
0.0869978740    0.0197861350    0.0003343512    
0.0872205350    0.0193469640    0.0003301991    
0.0874431960    0.0195329690    0.0003317829    
0.0876658570    0.0195412790    0.0003331276    
0.0878885180    0.0196425370    0.0003345622    
0.0881111790    0.0199502400    0.0003367399    
0.0883338400    0.0194089520    0.0003272773    
0.0885565010    0.0201430160    0.0003379301    
0.0887791620    0.0192925900    0.0003264309    
0.0890018230    0.0198770060    0.0003345520    
0.0892244840    0.0190123890    0.0003277511    
0.0894471450    0.0190257870    0.0003264817    
0.0896698060    0.0194997120    0.0003292762    
0.0898924670    0.0195293840    0.0003310541    
0.0901151280    0.0197577500    0.0003293874    
0.0903377890    0.0194812320    0.0003298116    
0.0905604500    0.0200109910    0.0003327318    
0.0907831110    0.0196362990    0.0003287820    
0.0910057720    0.0191669240    0.0003263194    
0.0912284330    0.0196367610    0.0003255656    
0.0914510940    0.0198895160    0.0003313079    
0.0916737550    0.0189781980    0.0003228257    
0.0918964160    0.0195793530    0.0003292625    
0.0921190770    0.0200533870    0.0003302116    
0.0923417380    0.0199664470    0.0003296302    
0.0925643990    0.0196847230    0.0003264954    
0.0927870600    0.0194861550    0.0003261767    
0.0930097210    0.0200305040    0.0003278846    
0.0932323820    0.0195853560    0.0003266041    
