# Diamond Light Source Ltd.
# Data extracted from: /dls/b21/data/2018/cm19678-3/processed/b21-386631_00376.dat
q(1/A)          Column          Error           
0.0035000000    2.1291083000    0.0247939770    
0.0037226610    1.8431075000    0.0225829650    
0.0039453220    1.6258589000    0.0192953960    
0.0041679830    1.3082441000    0.0142141680    
0.0043906440    0.9514759900    0.0115947470    
0.0046133050    0.7828371200    0.0100962930    
0.0048359660    0.5955780000    0.0083299658    
0.0050586270    0.4560790400    0.0071648218    
0.0052812880    0.4198819200    0.0064998447    
0.0055039490    0.3719778000    0.0058171259    
0.0057266100    0.3060744700    0.0051047874    
0.0059492710    0.2686133700    0.0047822022    
0.0061719320    0.2155900700    0.0041284420    
0.0063945930    0.2048131900    0.0040727102    
0.0066172539    0.1836584900    0.0036213920    
0.0068399149    0.1694106100    0.0034233099    
0.0070625759    0.1460985100    0.0031464542    
0.0072852369    0.1301210600    0.0029249921    
0.0075078979    0.1170611400    0.0027606916    
0.0077305589    0.0983596710    0.0024823742    
0.0079532199    0.0960180880    0.0024186607    
0.0081758809    0.0870137000    0.0023238796    
0.0083985419    0.0786103500    0.0020601509    
0.0086212029    0.0794742120    0.0020714399    
0.0088438639    0.0722524370    0.0019592193    
0.0090665249    0.0617004350    0.0017486526    
0.0092891859    0.0667324540    0.0018981383    
0.0095118469    0.0584694580    0.0017086402    
0.0097345079    0.0566120970    0.0016328903    
0.0099571689    0.0543917610    0.0015675445    
0.0101798300    0.0502355890    0.0015064652    
0.0104024910    0.0473834110    0.0014581237    
0.0106251520    0.0490158570    0.0014880644    
0.0108478130    0.0466573920    0.0014138604    
0.0110704740    0.0454763030    0.0013289441    
0.0112931350    0.0417983670    0.0012778134    
0.0115157960    0.0416212250    0.0012676679    
0.0117384570    0.0403005620    0.0012366558    
0.0119611180    0.0384330580    0.0012111285    
0.0121837790    0.0377791570    0.0011805987    
0.0124064400    0.0362198410    0.0011077906    
0.0126291010    0.0340303310    0.0010603459    
0.0128517620    0.0344661260    0.0010697783    
0.0130744230    0.0338259270    0.0010519363    
0.0132970840    0.0317466220    0.0010141086    
0.0135197450    0.0321342890    0.0010056708    
0.0137424060    0.0310621720    0.0009749869    
0.0139650670    0.0308640010    0.0009502240    
0.0141877280    0.0305010400    0.0009467078    
0.0144103890    0.0303380520    0.0009278950    
0.0146330500    0.0286090440    0.0008953451    
0.0148557110    0.0289253680    0.0008965067    
0.0150783720    0.0283672520    0.0008804782    
0.0153010330    0.0261119800    0.0008328428    
0.0155236940    0.0275347660    0.0008501462    
0.0157463550    0.0262087190    0.0008150524    
0.0159690160    0.0256831610    0.0008037771    
0.0161916770    0.0254443380    0.0007955241    
0.0164143380    0.0252000680    0.0007976942    
0.0166369990    0.0261841260    0.0007880496    
0.0168596600    0.0245363910    0.0007561300    
0.0170823210    0.0246858490    0.0007518629    
0.0173049820    0.0250929800    0.0007593481    
0.0175276430    0.0250618070    0.0007668788    
0.0177503040    0.0243351530    0.0007364152    
0.0179729650    0.0246194400    0.0007333583    
0.0181956260    0.0243570300    0.0007154555    
0.0184182870    0.0241071570    0.0007084215    
0.0186409480    0.0238019020    0.0007083774    
0.0188636090    0.0223376480    0.0006819265    
0.0190862700    0.0224131210    0.0006820095    
0.0193089310    0.0233570290    0.0006951374    
0.0195315920    0.0226641010    0.0006614613    
0.0197542530    0.0234271930    0.0006734844    
0.0199769140    0.0237369830    0.0006779229    
0.0201995750    0.0220614150    0.0006433239    
0.0204222360    0.0227662070    0.0006591290    
0.0206448970    0.0229140690    0.0006565663    
0.0208675580    0.0216011120    0.0006243513    
0.0210902190    0.0224430860    0.0006425437    
0.0213128800    0.0226973660    0.0006374055    
0.0215355410    0.0225617570    0.0006279279    
0.0217582020    0.0216355280    0.0006149038    
0.0219808630    0.0226245700    0.0006279759    
0.0222035240    0.0217542750    0.0006101995    
0.0224261850    0.0214360150    0.0006003285    
0.0226488460    0.0218936520    0.0006021469    
0.0228715070    0.0222793730    0.0006059191    
0.0230941680    0.0220486780    0.0006027740    
0.0233168290    0.0215624580    0.0005975755    
0.0235394900    0.0216236620    0.0005918186    
0.0237621510    0.0219934460    0.0005807894    
0.0239848120    0.0219060120    0.0005803044    
0.0242074730    0.0199380780    0.0005491938    
0.0244301340    0.0218788660    0.0005759591    
0.0246527950    0.0212511650    0.0005728930    
0.0248754560    0.0214872990    0.0005631202    
0.0250981170    0.0211978190    0.0005605614    
0.0253207780    0.0209554180    0.0005407062    
0.0255434390    0.0208350720    0.0005449057    
0.0257661000    0.0214577580    0.0005547771    
0.0259887610    0.0212427990    0.0005461253    
0.0262114220    0.0216826140    0.0005546895    
0.0264340830    0.0200611070    0.0005262863    
0.0266567440    0.0206048780    0.0005300756    
0.0268794050    0.0202341450    0.0005231414    
0.0271020660    0.0199901490    0.0005178726    
0.0273247270    0.0208244550    0.0005253945    
0.0275473880    0.0213754000    0.0005312401    
0.0277700490    0.0211234410    0.0005249782    
0.0279927100    0.0216154180    0.0005264230    
0.0282153710    0.0210752660    0.0005223311    
0.0284380320    0.0204733480    0.0005118337    
0.0286606930    0.0210174010    0.0005141511    
0.0288833540    0.0208953160    0.0005136295    
0.0291060150    0.0197845400    0.0004993167    
0.0293286760    0.0218468690    0.0005173846    
0.0295513370    0.0210979510    0.0005029027    
0.0297739980    0.0205358330    0.0005016206    
0.0299966590    0.0204203920    0.0004916653    
0.0302193200    0.0199719520    0.0004933226    
0.0304419810    0.0205225070    0.0005009962    
0.0306646420    0.0207317110    0.0004893312    
0.0308873030    0.0206904020    0.0004867319    
0.0311099640    0.0203491120    0.0004839543    
0.0313326250    0.0199007530    0.0004732911    
0.0315552860    0.0200618730    0.0004813617    
0.0317779470    0.0211728310    0.0004949410    
0.0320006080    0.0194149940    0.0004631817    
0.0322232690    0.0202241650    0.0004747143    
0.0324459300    0.0202197010    0.0004711182    
0.0326685910    0.0204047310    0.0004724887    
0.0328912520    0.0195599000    0.0004641359    
0.0331139130    0.0196444070    0.0004590867    
0.0333365740    0.0207548580    0.0004734161    
0.0335592350    0.0207177730    0.0004684450    
0.0337818960    0.0194157890    0.0004531257    
0.0340045570    0.0198706960    0.0004576752    
0.0342272170    0.0201221270    0.0004587450    
0.0344498780    0.0208616210    0.0004689485    
0.0346725390    0.0204717910    0.0004559430    
0.0348952000    0.0210303110    0.0004600156    
0.0351178610    0.0195477420    0.0004455344    
0.0353405220    0.0200643500    0.0004493270    
0.0355631830    0.0194341410    0.0004405487    
0.0357858440    0.0203629180    0.0004509531    
0.0360085050    0.0194613460    0.0004421891    
0.0362311660    0.0201001020    0.0004440453    
0.0364538270    0.0197980530    0.0004371592    
0.0366764880    0.0201452480    0.0004406558    
0.0368991490    0.0197613540    0.0004342368    
0.0371218100    0.0192689480    0.0004275659    
0.0373444710    0.0194873100    0.0004346642    
0.0375671320    0.0202716160    0.0004426792    
0.0377897930    0.0201070780    0.0004294659    
0.0380124540    0.0199422100    0.0004303851    
0.0382351150    0.0200351070    0.0004313865    
0.0384577760    0.0194681580    0.0004211362    
0.0386804370    0.0203584050    0.0004339440    
0.0389030980    0.0197597060    0.0004242782    
0.0391257590    0.0198518070    0.0004223789    
0.0393484200    0.0196827020    0.0004191606    
0.0395710810    0.0202101440    0.0004253118    
0.0397937420    0.0200580000    0.0004237080    
0.0400164030    0.0201583660    0.0004264948    
0.0402390640    0.0201960980    0.0004212093    
0.0404617250    0.0199151040    0.0004158013    
0.0406843860    0.0198727130    0.0004113455    
0.0409070470    0.0196456460    0.0004132493    
0.0411297080    0.0198641510    0.0004115210    
0.0413523690    0.0201894940    0.0004159468    
0.0415750300    0.0195839500    0.0004131414    
0.0417976910    0.0200727430    0.0004074477    
0.0420203520    0.0195239100    0.0004033487    
0.0422430130    0.0196468320    0.0004061483    
0.0424656740    0.0204228330    0.0004087020    
0.0426883350    0.0192218040    0.0003984703    
0.0429109960    0.0201483730    0.0004092358    
0.0431336570    0.0194795920    0.0003967174    
0.0433563180    0.0200554900    0.0004060115    
0.0435789790    0.0201549270    0.0004006223    
0.0438016400    0.0192800010    0.0003939620    
0.0440243010    0.0194428820    0.0003916086    
0.0442469620    0.0193652730    0.0003931681    
0.0444696230    0.0195674200    0.0003937976    
0.0446922840    0.0201998100    0.0003989223    
0.0449149450    0.0198090520    0.0003897638    
0.0451376060    0.0192874750    0.0003893481    
0.0453602670    0.0195316400    0.0003876974    
0.0455829280    0.0196554090    0.0003884741    
0.0458055890    0.0199008490    0.0003931715    
0.0460282500    0.0201288680    0.0003906493    
0.0462509110    0.0195647850    0.0003827413    
0.0464735720    0.0194369650    0.0003817044    
0.0466962330    0.0196367760    0.0003854054    
0.0469188940    0.0204056050    0.0003917640    
0.0471415550    0.0191947580    0.0003819143    
0.0473642160    0.0205078840    0.0003892343    
0.0475868770    0.0199535410    0.0003820303    
0.0478095380    0.0196560330    0.0003775123    
0.0480321990    0.0196694380    0.0003784684    
0.0482548600    0.0202780640    0.0003826050    
0.0484775210    0.0193942140    0.0003778890    
0.0487001820    0.0190736330    0.0003692670    
0.0489228430    0.0192173920    0.0003704568    
0.0491455040    0.0190651680    0.0003664346    
0.0493681650    0.0196665000    0.0003753668    
0.0495908260    0.0194535100    0.0003670474    
0.0498134870    0.0200303250    0.0003759948    
0.0500361480    0.0200157420    0.0003748634    
0.0502588090    0.0193318660    0.0003628838    
0.0504814700    0.0193372610    0.0003676790    
0.0507041310    0.0196651470    0.0003663748    
0.0509267920    0.0198557210    0.0003696688    
0.0511494530    0.0198294910    0.0003669612    
0.0513721140    0.0196412280    0.0003684314    
0.0515947750    0.0204158170    0.0003706457    
0.0518174360    0.0196387460    0.0003613337    
0.0520400970    0.0193476810    0.0003561593    
0.0522627580    0.0193711930    0.0003594043    
0.0524854190    0.0193215120    0.0003618616    
0.0527080800    0.0194429210    0.0003658072    
0.0529307410    0.0190910410    0.0003641843    
0.0531534020    0.0199385230    0.0003708249    
0.0533760630    0.0196402080    0.0003691925    
0.0535987240    0.0191891050    0.0003632242    
0.0538213850    0.0198122170    0.0003733505    
0.0540440460    0.0201338800    0.0003745879    
0.0542667070    0.0198894970    0.0003748734    
0.0544893680    0.0187365680    0.0003640400    
0.0547120290    0.0193597670    0.0003675095    
0.0549346900    0.0194849010    0.0003688893    
0.0551573510    0.0194101570    0.0003725153    
0.0553800120    0.0192713000    0.0003680250    
0.0556026730    0.0203423330    0.0003859532    
0.0558253340    0.0193069600    0.0003791514    
0.0560479950    0.0197760650    0.0003837301    
0.0562706560    0.0197048770    0.0003867420    
0.0564933170    0.0199018510    0.0003920453    
0.0567159780    0.0197667260    0.0003860276    
0.0569386390    0.0201505980    0.0003958715    
0.0571613000    0.0191432670    0.0003775418    
0.0573839610    0.0195369970    0.0003782378    
0.0576066220    0.0195864090    0.0003797642    
0.0578292830    0.0195594090    0.0003782466    
0.0580519440    0.0193207000    0.0003773891    
0.0582746050    0.0193698790    0.0003762028    
0.0584972660    0.0184967950    0.0003662193    
0.0587199270    0.0201888980    0.0003793057    
0.0589425880    0.0189321520    0.0003651618    
0.0591652490    0.0198896340    0.0003764843    
0.0593879100    0.0191038430    0.0003662322    
0.0596105710    0.0205418440    0.0003793652    
0.0598332320    0.0208446310    0.0003854174    
0.0600558930    0.0200168160    0.0003752786    
0.0602785540    0.0201359990    0.0003759963    
0.0605012150    0.0199253930    0.0003732368    
0.0607238760    0.0197669480    0.0003690408    
0.0609465370    0.0188476290    0.0003631939    
0.0611691980    0.0199114160    0.0003738945    
0.0613918590    0.0204680900    0.0003749464    
0.0616145200    0.0196118780    0.0003697065    
0.0618371810    0.0197068620    0.0003669609    
0.0620598420    0.0196448070    0.0003667604    
0.0622825030    0.0202149570    0.0003777342    
0.0625051640    0.0190747720    0.0003617737    
0.0627278250    0.0198162800    0.0003679791    
0.0629504860    0.0204836050    0.0003710822    
0.0631731470    0.0188370480    0.0003602580    
0.0633958080    0.0194726640    0.0003683937    
0.0636184690    0.0194384850    0.0003731965    
0.0638411300    0.0202101730    0.0003791037    
0.0640637910    0.0193776610    0.0003738243    
0.0642864520    0.0194231370    0.0003734528    
0.0645091130    0.0202692140    0.0003848431    
0.0647317740    0.0198892000    0.0003816387    
0.0649544350    0.0197358590    0.0003797465    
0.0651770960    0.0195861740    0.0003762400    
0.0653997570    0.0193573950    0.0003732250    
0.0656224180    0.0193983070    0.0003744317    
0.0658450790    0.0194133880    0.0003691933    
0.0660677400    0.0195789830    0.0003723425    
0.0662904010    0.0198099590    0.0003790035    
0.0665130620    0.0194156300    0.0003735848    
0.0667357230    0.0199185780    0.0003851203    
0.0669583840    0.0201553370    0.0003861062    
0.0671810450    0.0195091160    0.0003777688    
0.0674037060    0.0196688860    0.0003857386    
0.0676263670    0.0190912050    0.0003772494    
0.0678490280    0.0199408700    0.0003831950    
0.0680716890    0.0200593040    0.0003851865    
0.0682943500    0.0200491920    0.0003808716    
0.0685170110    0.0194087430    0.0003709204    
0.0687396720    0.0198980350    0.0003745689    
0.0689623330    0.0196880460    0.0003714065    
0.0691849940    0.0191022420    0.0003683740    
0.0694076550    0.0204088590    0.0003805610    
0.0696303160    0.0197866500    0.0003717483    
0.0698529770    0.0195786060    0.0003690138    
0.0700756380    0.0200144960    0.0003683095    
0.0702982990    0.0189290520    0.0003620838    
0.0705209600    0.0194622370    0.0003644972    
0.0707436210    0.0194394610    0.0003626109    
0.0709662820    0.0195039920    0.0003675422    
0.0711889430    0.0203319340    0.0003706531    
0.0714116040    0.0194380420    0.0003631535    
0.0716342650    0.0195025930    0.0003622790    
0.0718569260    0.0195861330    0.0003615919    
0.0720795870    0.0196843450    0.0003639637    
0.0723022480    0.0198793870    0.0003663198    
0.0725249090    0.0192940720    0.0003565647    
0.0727475700    0.0198194490    0.0003644735    
0.0729702310    0.0190890160    0.0003548414    
0.0731928920    0.0197472220    0.0003623496    
0.0734155530    0.0189797660    0.0003545298    
0.0736382140    0.0191030480    0.0003533968    
0.0738608750    0.0192314670    0.0003568734    
0.0740835360    0.0197093900    0.0003603836    
0.0743061970    0.0192351000    0.0003510078    
0.0745288580    0.0195673250    0.0003576664    
0.0747515190    0.0197037640    0.0003596200    
0.0749741800    0.0197465590    0.0003566779    
0.0751968410    0.0200971260    0.0003626553    
0.0754195020    0.0193901850    0.0003541328    
0.0756421630    0.0196788980    0.0003538432    
0.0758648240    0.0194795470    0.0003528926    
0.0760874850    0.0194544560    0.0003524959    
0.0763101460    0.0201438500    0.0003583430    
0.0765328070    0.0202264040    0.0003627507    
0.0767554680    0.0191377800    0.0003504594    
0.0769781290    0.0193689020    0.0003505432    
0.0772007900    0.0201020210    0.0003542516    
0.0774234510    0.0195736590    0.0003515533    
0.0776461120    0.0195428470    0.0003509433    
0.0778687730    0.0190696090    0.0003455229    
0.0780914340    0.0194701070    0.0003516270    
0.0783140950    0.0199027570    0.0003498718    
0.0785367560    0.0196606720    0.0003533441    
0.0787594170    0.0195344790    0.0003490527    
0.0789820780    0.0200323880    0.0003516619    
0.0792047390    0.0192750270    0.0003460781    
0.0794274000    0.0194575100    0.0003491857    
0.0796500610    0.0193007580    0.0003443820    
0.0798727220    0.0189400700    0.0003408340    
0.0800953830    0.0195978990    0.0003459051    
0.0803180440    0.0195128400    0.0003475581    
0.0805407050    0.0203601770    0.0003546940    
0.0807633660    0.0192924000    0.0003449474    
0.0809860270    0.0202582940    0.0003521717    
0.0812086880    0.0192779080    0.0003405757    
0.0814313490    0.0201099090    0.0003494338    
0.0816540100    0.0191057700    0.0003398226    
0.0818766710    0.0195635010    0.0003446544    
0.0820993320    0.0191232260    0.0003401331    
0.0823219930    0.0192873960    0.0003429988    
0.0825446540    0.0192606300    0.0003402704    
0.0827673150    0.0197203460    0.0003419942    
0.0829899760    0.0190178430    0.0003352496    
0.0832126370    0.0197610260    0.0003432679    
0.0834352980    0.0197796100    0.0003426614    
0.0836579590    0.0191124860    0.0003360835    
0.0838806200    0.0195891020    0.0003413129    
0.0841032810    0.0195933270    0.0003392307    
0.0843259420    0.0198639270    0.0003405133    
0.0845486030    0.0197238630    0.0003393110    
0.0847712640    0.0195822200    0.0003360300    
0.0849939250    0.0194363850    0.0003353594    
0.0852165860    0.0193016900    0.0003346331    
0.0854392470    0.0202128940    0.0003391979    
0.0856619080    0.0195355260    0.0003359219    
0.0858845690    0.0197978730    0.0003351242    
0.0861072300    0.0196465620    0.0003361458    
0.0863298910    0.0195564570    0.0003371302    
0.0865525520    0.0196485600    0.0003350052    
0.0867752130    0.0192091100    0.0003285649    
0.0869978740    0.0190303610    0.0003278661    
0.0872205350    0.0194777860    0.0003312760    
0.0874431960    0.0191791980    0.0003287272    
0.0876658570    0.0195708990    0.0003333421    
0.0878885180    0.0192677540    0.0003313174    
0.0881111790    0.0192808450    0.0003310047    
0.0883338400    0.0192941900    0.0003262712    
0.0885565010    0.0197360050    0.0003344605    
0.0887791620    0.0195974310    0.0003289623    
0.0890018230    0.0188028600    0.0003253499    
0.0892244840    0.0199965960    0.0003360891    
0.0894471450    0.0192455040    0.0003283241    
0.0896698060    0.0195119520    0.0003293420    
0.0898924670    0.0193341810    0.0003293579    
0.0901151280    0.0194952230    0.0003271545    
0.0903377890    0.0193595710    0.0003287428    
0.0905604500    0.0201613130    0.0003339412    
0.0907831110    0.0199510490    0.0003313689    
0.0910057720    0.0194513910    0.0003286946    
0.0912284330    0.0194757970    0.0003241916    
0.0914510940    0.0193387610    0.0003266515    
0.0916737550    0.0200115150    0.0003314601    
0.0918964160    0.0189880950    0.0003242159    
0.0921190770    0.0193856050    0.0003246300    
0.0923417380    0.0195756160    0.0003263509    
0.0925643990    0.0200484040    0.0003294602    
0.0927870600    0.0190286580    0.0003222882    
0.0930097210    0.0196395950    0.0003246325    
0.0932323820    0.0191507310    0.0003229231    
