# Diamond Light Source Ltd.
# Data extracted from: /dls/b21/data/2018/cm19678-3/processed/b21-386631_00382.dat
q(1/A)          Column          Error           
0.0035000000    2.1201951000    0.0247489840    
0.0037226610    1.9266481000    0.0230955850    
0.0039453220    1.6187545000    0.0192586090    
0.0041679830    1.2728214000    0.0140243560    
0.0043906440    0.9767518100    0.0117510490    
0.0046133050    0.7792387800    0.0100758950    
0.0048359660    0.5945142700    0.0083248650    
0.0050586270    0.4550968600    0.0071591162    
0.0052812880    0.4270647900    0.0065570490    
0.0055039490    0.3802880300    0.0058834008    
0.0057266100    0.3220914500    0.0052381250    
0.0059492710    0.2639088700    0.0047414729    
0.0061719320    0.2217231400    0.0041879306    
0.0063945930    0.1998234600    0.0040239256    
0.0066172539    0.1814040900    0.0036001095    
0.0068399149    0.1695059400    0.0034252362    
0.0070625759    0.1463841300    0.0031504143    
0.0072852369    0.1219707900    0.0028327025    
0.0075078979    0.1147818600    0.0027344521    
0.0077305589    0.1024268400    0.0025338900    
0.0079532199    0.1003392800    0.0024731819    
0.0081758809    0.0940177410    0.0024162778    
0.0083985419    0.0833003910    0.0021213135    
0.0086212029    0.0782764500    0.0020563495    
0.0088438639    0.0708578630    0.0019407651    
0.0090665249    0.0672888390    0.0018266406    
0.0092891859    0.0650953530    0.0018752383    
0.0095118469    0.0612501210    0.0017492896    
0.0097345079    0.0580576950    0.0016540721    
0.0099571689    0.0540607570    0.0015632071    
0.0101798300    0.0486366090    0.0014827132    
0.0104024910    0.0479039290    0.0014665232    
0.0106251520    0.0472353860    0.0014611988    
0.0108478130    0.0450975170    0.0013904160    
0.0110704740    0.0455018930    0.0013296919    
0.0112931350    0.0385777590    0.0012279436    
0.0115157960    0.0412583320    0.0012624844    
0.0117384570    0.0375135220    0.0011934641    
0.0119611180    0.0375381880    0.0011972823    
0.0121837790    0.0360654360    0.0011538355    
0.0124064400    0.0352909930    0.0010938015    
0.0126291010    0.0343139420    0.0010650548    
0.0128517620    0.0322927990    0.0010357920    
0.0130744230    0.0320119650    0.0010236298    
0.0132970840    0.0311810570    0.0010053176    
0.0135197450    0.0322468440    0.0010077139    
0.0137424060    0.0304978640    0.0009663618    
0.0139650670    0.0285103820    0.0009135316    
0.0141877280    0.0309886190    0.0009545131    
0.0144103890    0.0299291860    0.0009218804    
0.0146330500    0.0272233240    0.0008736380    
0.0148557110    0.0283022040    0.0008870465    
0.0150783720    0.0274535130    0.0008664252    
0.0153010330    0.0272163930    0.0008505123    
0.0155236940    0.0289684810    0.0008722439    
0.0157463550    0.0252090190    0.0007995815    
0.0159690160    0.0268553900    0.0008221466    
0.0161916770    0.0270016050    0.0008197373    
0.0164143380    0.0271849000    0.0008287463    
0.0166369990    0.0265073610    0.0007931218    
0.0168596600    0.0277676020    0.0008046046    
0.0170823210    0.0253642040    0.0007623378    
0.0173049820    0.0252450500    0.0007618598    
0.0175276430    0.0244419680    0.0007575491    
0.0177503040    0.0246610110    0.0007415378    
0.0179729650    0.0251797280    0.0007418649    
0.0181956260    0.0231932020    0.0006983497    
0.0184182870    0.0243081890    0.0007115693    
0.0186409480    0.0245324960    0.0007193693    
0.0188636090    0.0246414800    0.0007164311    
0.0190862700    0.0237131360    0.0007017072    
0.0193089310    0.0227698760    0.0006865376    
0.0195315920    0.0228313820    0.0006640847    
0.0197542530    0.0229754420    0.0006671470    
0.0199769140    0.0244671110    0.0006884637    
0.0201995750    0.0224304650    0.0006488649    
0.0204222360    0.0225880780    0.0006567301    
0.0206448970    0.0218728490    0.0006416561    
0.0208675580    0.0234911120    0.0006512758    
0.0210902190    0.0222164330    0.0006394708    
0.0213128800    0.0218504480    0.0006255765    
0.0215355410    0.0225394810    0.0006277944    
0.0217582020    0.0212979820    0.0006102599    
0.0219808630    0.0215211320    0.0006126431    
0.0222035240    0.0219206450    0.0006127007    
0.0224261850    0.0224069320    0.0006139462    
0.0226488460    0.0212431590    0.0005933010    
0.0228715070    0.0210223250    0.0005887429    
0.0230941680    0.0211047750    0.0005898964    
0.0233168290    0.0227842270    0.0006144449    
0.0235394900    0.0216844500    0.0005928166    
0.0237621510    0.0216682150    0.0005766414    
0.0239848120    0.0213953750    0.0005736623    
0.0242074730    0.0215537170    0.0005711724    
0.0244301340    0.0209050880    0.0005631543    
0.0246527950    0.0214485580    0.0005757095    
0.0248754560    0.0215879860    0.0005645968    
0.0250981170    0.0215508830    0.0005653693    
0.0253207780    0.0208276140    0.0005392065    
0.0255434390    0.0209180910    0.0005461438    
0.0257661000    0.0209388270    0.0005481819    
0.0259887610    0.0199482800    0.0005293724    
0.0262114220    0.0201046200    0.0005342742    
0.0264340830    0.0206664160    0.0005343175    
0.0266567440    0.0210530890    0.0005359606    
0.0268794050    0.0206785910    0.0005290044    
0.0271020660    0.0210216030    0.0005312145    
0.0273247270    0.0213534300    0.0005321753    
0.0275473880    0.0214666900    0.0005325230    
0.0277700490    0.0214225280    0.0005288304    
0.0279927100    0.0213966810    0.0005239000    
0.0282153710    0.0214627560    0.0005272593    
0.0284380320    0.0201519900    0.0005079437    
0.0286606930    0.0205132500    0.0005080900    
0.0288833540    0.0211723600    0.0005171687    
0.0291060150    0.0201991510    0.0005046635    
0.0293286760    0.0205351070    0.0005017525    
0.0295513370    0.0215296200    0.0005081643    
0.0297739980    0.0207680650    0.0005045908    
0.0299966590    0.0200765450    0.0004876454    
0.0302193200    0.0196905750    0.0004899730    
0.0304419810    0.0209134090    0.0005058873    
0.0306646420    0.0202349040    0.0004835686    
0.0308873030    0.0204614560    0.0004841677    
0.0311099640    0.0201993360    0.0004823056    
0.0313326250    0.0204975970    0.0004804711    
0.0315552860    0.0195762440    0.0004756337    
0.0317779470    0.0206059270    0.0004884073    
0.0320006080    0.0200229600    0.0004705102    
0.0322232690    0.0205254210    0.0004783714    
0.0324459300    0.0207582730    0.0004774856    
0.0326685910    0.0199126500    0.0004668880    
0.0328912520    0.0207500100    0.0004781819    
0.0331139130    0.0205679220    0.0004698862    
0.0333365740    0.0200966480    0.0004659799    
0.0335592350    0.0196908400    0.0004568161    
0.0337818960    0.0197864680    0.0004575594    
0.0340045570    0.0209366190    0.0004699225    
0.0342272170    0.0202276290    0.0004600754    
0.0344498780    0.0192490560    0.0004505863    
0.0346725390    0.0202801030    0.0004539310    
0.0348952000    0.0201662270    0.0004505927    
0.0351178610    0.0198229110    0.0004487855    
0.0353405220    0.0201662530    0.0004505933    
0.0355631830    0.0201545320    0.0004487658    
0.0357858440    0.0199646900    0.0004466474    
0.0360085050    0.0201659400    0.0004502493    
0.0362311660    0.0201114130    0.0004442952    
0.0364538270    0.0189978950    0.0004283545    
0.0366764880    0.0196454360    0.0004352774    
0.0368991490    0.0206126370    0.0004436160    
0.0371218100    0.0205897910    0.0004421017    
0.0373444710    0.0203519310    0.0004443272    
0.0375671320    0.0205441780    0.0004457707    
0.0377897930    0.0197512680    0.0004257688    
0.0380124540    0.0201021290    0.0004322289    
0.0382351150    0.0193307710    0.0004238552    
0.0384577760    0.0200533680    0.0004275392    
0.0386804370    0.0199719040    0.0004299260    
0.0389030980    0.0193971030    0.0004204855    
0.0391257590    0.0197281000    0.0004211792    
0.0393484200    0.0202564570    0.0004253456    
0.0395710810    0.0195498540    0.0004184241    
0.0397937420    0.0196573340    0.0004195728    
0.0400164030    0.0187070890    0.0004109712    
0.0402390640    0.0197855580    0.0004170235    
0.0404617250    0.0194311930    0.0004108341    
0.0406843860    0.0200713190    0.0004135121    
0.0409070470    0.0202394430    0.0004195661    
0.0411297080    0.0194573500    0.0004074000    
0.0413523690    0.0199693520    0.0004137893    
0.0415750300    0.0204408580    0.0004222020    
0.0417976910    0.0198854320    0.0004056562    
0.0420203520    0.0196432840    0.0004046937    
0.0422430130    0.0201703360    0.0004116395    
0.0424656740    0.0196896220    0.0004014113    
0.0426883350    0.0206789930    0.0004134145    
0.0429109960    0.0198686250    0.0004064992    
0.0431336570    0.0191106050    0.0003930526    
0.0433563180    0.0199516380    0.0004050729    
0.0435789790    0.0198077220    0.0003972683    
0.0438016400    0.0195324890    0.0003966448    
0.0440243010    0.0198642080    0.0003959402    
0.0442469620    0.0197835010    0.0003975027    
0.0444696230    0.0197925330    0.0003961677    
0.0446922840    0.0191233680    0.0003882567    
0.0449149450    0.0200197060    0.0003919410    
0.0451376060    0.0189837680    0.0003863792    
0.0453602670    0.0196735300    0.0003892126    
0.0455829280    0.0202272710    0.0003941957    
0.0458055890    0.0188161850    0.0003824143    
0.0460282500    0.0192071460    0.0003817078    
0.0462509110    0.0198979370    0.0003860949    
0.0464735720    0.0195229040    0.0003826550    
0.0466962330    0.0198673120    0.0003877702    
0.0469188940    0.0194613300    0.0003826998    
0.0471415550    0.0197453830    0.0003874624    
0.0473642160    0.0191889140    0.0003766154    
0.0475868770    0.0194524770    0.0003773092    
0.0478095380    0.0194494570    0.0003756290    
0.0480321990    0.0197679430    0.0003795217    
0.0482548600    0.0200655610    0.0003807020    
0.0484775210    0.0195672050    0.0003796774    
0.0487001820    0.0196065400    0.0003744954    
0.0489228430    0.0192424960    0.0003708030    
0.0491455040    0.0196396460    0.0003720190    
0.0493681650    0.0199571380    0.0003782367    
0.0495908260    0.0196030430    0.0003685590    
0.0498134870    0.0198368020    0.0003742793    
0.0500361480    0.0192262050    0.0003674990    
0.0502588090    0.0200992780    0.0003701204    
0.0504814700    0.0192432170    0.0003668871    
0.0507041310    0.0197376790    0.0003671531    
0.0509267920    0.0189579070    0.0003613161    
0.0511494530    0.0195484750    0.0003644542    
0.0513721140    0.0198113240    0.0003701274    
0.0515947750    0.0192692640    0.0003601889    
0.0518174360    0.0197030120    0.0003620263    
0.0520400970    0.0197652880    0.0003600838    
0.0522627580    0.0199492110    0.0003648297    
0.0524854190    0.0193866310    0.0003625728    
0.0527080800    0.0197775180    0.0003690452    
0.0529307410    0.0200818970    0.0003736207    
0.0531534020    0.0197013190    0.0003687162    
0.0533760630    0.0197970820    0.0003707683    
0.0535987240    0.0197020860    0.0003681508    
0.0538213850    0.0196755350    0.0003721651    
0.0540440460    0.0191968720    0.0003658705    
0.0542667070    0.0197310200    0.0003734820    
0.0544893680    0.0194406620    0.0003709212    
0.0547120290    0.0197615640    0.0003714081    
0.0549346900    0.0203553600    0.0003771452    
0.0551573510    0.0196499840    0.0003749150    
0.0553800120    0.0190711790    0.0003662121    
0.0556026730    0.0202658580    0.0003853354    
0.0558253340    0.0190645240    0.0003768694    
0.0560479950    0.0189825930    0.0003760589    
0.0562706560    0.0193438220    0.0003832903    
0.0564933170    0.0195421440    0.0003885955    
0.0567159780    0.0196948750    0.0003854338    
0.0569386390    0.0199985250    0.0003944858    
0.0571613000    0.0201970440    0.0003879029    
0.0573839610    0.0199070060    0.0003819101    
0.0576066220    0.0190890760    0.0003750172    
0.0578292830    0.0195265030    0.0003780346    
0.0580519440    0.0199511260    0.0003836046    
0.0582746050    0.0192126310    0.0003747781    
0.0584972660    0.0198203370    0.0003792021    
0.0587199270    0.0200790430    0.0003783787    
0.0589425880    0.0192951640    0.0003687498    
0.0591652490    0.0201076070    0.0003786481    
0.0593879100    0.0198311270    0.0003732432    
0.0596105710    0.0202730020    0.0003769805    
0.0598332320    0.0194302850    0.0003722168    
0.0600558930    0.0190777130    0.0003664727    
0.0602785540    0.0195080670    0.0003701914    
0.0605012150    0.0194959010    0.0003692962    
0.0607238760    0.0199159460    0.0003705332    
0.0609465370    0.0202657750    0.0003767159    
0.0611691980    0.0200701430    0.0003754874    
0.0613918590    0.0194212650    0.0003653351    
0.0616145200    0.0189186090    0.0003632154    
0.0618371810    0.0200803130    0.0003705258    
0.0620598420    0.0198271390    0.0003685622    
0.0622825030    0.0195554170    0.0003716256    
0.0625051640    0.0199162050    0.0003697709    
0.0627278250    0.0195744600    0.0003658298    
0.0629504860    0.0193045710    0.0003603456    
0.0631731470    0.0195646030    0.0003672526    
0.0633958080    0.0194975680    0.0003687329    
0.0636184690    0.0199655890    0.0003783289    
0.0638411300    0.0191827190    0.0003694454    
0.0640637910    0.0198648010    0.0003786004    
0.0642864520    0.0196639700    0.0003758667    
0.0645091130    0.0194398580    0.0003769936    
0.0647317740    0.0193948220    0.0003769718    
0.0649544350    0.0194691470    0.0003772779    
0.0651770960    0.0200817010    0.0003810769    
0.0653997570    0.0192458860    0.0003722532    
0.0656224180    0.0192645940    0.0003732439    
0.0658450790    0.0192697610    0.0003679285    
0.0660677400    0.0196679360    0.0003732923    
0.0662904010    0.0199371890    0.0003803256    
0.0665130620    0.0193905930    0.0003734489    
0.0667357230    0.0196615720    0.0003827353    
0.0669583840    0.0198854550    0.0003836204    
0.0671810450    0.0193444350    0.0003762768    
0.0674037060    0.0197102310    0.0003862524    
0.0676263670    0.0193779220    0.0003801786    
0.0678490280    0.0195763320    0.0003797830    
0.0680716890    0.0201890020    0.0003865384    
0.0682943500    0.0196478260    0.0003771461    
0.0685170110    0.0191075880    0.0003681350    
0.0687396720    0.0193871620    0.0003698332    
0.0689623330    0.0198183000    0.0003727379    
0.0691849940    0.0195892170    0.0003731449    
0.0694076550    0.0196322140    0.0003733548    
0.0696303160    0.0188753320    0.0003631887    
0.0698529770    0.0192207960    0.0003657291    
0.0700756380    0.0198562210    0.0003669535    
0.0702982990    0.0193693640    0.0003663738    
0.0705209600    0.0191931460    0.0003620704    
0.0707436210    0.0192135300    0.0003605990    
0.0709662820    0.0199307700    0.0003716461    
0.0711889430    0.0198701160    0.0003665225    
0.0714116040    0.0199241730    0.0003677699    
0.0716342650    0.0190152910    0.0003578250    
0.0718569260    0.0194101330    0.0003600648    
0.0720795870    0.0197290880    0.0003644796    
0.0723022480    0.0193570060    0.0003615764    
0.0725249090    0.0189291150    0.0003532757    
0.0727475700    0.0194349290    0.0003610221    
0.0729702310    0.0198521320    0.0003619664    
0.0731928920    0.0194456590    0.0003596733    
0.0734155530    0.0195470390    0.0003598902    
0.0736382140    0.0190876320    0.0003533535    
0.0738608750    0.0195603430    0.0003600131    
0.0740835360    0.0193578510    0.0003572557    
0.0743061970    0.0193356490    0.0003520230    
0.0745288580    0.0200951050    0.0003625598    
0.0747515190    0.0195178340    0.0003580200    
0.0749741800    0.0193322190    0.0003530153    
0.0751968410    0.0195256770    0.0003575628    
0.0754195020    0.0194658090    0.0003549225    
0.0756421630    0.0194607960    0.0003519759    
0.0758648240    0.0192986090    0.0003513487    
0.0760874850    0.0195484790    0.0003534461    
0.0763101460    0.0190581310    0.0003486503    
0.0765328070    0.0204265590    0.0003646437    
0.0767554680    0.0196815240    0.0003555032    
0.0769781290    0.0193099750    0.0003501080    
0.0772007900    0.0195011870    0.0003490154    
0.0774234510    0.0195973090    0.0003518646    
0.0776461120    0.0196484280    0.0003519890    
0.0778687730    0.0194373910    0.0003489370    
0.0780914340    0.0201482230    0.0003577986    
0.0783140950    0.0191693360    0.0003434615    
0.0785367560    0.0198687060    0.0003553085    
0.0787594170    0.0199323870    0.0003526889    
0.0789820780    0.0197348210    0.0003491385    
0.0792047390    0.0192672220    0.0003461053    
0.0794274000    0.0195499690    0.0003501128    
0.0796500610    0.0192624330    0.0003441367    
0.0798727220    0.0198712620    0.0003492103    
0.0800953830    0.0194623180    0.0003448035    
0.0803180440    0.0187681390    0.0003409572    
0.0805407050    0.0195369840    0.0003475473    
0.0807633660    0.0201055010    0.0003522406    
0.0809860270    0.0191670810    0.0003426519    
0.0812086880    0.0197101710    0.0003444697    
0.0814313490    0.0196655810    0.0003456491    
0.0816540100    0.0193584250    0.0003421584    
0.0818766710    0.0196109610    0.0003451693    
0.0820993320    0.0199814270    0.0003477793    
0.0823219930    0.0196156150    0.0003460023    
0.0825446540    0.0197947570    0.0003450533    
0.0827673150    0.0197492450    0.0003423409    
0.0829899760    0.0193596820    0.0003383443    
0.0832126370    0.0195275300    0.0003413299    
0.0834352980    0.0194700020    0.0003400647    
0.0836579590    0.0195608160    0.0003400981    
0.0838806200    0.0192193090    0.0003381711    
0.0841032810    0.0190989650    0.0003350180    
0.0843259420    0.0197816560    0.0003399030    
0.0845486030    0.0196590360    0.0003388482    
0.0847712640    0.0193163030    0.0003338346    
0.0849939250    0.0202057620    0.0003420287    
0.0852165860    0.0189874830    0.0003319916    
0.0854392470    0.0201388370    0.0003386712    
0.0856619080    0.0191535080    0.0003327148    
0.0858845690    0.0196500870    0.0003339650    
0.0861072300    0.0189325410    0.0003300737    
0.0863298910    0.0192127470    0.0003342485    
0.0865525520    0.0197110510    0.0003356319    
0.0867752130    0.0191243260    0.0003279313    
0.0869978740    0.0195327800    0.0003322593    
0.0872205350    0.0196465960    0.0003328020    
0.0874431960    0.0195789760    0.0003322290    
0.0876658570    0.0190422310    0.0003289015    
0.0878885180    0.0193127980    0.0003317978    
0.0881111790    0.0194224660    0.0003323115    
0.0883338400    0.0199619810    0.0003319628    
0.0885565010    0.0196507000    0.0003338308    
0.0887791620    0.0194979570    0.0003282187    
0.0890018230    0.0187289490    0.0003248012    
0.0892244840    0.0192787490    0.0003300943    
0.0894471450    0.0192731460    0.0003286522    
0.0896698060    0.0192003300    0.0003267934    
0.0898924670    0.0192889230    0.0003290648    
0.0901151280    0.0197973300    0.0003297723    
0.0903377890    0.0192978530    0.0003283107    
0.0905604500    0.0194531950    0.0003281166    
0.0907831110    0.0193675380    0.0003265790    
0.0910057720    0.0188510120    0.0003236732    
0.0912284330    0.0191141910    0.0003212583    
0.0914510940    0.0191619430    0.0003252462    
0.0916737550    0.0199623510    0.0003311458    
0.0918964160    0.0193421980    0.0003273171    
0.0921190770    0.0193693170    0.0003245849    
0.0923417380    0.0194777560    0.0003256258    
0.0925643990    0.0196263140    0.0003260653    
0.0927870600    0.0196674580    0.0003277454    
0.0930097210    0.0189741490    0.0003191751    
0.0932323820    0.0191070240    0.0003226452    
