# Diamond Light Source Ltd.
# Data extracted from: /dls/b21/data/2018/cm19678-3/processed/b21-386631_00381.dat
q(1/A)          Column          Error           
0.0035000000    2.0833475000    0.0245320510    
0.0037226610    1.9032477000    0.0229540310    
0.0039453220    1.6296288000    0.0193224540    
0.0041679830    1.3098080000    0.0142261230    
0.0043906440    0.9925104000    0.0118450140    
0.0046133050    0.7936402900    0.0101681930    
0.0048359660    0.5968004400    0.0083405396    
0.0050586270    0.4599046300    0.0071965594    
0.0052812880    0.4336764700    0.0066073606    
0.0055039490    0.3764365700    0.0058533102    
0.0057266100    0.3190005300    0.0052127332    
0.0059492710    0.2705329200    0.0048004271    
0.0061719320    0.2238419200    0.0042077334    
0.0063945930    0.1992411300    0.0040179056    
0.0066172539    0.1901776500    0.0036860010    
0.0068399149    0.1673476000    0.0034032303    
0.0070625759    0.1442713300    0.0031274777    
0.0072852369    0.1277504400    0.0028989303    
0.0075078979    0.1124281900    0.0027061684    
0.0077305589    0.0973419950    0.0024700999    
0.0079532199    0.0972839290    0.0024351440    
0.0081758809    0.0875528140    0.0023316349    
0.0083985419    0.0816735660    0.0021004175    
0.0086212029    0.0769741070    0.0020390939    
0.0088438639    0.0693642150    0.0019201282    
0.0090665249    0.0652508440    0.0017986977    
0.0092891859    0.0641181110    0.0018610385    
0.0095118469    0.0598467210    0.0017290675    
0.0097345079    0.0573464740    0.0016438471    
0.0099571689    0.0571753100    0.0016075455    
0.0101798300    0.0504860340    0.0015105833    
0.0104024910    0.0483043280    0.0014725834    
0.0106251520    0.0469606160    0.0014568875    
0.0108478130    0.0437224130    0.0013690019    
0.0110704740    0.0430894720    0.0012939140    
0.0112931350    0.0422486270    0.0012849900    
0.0115157960    0.0392851510    0.0012318787    
0.0117384570    0.0397506870    0.0012284891    
0.0119611180    0.0351297190    0.0011581925    
0.0121837790    0.0377237250    0.0011800193    
0.0124064400    0.0361696770    0.0011072927    
0.0126291010    0.0353029970    0.0010802542    
0.0128517620    0.0350144330    0.0010785165    
0.0130744230    0.0327295880    0.0010350005    
0.0132970840    0.0322158210    0.0010218238    
0.0135197450    0.0313312270    0.0009932667    
0.0137424060    0.0303730790    0.0009643462    
0.0139650670    0.0300887570    0.0009384426    
0.0141877280    0.0306922810    0.0009499022    
0.0144103890    0.0295861920    0.0009165480    
0.0146330500    0.0291836570    0.0009045120    
0.0148557110    0.0297456400    0.0009093507    
0.0150783720    0.0297481650    0.0009018737    
0.0153010330    0.0276395520    0.0008570661    
0.0155236940    0.0262613640    0.0008304572    
0.0157463550    0.0280473450    0.0008433623    
0.0159690160    0.0261990070    0.0008120064    
0.0161916770    0.0250585750    0.0007896627    
0.0164143380    0.0266523180    0.0008205570    
0.0166369990    0.0264578920    0.0007923514    
0.0168596600    0.0270661140    0.0007943461    
0.0170823210    0.0247207770    0.0007525778    
0.0173049820    0.0247833340    0.0007548321    
0.0175276430    0.0257313790    0.0007772447    
0.0177503040    0.0253949010    0.0007524622    
0.0179729650    0.0248281270    0.0007366391    
0.0181956260    0.0227499020    0.0006916174    
0.0184182870    0.0237439880    0.0007032362    
0.0186409480    0.0238978590    0.0007099766    
0.0188636090    0.0233899260    0.0006979736    
0.0190862700    0.0233168410    0.0006957926    
0.0193089310    0.0230993220    0.0006914601    
0.0195315920    0.0233704540    0.0006718533    
0.0197542530    0.0217339720    0.0006488476    
0.0199769140    0.0229155960    0.0006662524    
0.0201995750    0.0231607480    0.0006593181    
0.0204222360    0.0235600800    0.0006706859    
0.0206448970    0.0210618440    0.0006296241    
0.0208675580    0.0230199050    0.0006446863    
0.0210902190    0.0224540120    0.0006428565    
0.0213128800    0.0221890590    0.0006303812    
0.0215355410    0.0219957460    0.0006201523    
0.0217582020    0.0229049590    0.0006328399    
0.0219808630    0.0216590100    0.0006145791    
0.0222035240    0.0213881330    0.0006051899    
0.0224261850    0.0216819410    0.0006039093    
0.0226488460    0.0224842280    0.0006103628    
0.0228715070    0.0214329020    0.0005944418    
0.0230941680    0.0216802140    0.0005978616    
0.0233168290    0.0216226630    0.0005985548    
0.0235394900    0.0213749030    0.0005885478    
0.0237621510    0.0209453750    0.0005669201    
0.0239848120    0.0213629920    0.0005732063    
0.0242074730    0.0209012820    0.0005624399    
0.0244301340    0.0209641800    0.0005639283    
0.0246527950    0.0214932860    0.0005762876    
0.0248754560    0.0210105160    0.0005569732    
0.0250981170    0.0206000730    0.0005527359    
0.0253207780    0.0218729200    0.0005525509    
0.0255434390    0.0212872130    0.0005509205    
0.0257661000    0.0211381450    0.0005507640    
0.0259887610    0.0208317290    0.0005409470    
0.0262114220    0.0219487180    0.0005582187    
0.0264340830    0.0215765330    0.0005459353    
0.0266567440    0.0212015680    0.0005378268    
0.0268794050    0.0214212870    0.0005384000    
0.0271020660    0.0211542360    0.0005328675    
0.0273247270    0.0200521350    0.0005156853    
0.0275473880    0.0211216210    0.0005282056    
0.0277700490    0.0204418860    0.0005165651    
0.0279927100    0.0209846020    0.0005188109    
0.0282153710    0.0203084180    0.0005128650    
0.0284380320    0.0212386380    0.0005214389    
0.0286606930    0.0207885390    0.0005114686    
0.0288833540    0.0205896960    0.0005099835    
0.0291060150    0.0195168010    0.0004960474    
0.0293286760    0.0219678340    0.0005189413    
0.0295513370    0.0201847370    0.0004920181    
0.0297739980    0.0199819240    0.0004949297    
0.0299966590    0.0201697720    0.0004887578    
0.0302193200    0.0202011200    0.0004962656    
0.0304419810    0.0211320760    0.0005085059    
0.0306646420    0.0199213750    0.0004797894    
0.0308873030    0.0208608540    0.0004888517    
0.0311099640    0.0203129570    0.0004836418    
0.0313326250    0.0200343180    0.0004749923    
0.0315552860    0.0200023070    0.0004807636    
0.0317779470    0.0206622410    0.0004890557    
0.0320006080    0.0202646610    0.0004733236    
0.0322232690    0.0205015680    0.0004780752    
0.0324459300    0.0200208790    0.0004689103    
0.0326685910    0.0195170760    0.0004622097    
0.0328912520    0.0196024790    0.0004647539    
0.0331139130    0.0194714930    0.0004571730    
0.0333365740    0.0200519090    0.0004654432    
0.0335592350    0.0204523350    0.0004655478    
0.0337818960    0.0206631240    0.0004675681    
0.0340045570    0.0202916870    0.0004626107    
0.0342272170    0.0195041080    0.0004517552    
0.0344498780    0.0203022590    0.0004627314    
0.0346725390    0.0195572340    0.0004457507    
0.0348952000    0.0195908650    0.0004441015    
0.0351178610    0.0203801870    0.0004550328    
0.0353405220    0.0199432430    0.0004480779    
0.0355631830    0.0200231130    0.0004472834    
0.0357858440    0.0193436980    0.0004396295    
0.0360085050    0.0191893620    0.0004391952    
0.0362311660    0.0202276610    0.0004455605    
0.0364538270    0.0191220030    0.0004297351    
0.0366764880    0.0198271730    0.0004372696    
0.0368991490    0.0200096380    0.0004370626    
0.0371218100    0.0201990560    0.0004378701    
0.0373444710    0.0205152860    0.0004460899    
0.0375671320    0.0206393370    0.0004467849    
0.0377897930    0.0203463010    0.0004321183    
0.0380124540    0.0200076750    0.0004311959    
0.0382351150    0.0193200120    0.0004237212    
0.0384577760    0.0193500320    0.0004199588    
0.0386804370    0.0200814390    0.0004310870    
0.0389030980    0.0201977070    0.0004290592    
0.0391257590    0.0197985330    0.0004219144    
0.0393484200    0.0207371810    0.0004303468    
0.0395710810    0.0203901240    0.0004273054    
0.0397937420    0.0199871710    0.0004230622    
0.0400164030    0.0202313750    0.0004273704    
0.0402390640    0.0198192130    0.0004173622    
0.0404617250    0.0200550830    0.0004173616    
0.0406843860    0.0200697970    0.0004134808    
0.0409070470    0.0189072680    0.0004055076    
0.0411297080    0.0200529420    0.0004135726    
0.0413523690    0.0202936330    0.0004171197    
0.0415750300    0.0201341140    0.0004190063    
0.0417976910    0.0199087480    0.0004058786    
0.0420203520    0.0201670210    0.0004100377    
0.0422430130    0.0191019850    0.0004005745    
0.0424656740    0.0203673120    0.0004082454    
0.0426883350    0.0200162760    0.0004067206    
0.0429109960    0.0194596300    0.0004022784    
0.0431336570    0.0206611680    0.0004086716    
0.0433563180    0.0193580350    0.0003989864    
0.0435789790    0.0207463380    0.0004065565    
0.0438016400    0.0190880360    0.0003920912    
0.0440243010    0.0196496330    0.0003937810    
0.0442469620    0.0189274690    0.0003887929    
0.0444696230    0.0192280650    0.0003904629    
0.0446922840    0.0193899080    0.0003909383    
0.0449149450    0.0195424770    0.0003872266    
0.0451376060    0.0200360280    0.0003969282    
0.0453602670    0.0202725940    0.0003950789    
0.0455829280    0.0203179170    0.0003950630    
0.0458055890    0.0195608200    0.0003898930    
0.0460282500    0.0202221040    0.0003916483    
0.0462509110    0.0197391150    0.0003845363    
0.0464735720    0.0194614270    0.0003820375    
0.0466962330    0.0197371510    0.0003864832    
0.0469188940    0.0201371110    0.0003892728    
0.0471415550    0.0199567580    0.0003895160    
0.0473642160    0.0197565780    0.0003821310    
0.0475868770    0.0195022270    0.0003777771    
0.0478095380    0.0193464260    0.0003746185    
0.0480321990    0.0188994300    0.0003710767    
0.0482548600    0.0195801330    0.0003760546    
0.0484775210    0.0199340520    0.0003832055    
0.0487001820    0.0199269160    0.0003775283    
0.0489228430    0.0196268580    0.0003744738    
0.0491455040    0.0198495470    0.0003739876    
0.0493681650    0.0200488080    0.0003790900    
0.0495908260    0.0196292710    0.0003687915    
0.0498134870    0.0190373660    0.0003666460    
0.0500361480    0.0198569090    0.0003734640    
0.0502588090    0.0195525450    0.0003650380    
0.0504814700    0.0194655810    0.0003689867    
0.0507041310    0.0193674090    0.0003636792    
0.0509267920    0.0191079550    0.0003627294    
0.0511494530    0.0194586670    0.0003636023    
0.0513721140    0.0195401590    0.0003675717    
0.0515947750    0.0195303620    0.0003626072    
0.0518174360    0.0198744550    0.0003635841    
0.0520400970    0.0193898970    0.0003566344    
0.0522627580    0.0188068760    0.0003542168    
0.0524854190    0.0197580830    0.0003660160    
0.0527080800    0.0197415900    0.0003686959    
0.0529307410    0.0194895700    0.0003680554    
0.0531534020    0.0197412260    0.0003690755    
0.0533760630    0.0197816940    0.0003706101    
0.0535987240    0.0197349850    0.0003684440    
0.0538213850    0.0191109220    0.0003667725    
0.0540440460    0.0206596500    0.0003795396    
0.0542667070    0.0193124540    0.0003694853    
0.0544893680    0.0203732880    0.0003796997    
0.0547120290    0.0189085190    0.0003632896    
0.0549346900    0.0198926590    0.0003728199    
0.0551573510    0.0202064050    0.0003801717    
0.0553800120    0.0199557160    0.0003745943    
0.0556026730    0.0199932510    0.0003827204    
0.0558253340    0.0199868070    0.0003858629    
0.0560479950    0.0195696580    0.0003818152    
0.0562706560    0.0187576040    0.0003774234    
0.0564933170    0.0190384300    0.0003835401    
0.0567159780    0.0198819430    0.0003872453    
0.0569386390    0.0192578190    0.0003870967    
0.0571613000    0.0198230390    0.0003842800    
0.0573839610    0.0200520210    0.0003832841    
0.0576066220    0.0202073970    0.0003858313    
0.0578292830    0.0195396580    0.0003781476    
0.0580519440    0.0194112310    0.0003783643    
0.0582746050    0.0194889610    0.0003774493    
0.0584972660    0.0195721870    0.0003768065    
0.0587199270    0.0194073190    0.0003719816    
0.0589425880    0.0194134940    0.0003698647    
0.0591652490    0.0201203410    0.0003787537    
0.0593879100    0.0194784070    0.0003698950    
0.0596105710    0.0195775240    0.0003704438    
0.0598332320    0.0194644600    0.0003725298    
0.0600558930    0.0195408550    0.0003708803    
0.0602785540    0.0190359570    0.0003656706    
0.0605012150    0.0190817310    0.0003653386    
0.0607238760    0.0196042410    0.0003676082    
0.0609465370    0.0199141300    0.0003734191    
0.0611691980    0.0194715490    0.0003698315    
0.0613918590    0.0195091260    0.0003661467    
0.0616145200    0.0185615620    0.0003597580    
0.0618371810    0.0199147140    0.0003689808    
0.0620598420    0.0200448550    0.0003705662    
0.0622825030    0.0195751190    0.0003717986    
0.0625051640    0.0199902070    0.0003704432    
0.0627278250    0.0199284750    0.0003691091    
0.0629504860    0.0199151560    0.0003659860    
0.0631731470    0.0195010800    0.0003666420    
0.0633958080    0.0199702430    0.0003731615    
0.0636184690    0.0190178420    0.0003692263    
0.0638411300    0.0195014260    0.0003724876    
0.0640637910    0.0201013940    0.0003808339    
0.0642864520    0.0198133420    0.0003772772    
0.0645091130    0.0188681720    0.0003713948    
0.0647317740    0.0200307600    0.0003830877    
0.0649544350    0.0197966390    0.0003804233    
0.0651770960    0.0198921760    0.0003792600    
0.0653997570    0.0202019670    0.0003813729    
0.0656224180    0.0196029850    0.0003764935    
0.0658450790    0.0203992490    0.0003785436    
0.0660677400    0.0194822480    0.0003715119    
0.0662904010    0.0190796320    0.0003720421    
0.0665130620    0.0194466580    0.0003739742    
0.0667357230    0.0189076490    0.0003753114    
0.0669583840    0.0194695440    0.0003795730    
0.0671810450    0.0200162760    0.0003827407    
0.0674037060    0.0198298340    0.0003874079    
0.0676263670    0.0194286600    0.0003806615    
0.0678490280    0.0192727880    0.0003768128    
0.0680716890    0.0202910720    0.0003874996    
0.0682943500    0.0193278250    0.0003740480    
0.0685170110    0.0191274150    0.0003683120    
0.0687396720    0.0194139090    0.0003700742    
0.0689623330    0.0199149350    0.0003736313    
0.0691849940    0.0196161600    0.0003733872    
0.0694076550    0.0201987030    0.0003786887    
0.0696303160    0.0195866500    0.0003699548    
0.0698529770    0.0190732100    0.0003643085    
0.0700756380    0.0192715510    0.0003614969    
0.0702982990    0.0195272730    0.0003678503    
0.0705209600    0.0199156480    0.0003688083    
0.0707436210    0.0193338820    0.0003617129    
0.0709662820    0.0195412050    0.0003679822    
0.0711889430    0.0191384930    0.0003596978    
0.0714116040    0.0200380570    0.0003688055    
0.0716342650    0.0197544730    0.0003646997    
0.0718569260    0.0200965800    0.0003663625    
0.0720795870    0.0194784720    0.0003621435    
0.0723022480    0.0197472410    0.0003651890    
0.0725249090    0.0200352560    0.0003634373    
0.0727475700    0.0192456920    0.0003592465    
0.0729702310    0.0195074640    0.0003587968    
0.0731928920    0.0196104880    0.0003611808    
0.0734155530    0.0193467890    0.0003580284    
0.0736382140    0.0192562470    0.0003548973    
0.0738608750    0.0193468390    0.0003580293    
0.0740835360    0.0191717850    0.0003555211    
0.0743061970    0.0195072090    0.0003535679    
0.0745288580    0.0192105620    0.0003544770    
0.0747515190    0.0187940130    0.0003513053    
0.0749741800    0.0193307530    0.0003529885    
0.0751968410    0.0195438380    0.0003577154    
0.0754195020    0.0199755310    0.0003595258    
0.0756421630    0.0193065480    0.0003505649    
0.0758648240    0.0193291260    0.0003516131    
0.0760874850    0.0192083270    0.0003503443    
0.0763101460    0.0194265940    0.0003519911    
0.0765328070    0.0195397960    0.0003566274    
0.0767554680    0.0197956070    0.0003565185    
0.0769781290    0.0198988100    0.0003553926    
0.0772007900    0.0192748560    0.0003469710    
0.0774234510    0.0190083270    0.0003465236    
0.0776461120    0.0192749330    0.0003486143    
0.0778687730    0.0200184310    0.0003541006    
0.0780914340    0.0194541720    0.0003515687    
0.0783140950    0.0200601270    0.0003513378    
0.0785367560    0.0192127950    0.0003493813    
0.0787594170    0.0197311910    0.0003508911    
0.0789820780    0.0192145140    0.0003444922    
0.0792047390    0.0195828150    0.0003489152    
0.0794274000    0.0195045990    0.0003496931    
0.0796500610    0.0197896800    0.0003488015    
0.0798727220    0.0193420220    0.0003445155    
0.0800953830    0.0197967940    0.0003477406    
0.0803180440    0.0193798850    0.0003464563    
0.0805407050    0.0194365890    0.0003466401    
0.0807633660    0.0193264740    0.0003453359    
0.0809860270    0.0195331370    0.0003458954    
0.0812086880    0.0205574610    0.0003517824    
0.0814313490    0.0190991350    0.0003406218    
0.0816540100    0.0201249460    0.0003488535    
0.0818766710    0.0188258240    0.0003381763    
0.0820993320    0.0193625370    0.0003423380    
0.0823219930    0.0198521330    0.0003480688    
0.0825446540    0.0188550150    0.0003367504    
0.0827673150    0.0189229470    0.0003350900    
0.0829899760    0.0197011510    0.0003413022    
0.0832126370    0.0194604250    0.0003407300    
0.0834352980    0.0194982210    0.0003402981    
0.0836579590    0.0191986550    0.0003369222    
0.0838806200    0.0194022950    0.0003397643    
0.0841032810    0.0194324570    0.0003379175    
0.0843259420    0.0196516760    0.0003387716    
0.0845486030    0.0197042650    0.0003392249    
0.0847712640    0.0195513690    0.0003358469    
0.0849939250    0.0194805820    0.0003358222    
0.0852165860    0.0195142390    0.0003365525    
0.0854392470    0.0203764980    0.0003406508    
0.0856619080    0.0194005580    0.0003348409    
0.0858845690    0.0194045500    0.0003318593    
0.0861072300    0.0194777480    0.0003347799    
0.0863298910    0.0192112890    0.0003342231    
0.0865525520    0.0190695240    0.0003301123    
0.0867752130    0.0191622340    0.0003282437    
0.0869978740    0.0189661570    0.0003273922    
0.0872205350    0.0199889650    0.0003356765    
0.0874431960    0.0194140170    0.0003308140    
0.0876658570    0.0190180650    0.0003286802    
0.0878885180    0.0195165300    0.0003335306    
0.0881111790    0.0193811960    0.0003319457    
0.0883338400    0.0191490210    0.0003251206    
0.0885565010    0.0194110370    0.0003317763    
0.0887791620    0.0193583620    0.0003270292    
0.0890018230    0.0196456000    0.0003326420    
0.0892244840    0.0193564080    0.0003307459    
0.0894471450    0.0189018300    0.0003254586    
0.0896698060    0.0195770680    0.0003299714    
0.0898924670    0.0198712480    0.0003339823    
0.0901151280    0.0192410620    0.0003250940    
0.0903377890    0.0194974520    0.0003299916    
0.0905604500    0.0193023030    0.0003268292    
0.0907831110    0.0191953690    0.0003251118    
0.0910057720    0.0197275990    0.0003311007    
0.0912284330    0.0193664980    0.0003233593    
0.0914510940    0.0191052880    0.0003247527    
0.0916737550    0.0194884560    0.0003271791    
0.0918964160    0.0187148710    0.0003219532    
0.0921190770    0.0192753870    0.0003237846    
0.0923417380    0.0197103430    0.0003275517    
0.0925643990    0.0191698200    0.0003222387    
0.0927870600    0.0194092880    0.0003255749    
0.0930097210    0.0190263960    0.0003196021    
0.0932323820    0.0195414020    0.0003262797    
