# Diamond Light Source Ltd.
# Data extracted from: /dls/b21/data/2018/cm19678-3/processed/b21-386631_00377.dat
q(1/A)          Column          Error           
0.0035000000    2.0685389000    0.0244408450    
0.0037226610    1.9079045000    0.0229784640    
0.0039453220    1.5970492000    0.0191253090    
0.0041679830    1.3058414000    0.0142023210    
0.0043906440    0.9725535000    0.0117234700    
0.0046133050    0.7820590800    0.0100921350    
0.0048359660    0.6011563500    0.0083695994    
0.0050586270    0.4713546000    0.0072844416    
0.0052812880    0.4235764700    0.0065289353    
0.0055039490    0.3855981800    0.0059231740    
0.0057266100    0.3194106500    0.0052152587    
0.0059492710    0.2695107400    0.0047905925    
0.0061719320    0.2259851800    0.0042271615    
0.0063945930    0.1958571800    0.0039830096    
0.0066172539    0.1851896400    0.0036367665    
0.0068399149    0.1677790300    0.0034070759    
0.0070625759    0.1535787200    0.0032262729    
0.0072852369    0.1279073500    0.0029002518    
0.0075078979    0.1113507800    0.0026927449    
0.0077305589    0.0970605940    0.0024661372    
0.0079532199    0.0983500270    0.0024480637    
0.0081758809    0.0882079660    0.0023399726    
0.0083985419    0.0828897530    0.0021156638    
0.0086212029    0.0767337830    0.0020355866    
0.0088438639    0.0747090170    0.0019924176    
0.0090665249    0.0655771940    0.0018029053    
0.0092891859    0.0647458480    0.0018698309    
0.0095118469    0.0596280500    0.0017256330    
0.0097345079    0.0569043960    0.0016372400    
0.0099571689    0.0525936990    0.0015415486    
0.0101798300    0.0524581580    0.0015395611    
0.0104024910    0.0471222280    0.0014542235    
0.0106251520    0.0440088410    0.0014101342    
0.0108478130    0.0464082450    0.0014102007    
0.0110704740    0.0441634340    0.0013097325    
0.0112931350    0.0415320060    0.0012738441    
0.0115157960    0.0393499690    0.0012326997    
0.0117384570    0.0373470060    0.0011905791    
0.0119611180    0.0382869280    0.0012089269    
0.0121837790    0.0373797040    0.0011744408    
0.0124064400    0.0359549200    0.0011038261    
0.0126291010    0.0357544680    0.0010869678    
0.0128517620    0.0341399070    0.0010647945    
0.0130744230    0.0317376680    0.0010190351    
0.0132970840    0.0316548400    0.0010127281    
0.0135197450    0.0318879430    0.0010018940    
0.0137424060    0.0311286900    0.0009761136    
0.0139650670    0.0321567070    0.0009700022    
0.0141877280    0.0303592980    0.0009445861    
0.0144103890    0.0298890750    0.0009210820    
0.0146330500    0.0299591460    0.0009163061    
0.0148557110    0.0280687880    0.0008832079    
0.0150783720    0.0290827620    0.0008915893    
0.0153010330    0.0288529500    0.0008755386    
0.0155236940    0.0275394650    0.0008502913    
0.0157463550    0.0267455680    0.0008234279    
0.0159690160    0.0257378630    0.0008047012    
0.0161916770    0.0268168890    0.0008167686    
0.0164143380    0.0258862500    0.0008085506    
0.0166369990    0.0241722630    0.0007572342    
0.0168596600    0.0260787340    0.0007795993    
0.0170823210    0.0250794230    0.0007578975    
0.0173049820    0.0241319830    0.0007447292    
0.0175276430    0.0254181360    0.0007723772    
0.0177503040    0.0237597980    0.0007277197    
0.0179729650    0.0249950720    0.0007389948    
0.0181956260    0.0235834780    0.0007040629    
0.0184182870    0.0234866270    0.0006993041    
0.0186409480    0.0236583630    0.0007062984    
0.0188636090    0.0242570380    0.0007106812    
0.0190862700    0.0237661140    0.0007023530    
0.0193089310    0.0238783100    0.0007029116    
0.0195315920    0.0234789190    0.0006733042    
0.0197542530    0.0224048660    0.0006586818    
0.0199769140    0.0226953440    0.0006629381    
0.0201995750    0.0218025000    0.0006395923    
0.0204222360    0.0229800420    0.0006622738    
0.0206448970    0.0215632220    0.0006369735    
0.0208675580    0.0222906660    0.0006342925    
0.0210902190    0.0225941090    0.0006447570    
0.0213128800    0.0216449510    0.0006225059    
0.0215355410    0.0228277950    0.0006316731    
0.0217582020    0.0226355330    0.0006290075    
0.0219808630    0.0206759010    0.0006003743    
0.0222035240    0.0218949380    0.0006122213    
0.0224261850    0.0213724110    0.0005994884    
0.0226488460    0.0221789740    0.0006061096    
0.0228715070    0.0211294600    0.0005901255    
0.0230941680    0.0213602120    0.0005933392    
0.0233168290    0.0212017330    0.0005926065    
0.0235394900    0.0224859660    0.0006035550    
0.0237621510    0.0216904040    0.0005768235    
0.0239848120    0.0225708870    0.0005890954    
0.0242074730    0.0217117030    0.0005731495    
0.0244301340    0.0206542630    0.0005596560    
0.0246527950    0.0220734720    0.0005839216    
0.0248754560    0.0207086710    0.0005528705    
0.0250981170    0.0211717840    0.0005602648    
0.0253207780    0.0209589940    0.0005407985    
0.0255434390    0.0206533320    0.0005425702    
0.0257661000    0.0212892700    0.0005526419    
0.0259887610    0.0199123790    0.0005287922    
0.0262114220    0.0205083280    0.0005395061    
0.0264340830    0.0199816760    0.0005252882    
0.0266567440    0.0207447840    0.0005319175    
0.0268794050    0.0211439610    0.0005348190    
0.0271020660    0.0207852520    0.0005281163    
0.0273247270    0.0203772430    0.0005197667    
0.0275473880    0.0203226410    0.0005180371    
0.0277700490    0.0203832280    0.0005157419    
0.0279927100    0.0204137710    0.0005116249    
0.0282153710    0.0208458040    0.0005195241    
0.0284380320    0.0210271580    0.0005187544    
0.0286606930    0.0204423130    0.0005071114    
0.0288833540    0.0200654530    0.0005033696    
0.0291060150    0.0204559160    0.0005077614    
0.0293286760    0.0202329420    0.0004979497    
0.0295513370    0.0204421280    0.0004950669    
0.0297739980    0.0207354180    0.0005040952    
0.0299966590    0.0208501140    0.0004968540    
0.0302193200    0.0210113010    0.0005060394    
0.0304419810    0.0201712690    0.0004967329    
0.0306646420    0.0211742120    0.0004945680    
0.0308873030    0.0201213280    0.0004800326    
0.0311099640    0.0206518870    0.0004875830    
0.0313326250    0.0197015050    0.0004709560    
0.0315552860    0.0194184010    0.0004736196    
0.0317779470    0.0197299660    0.0004778198    
0.0320006080    0.0204129850    0.0004749775    
0.0322232690    0.0197818290    0.0004695342    
0.0324459300    0.0201023840    0.0004697896    
0.0326685910    0.0210647780    0.0004801108    
0.0328912520    0.0206207110    0.0004765963    
0.0331139130    0.0202594050    0.0004662574    
0.0333365740    0.0201859780    0.0004669229    
0.0335592350    0.0202022160    0.0004626192    
0.0337818960    0.0198210230    0.0004578690    
0.0340045570    0.0201060390    0.0004604168    
0.0342272170    0.0206694950    0.0004649823    
0.0344498780    0.0200955200    0.0004602966    
0.0346725390    0.0201096550    0.0004519309    
0.0348952000    0.0203696710    0.0004527712    
0.0351178610    0.0195917030    0.0004460732    
0.0353405220    0.0200979670    0.0004497416    
0.0355631830    0.0204562760    0.0004520241    
0.0357858440    0.0208658140    0.0004565266    
0.0360085050    0.0197761820    0.0004457896    
0.0362311660    0.0188574860    0.0004301373    
0.0364538270    0.0198979770    0.0004382984    
0.0366764880    0.0197245030    0.0004360670    
0.0368991490    0.0193734400    0.0004299904    
0.0371218100    0.0199839140    0.0004354631    
0.0373444710    0.0199851740    0.0004402192    
0.0375671320    0.0204297740    0.0004444407    
0.0377897930    0.0197802270    0.0004259974    
0.0380124540    0.0195089830    0.0004257209    
0.0382351150    0.0192581670    0.0004229756    
0.0384577760    0.0194988150    0.0004215036    
0.0386804370    0.0197790540    0.0004277615    
0.0389030980    0.0191981590    0.0004182417    
0.0391257590    0.0200619260    0.0004246445    
0.0393484200    0.0194450080    0.0004166575    
0.0395710810    0.0200076970    0.0004232124    
0.0397937420    0.0200077110    0.0004232127    
0.0400164030    0.0201437570    0.0004263766    
0.0402390640    0.0194615010    0.0004135133    
0.0404617250    0.0195104080    0.0004115900    
0.0406843860    0.0196206280    0.0004087631    
0.0409070470    0.0200402400    0.0004174144    
0.0411297080    0.0200721850    0.0004137056    
0.0413523690    0.0201757990    0.0004158412    
0.0415750300    0.0202585070    0.0004202323    
0.0417976910    0.0196460240    0.0004031279    
0.0420203520    0.0202356570    0.0004106700    
0.0422430130    0.0194066570    0.0004036926    
0.0424656740    0.0194201360    0.0003985767    
0.0426883350    0.0194316280    0.0004006734    
0.0429109960    0.0198275860    0.0004059996    
0.0431336570    0.0195879670    0.0003978534    
0.0433563180    0.0200260290    0.0004057478    
0.0435789790    0.0203654460    0.0004027435    
0.0438016400    0.0200401300    0.0004016873    
0.0440243010    0.0206058720    0.0004031850    
0.0442469620    0.0203505790    0.0004030806    
0.0444696230    0.0196975850    0.0003951389    
0.0446922840    0.0198407960    0.0003953951    
0.0449149450    0.0192218180    0.0003839759    
0.0451376060    0.0208550960    0.0004048961    
0.0453602670    0.0196427310    0.0003888316    
0.0455829280    0.0195666130    0.0003876287    
0.0458055890    0.0204325390    0.0003984230    
0.0460282500    0.0196318390    0.0003858291    
0.0462509110    0.0194333260    0.0003814859    
0.0464735720    0.0202799710    0.0003899273    
0.0466962330    0.0204345090    0.0003931895    
0.0469188940    0.0196568170    0.0003845417    
0.0471415550    0.0198440490    0.0003883532    
0.0473642160    0.0197577240    0.0003820817    
0.0475868770    0.0202861480    0.0003852340    
0.0478095380    0.0190429920    0.0003716104    
0.0480321990    0.0198475990    0.0003802110    
0.0482548600    0.0198988550    0.0003790430    
0.0484775210    0.0193975240    0.0003779535    
0.0487001820    0.0200493240    0.0003786262    
0.0489228430    0.0195778000    0.0003739464    
0.0491455040    0.0199700690    0.0003750620    
0.0493681650    0.0202431120    0.0003808624    
0.0495908260    0.0192213250    0.0003648815    
0.0498134870    0.0194619560    0.0003706535    
0.0500361480    0.0195838060    0.0003708283    
0.0502588090    0.0198393240    0.0003676471    
0.0504814700    0.0195013830    0.0003692676    
0.0507041310    0.0198528310    0.0003681504    
0.0509267920    0.0199417130    0.0003705000    
0.0511494530    0.0200026770    0.0003685916    
0.0513721140    0.0199971040    0.0003717859    
0.0515947750    0.0199212700    0.0003661602    
0.0518174360    0.0203136790    0.0003675217    
0.0520400970    0.0198559050    0.0003608376    
0.0522627580    0.0203015400    0.0003679651    
0.0524854190    0.0194129270    0.0003627476    
0.0527080800    0.0199143250    0.0003702468    
0.0529307410    0.0194278240    0.0003674139    
0.0531534020    0.0200591900    0.0003719771    
0.0533760630    0.0196921480    0.0003697119    
0.0535987240    0.0198800320    0.0003697371    
0.0538213850    0.0187741540    0.0003634691    
0.0540440460    0.0195378670    0.0003690333    
0.0542667070    0.0197939570    0.0003740038    
0.0544893680    0.0190934790    0.0003675222    
0.0547120290    0.0200887500    0.0003743968    
0.0549346900    0.0201518040    0.0003751812    
0.0551573510    0.0199855060    0.0003780282    
0.0553800120    0.0203430560    0.0003781525    
0.0556026730    0.0199722850    0.0003824593    
0.0558253340    0.0190421600    0.0003765744    
0.0560479950    0.0193772970    0.0003798740    
0.0562706560    0.0198676670    0.0003883694    
0.0564933170    0.0198898000    0.0003919600    
0.0567159780    0.0196569980    0.0003849875    
0.0569386390    0.0196484360    0.0003909411    
0.0571613000    0.0186848130    0.0003730254    
0.0573839610    0.0188665270    0.0003717227    
0.0576066220    0.0200979070    0.0003847238    
0.0578292830    0.0193066900    0.0003758271    
0.0580519440    0.0203045740    0.0003869117    
0.0582746050    0.0188177860    0.0003708343    
0.0584972660    0.0197327990    0.0003782896    
0.0587199270    0.0200070280    0.0003776256    
0.0589425880    0.0193228260    0.0003689417    
0.0591652490    0.0197576050    0.0003752647    
0.0593879100    0.0192264790    0.0003674371    
0.0596105710    0.0195363010    0.0003699951    
0.0598332320    0.0193300130    0.0003711823    
0.0600558930    0.0196543080    0.0003718967    
0.0602785540    0.0197602410    0.0003725034    
0.0605012150    0.0191735970    0.0003661591    
0.0607238760    0.0195015720    0.0003665865    
0.0609465370    0.0194178410    0.0003686784    
0.0611691980    0.0198165040    0.0003730341    
0.0613918590    0.0193380890    0.0003644806    
0.0616145200    0.0197685780    0.0003712123    
0.0618371810    0.0197307280    0.0003672144    
0.0620598420    0.0196070690    0.0003664393    
0.0622825030    0.0200489790    0.0003762124    
0.0625051640    0.0192976300    0.0003639120    
0.0627278250    0.0198264960    0.0003681053    
0.0629504860    0.0193037310    0.0003602671    
0.0631731470    0.0196740860    0.0003682066    
0.0633958080    0.0193435440    0.0003672016    
0.0636184690    0.0194418020    0.0003732601    
0.0638411300    0.0200713730    0.0003778319    
0.0640637910    0.0203114280    0.0003827579    
0.0642864520    0.0194695410    0.0003739306    
0.0645091130    0.0193445440    0.0003759945    
0.0647317740    0.0193798980    0.0003767529    
0.0649544350    0.0195565240    0.0003780494    
0.0651770960    0.0200593760    0.0003807903    
0.0653997570    0.0192383450    0.0003721073    
0.0656224180    0.0195028180    0.0003754710    
0.0658450790    0.0194237230    0.0003693230    
0.0660677400    0.0197593800    0.0003740858    
0.0662904010    0.0200164050    0.0003810058    
0.0665130620    0.0193542370    0.0003730255    
0.0667357230    0.0191548880    0.0003776975    
0.0669583840    0.0192562550    0.0003774285    
0.0671810450    0.0198855740    0.0003814287    
0.0674037060    0.0196722430    0.0003858044    
0.0676263670    0.0197282110    0.0003835242    
0.0678490280    0.0192077790    0.0003761173    
0.0680716890    0.0194117240    0.0003789502    
0.0682943500    0.0195026320    0.0003756763    
0.0685170110    0.0194758640    0.0003715929    
0.0687396720    0.0192949380    0.0003688802    
0.0689623330    0.0189345830    0.0003642613    
0.0691849940    0.0201286310    0.0003781734    
0.0694076550    0.0200290780    0.0003770357    
0.0696303160    0.0199506940    0.0003733180    
0.0698529770    0.0192480460    0.0003659166    
0.0700756380    0.0192654610    0.0003613827    
0.0702982990    0.0191470290    0.0003641937    
0.0705209600    0.0206672210    0.0003756435    
0.0707436210    0.0197201450    0.0003652505    
0.0709662820    0.0192094460    0.0003647875    
0.0711889430    0.0194500810    0.0003625568    
0.0714116040    0.0195227890    0.0003639753    
0.0716342650    0.0201924650    0.0003686623    
0.0718569260    0.0192756710    0.0003587452    
0.0720795870    0.0199502070    0.0003664446    
0.0723022480    0.0194371890    0.0003622535    
0.0725249090    0.0192248680    0.0003559550    
0.0727475700    0.0195144620    0.0003616891    
0.0729702310    0.0197651870    0.0003611021    
0.0731928920    0.0193382900    0.0003586087    
0.0734155530    0.0195857450    0.0003601757    
0.0736382140    0.0188055250    0.0003506639    
0.0738608750    0.0194533260    0.0003589566    
0.0740835360    0.0196270750    0.0003596609    
0.0743061970    0.0196035470    0.0003543839    
0.0745288580    0.0201656970    0.0003631249    
0.0747515190    0.0199303260    0.0003617125    
0.0749741800    0.0192859820    0.0003525238    
0.0751968410    0.0199238330    0.0003611192    
0.0754195020    0.0199756870    0.0003594703    
0.0756421630    0.0193640820    0.0003510314    
0.0758648240    0.0191631650    0.0003500450    
0.0760874850    0.0189914530    0.0003483058    
0.0763101460    0.0190060330    0.0003481052    
0.0765328070    0.0199370470    0.0003601774    
0.0767554680    0.0188586170    0.0003479236    
0.0769781290    0.0196831270    0.0003534054    
0.0772007900    0.0198556940    0.0003521044    
0.0774234510    0.0197285640    0.0003529718    
0.0776461120    0.0192877510    0.0003486751    
0.0778687730    0.0193108050    0.0003477308    
0.0780914340    0.0186604490    0.0003442676    
0.0783140950    0.0200414860    0.0003511190    
0.0785367560    0.0191813180    0.0003490398    
0.0787594170    0.0193693830    0.0003476042    
0.0789820780    0.0194307190    0.0003463702    
0.0792047390    0.0197506420    0.0003503517    
0.0794274000    0.0195360410    0.0003499195    
0.0796500610    0.0192303020    0.0003437821    
0.0798727220    0.0196978450    0.0003476150    
0.0800953830    0.0189661870    0.0003403136    
0.0803180440    0.0192808860    0.0003455156    
0.0805407050    0.0192141410    0.0003445963    
0.0807633660    0.0201408050    0.0003524806    
0.0809860270    0.0199494670    0.0003495069    
0.0812086880    0.0192511090    0.0003403679    
0.0814313490    0.0191356090    0.0003408930    
0.0816540100    0.0195080170    0.0003434106    
0.0818766710    0.0194636010    0.0003438026    
0.0820993320    0.0192656570    0.0003414266    
0.0823219930    0.0202546120    0.0003515239    
0.0825446540    0.0199673750    0.0003464867    
0.0827673150    0.0200677640    0.0003450230    
0.0829899760    0.0196653710    0.0003409383    
0.0832126370    0.0198538570    0.0003441026    
0.0834352980    0.0191595720    0.0003372767    
0.0836579590    0.0197068340    0.0003412982    
0.0838806200    0.0194437470    0.0003400733    
0.0841032810    0.0191678470    0.0003355558    
0.0843259420    0.0197680670    0.0003397197    
0.0845486030    0.0197330680    0.0003394191    
0.0847712640    0.0192164580    0.0003329054    
0.0849939250    0.0195149370    0.0003360651    
0.0852165860    0.0188814010    0.0003309981    
0.0854392470    0.0193452930    0.0003318667    
0.0856619080    0.0190593430    0.0003318309    
0.0858845690    0.0193927450    0.0003317060    
0.0861072300    0.0194543360    0.0003345258    
0.0863298910    0.0192924090    0.0003348751    
0.0865525520    0.0193605620    0.0003325693    
0.0867752130    0.0201061190    0.0003361776    
0.0869978740    0.0191466020    0.0003288940    
0.0872205350    0.0201967890    0.0003373637    
0.0874431960    0.0192275530    0.0003291694    
0.0876658570    0.0189268760    0.0003278395    
0.0878885180    0.0189861360    0.0003289153    
0.0881111790    0.0197729170    0.0003352305    
0.0883338400    0.0191595250    0.0003251583    
0.0885565010    0.0192575100    0.0003304094    
0.0887791620    0.0187005420    0.0003213740    
0.0890018230    0.0196562840    0.0003326798    
0.0892244840    0.0190904040    0.0003284135    
0.0894471450    0.0194056470    0.0003297154    
0.0896698060    0.0197654780    0.0003315030    
0.0898924670    0.0194946040    0.0003307498    
0.0901151280    0.0199048840    0.0003306021    
0.0903377890    0.0191674590    0.0003271355    
0.0905604500    0.0192242850    0.0003261165    
0.0907831110    0.0189856310    0.0003232797    
0.0910057720    0.0192102760    0.0003266789    
0.0912284330    0.0194899150    0.0003243368    
0.0914510940    0.0193862090    0.0003270799    
0.0916737550    0.0196909580    0.0003288226    
0.0918964160    0.0198107860    0.0003311933    
0.0921190770    0.0193780390    0.0003245944    
0.0923417380    0.0189858200    0.0003214244    
0.0925643990    0.0196944340    0.0003265667    
0.0927870600    0.0194195320    0.0003256093    
0.0930097210    0.0191438230    0.0003205362    
0.0932323820    0.0191376610    0.0003228405    
