# Diamond Light Source Ltd.
# Data extracted from: /dls/b21/data/2018/cm19678-3/processed/b21-386631_00383.dat
q(1/A)          Column          Error           
0.0035000000    2.0931030000    0.0245890320    
0.0037226610    1.8965437000    0.0229132060    
0.0039453220    1.6563818000    0.0194801050    
0.0041679830    1.2938522000    0.0141389840    
0.0043906440    0.9603906000    0.0116515880    
0.0046133050    0.7752468800    0.0100495140    
0.0048359660    0.5832607300    0.0082452549    
0.0050586270    0.4547101300    0.0071556892    
0.0052812880    0.4199723800    0.0065020241    
0.0055039490    0.3754235400    0.0058453366    
0.0057266100    0.3200977500    0.0052216077    
0.0059492710    0.2762312700    0.0048506436    
0.0061719320    0.2236766600    0.0042061132    
0.0063945930    0.2018275600    0.0040438366    
0.0066172539    0.1786698900    0.0035726834    
0.0068399149    0.1698337600    0.0034283625    
0.0070625759    0.1431820500    0.0031155995    
0.0072852369    0.1274832700    0.0028958517    
0.0075078979    0.1212831200    0.0028106743    
0.0077305589    0.1034186800    0.0025459919    
0.0079532199    0.0956351230    0.0024143818    
0.0081758809    0.0889160740    0.0023496803    
0.0083985419    0.0833454540    0.0021217732    
0.0086212029    0.0729745470    0.0019853804    
0.0088438639    0.0737735520    0.0019801859    
0.0090665249    0.0640092520    0.0017814746    
0.0092891859    0.0639540380    0.0018586265    
0.0095118469    0.0593452890    0.0017217815    
0.0097345079    0.0547530780    0.0016062216    
0.0099571689    0.0541905360    0.0015649983    
0.0101798300    0.0494901150    0.0014955861    
0.0104024910    0.0482579100    0.0014718524    
0.0106251520    0.0463715770    0.0014476987    
0.0108478130    0.0486074990    0.0014434334    
0.0110704740    0.0453415900    0.0013272762    
0.0112931350    0.0418173930    0.0012783950    
0.0115157960    0.0401723350    0.0012456912    
0.0117384570    0.0383067570    0.0012059514    
0.0119611180    0.0367704890    0.0011849124    
0.0121837790    0.0378701750    0.0011822889    
0.0124064400    0.0357956620    0.0011015353    
0.0126291010    0.0347730130    0.0010720979    
0.0128517620    0.0366410800    0.0011032667    
0.0130744230    0.0322703540    0.0010276974    
0.0132970840    0.0318907100    0.0010166387    
0.0135197450    0.0325897430    0.0010130031    
0.0137424060    0.0299740970    0.0009579763    
0.0139650670    0.0299414640    0.0009361280    
0.0141877280    0.0305737190    0.0009480508    
0.0144103890    0.0289322230    0.0009063474    
0.0146330500    0.0285940330    0.0008953139    
0.0148557110    0.0283547600    0.0008878220    
0.0150783720    0.0284075050    0.0008813031    
0.0153010330    0.0284093720    0.0008689060    
0.0155236940    0.0284401570    0.0008642070    
0.0157463550    0.0281732500    0.0008452398    
0.0159690160    0.0278591590    0.0008373252    
0.0161916770    0.0262273120    0.0008078551    
0.0164143380    0.0268283100    0.0008232487    
0.0166369990    0.0261011310    0.0007869787    
0.0168596600    0.0245009350    0.0007557555    
0.0170823210    0.0259342310    0.0007708150    
0.0173049820    0.0236560700    0.0007374540    
0.0175276430    0.0240637130    0.0007516241    
0.0177503040    0.0243685250    0.0007370877    
0.0179729650    0.0244995160    0.0007317365    
0.0181956260    0.0244101670    0.0007163985    
0.0184182870    0.0245763330    0.0007154447    
0.0186409480    0.0240236550    0.0007118315    
0.0188636090    0.0248887610    0.0007199781    
0.0190862700    0.0231500050    0.0006932879    
0.0193089310    0.0240092890    0.0007049370    
0.0195315920    0.0230027520    0.0006665365    
0.0197542530    0.0226630510    0.0006625604    
0.0199769140    0.0228567610    0.0006653860    
0.0201995750    0.0212831910    0.0006320191    
0.0204222360    0.0225092830    0.0006555484    
0.0206448970    0.0232256420    0.0006611654    
0.0208675580    0.0220984100    0.0006316410    
0.0210902190    0.0212754240    0.0006257478    
0.0213128800    0.0223137150    0.0006321394    
0.0215355410    0.0223272490    0.0006247982    
0.0217582020    0.0229042350    0.0006328199    
0.0219808630    0.0217629550    0.0006160424    
0.0222035240    0.0219354140    0.0006128741    
0.0224261850    0.0217317160    0.0006045925    
0.0226488460    0.0222681260    0.0006074129    
0.0228715070    0.0215806010    0.0005964770    
0.0230941680    0.0205584580    0.0005821800    
0.0233168290    0.0220196240    0.0006040146    
0.0235394900    0.0217631440    0.0005938594    
0.0237621510    0.0209447130    0.0005669021    
0.0239848120    0.0212392790    0.0005715351    
0.0242074730    0.0223081210    0.0005810510    
0.0244301340    0.0214489250    0.0005704017    
0.0246527950    0.0213071920    0.0005737783    
0.0248754560    0.0205816820    0.0005512511    
0.0250981170    0.0219193270    0.0005701511    
0.0253207780    0.0207695440    0.0005384254    
0.0255434390    0.0210869340    0.0005483140    
0.0257661000    0.0201760300    0.0005380753    
0.0259887610    0.0209434430    0.0005423870    
0.0262114220    0.0209258650    0.0005450479    
0.0264340830    0.0207056340    0.0005347955    
0.0266567440    0.0208734700    0.0005336407    
0.0268794050    0.0215965210    0.0005405892    
0.0271020660    0.0211267230    0.0005325125    
0.0273247270    0.0214174430    0.0005329437    
0.0275473880    0.0207114780    0.0005230438    
0.0277700490    0.0203890260    0.0005158887    
0.0279927100    0.0218176520    0.0005290002    
0.0282153710    0.0212014220    0.0005240113    
0.0284380320    0.0201370230    0.0005077277    
0.0286606930    0.0200957910    0.0005028664    
0.0288833540    0.0199448480    0.0005019260    
0.0291060150    0.0205752010    0.0005093121    
0.0293286760    0.0209374290    0.0005066166    
0.0295513370    0.0202800420    0.0004931704    
0.0297739980    0.0199567750    0.0004946103    
0.0299966590    0.0208678890    0.0004971364    
0.0302193200    0.0197494140    0.0004906781    
0.0304419810    0.0206175000    0.0005022686    
0.0306646420    0.0214575540    0.0004979369    
0.0308873030    0.0201499630    0.0004804424    
0.0311099640    0.0206577620    0.0004877217    
0.0313326250    0.0200787290    0.0004755110    
0.0315552860    0.0202674390    0.0004839317    
0.0317779470    0.0205111120    0.0004872562    
0.0320006080    0.0198770910    0.0004687680    
0.0322232690    0.0207461720    0.0004809111    
0.0324459300    0.0203936350    0.0004732479    
0.0326685910    0.0200528060    0.0004685030    
0.0328912520    0.0204062070    0.0004741784    
0.0331139130    0.0195567460    0.0004581655    
0.0333365740    0.0206886810    0.0004727684    
0.0335592350    0.0198582710    0.0004587295    
0.0337818960    0.0203873940    0.0004644306    
0.0340045570    0.0201328510    0.0004607892    
0.0342272170    0.0196081240    0.0004529510    
0.0344498780    0.0204387180    0.0004642766    
0.0346725390    0.0197496410    0.0004479310    
0.0348952000    0.0196204460    0.0004444296    
0.0351178610    0.0212227640    0.0004643364    
0.0353405220    0.0205667630    0.0004550213    
0.0355631830    0.0197627070    0.0004443583    
0.0357858440    0.0199125880    0.0004460403    
0.0360085050    0.0207367220    0.0004565523    
0.0362311660    0.0205901460    0.0004495279    
0.0364538270    0.0199326090    0.0004387421    
0.0366764880    0.0202797800    0.0004422253    
0.0368991490    0.0198753580    0.0004355867    
0.0371218100    0.0199326490    0.0004349661    
0.0373444710    0.0205922340    0.0004469186    
0.0375671320    0.0201067590    0.0004409759    
0.0377897930    0.0203640120    0.0004322995    
0.0380124540    0.0200720910    0.0004318826    
0.0382351150    0.0197096920    0.0004279662    
0.0384577760    0.0204886940    0.0004321317    
0.0386804370    0.0202103570    0.0004324617    
0.0389030980    0.0205980930    0.0004332841    
0.0391257590    0.0205711220    0.0004300609    
0.0393484200    0.0194862610    0.0004171585    
0.0395710810    0.0203357520    0.0004267285    
0.0397937420    0.0204163570    0.0004275736    
0.0400164030    0.0203571210    0.0004286897    
0.0402390640    0.0197043330    0.0004161443    
0.0404617250    0.0203063240    0.0004199611    
0.0406843860    0.0194558430    0.0004071008    
0.0409070470    0.0198285230    0.0004152627    
0.0411297080    0.0193273200    0.0004060146    
0.0413523690    0.0197700200    0.0004116968    
0.0415750300    0.0200462810    0.0004180848    
0.0417976910    0.0196764360    0.0004034972    
0.0420203520    0.0207582860    0.0004159986    
0.0422430130    0.0202521680    0.0004124515    
0.0424656740    0.0188283260    0.0003925124    
0.0426883350    0.0201726610    0.0004082999    
0.0429109960    0.0197667000    0.0004054335    
0.0431336570    0.0200381130    0.0004024561    
0.0433563180    0.0199083770    0.0004046117    
0.0435789790    0.0200924000    0.0004000914    
0.0438016400    0.0201746910    0.0004030909    
0.0440243010    0.0197752700    0.0003950317    
0.0442469620    0.0196775560    0.0003964157    
0.0444696230    0.0193781060    0.0003919771    
0.0446922840    0.0195548130    0.0003925910    
0.0449149450    0.0199561740    0.0003912975    
0.0451376060    0.0201454790    0.0003980045    
0.0453602670    0.0196560180    0.0003890184    
0.0455829280    0.0201943720    0.0003938538    
0.0458055890    0.0199720770    0.0003939641    
0.0460282500    0.0197739530    0.0003872781    
0.0462509110    0.0201280170    0.0003882998    
0.0464735720    0.0198132810    0.0003854695    
0.0466962330    0.0196457140    0.0003855809    
0.0469188940    0.0192334930    0.0003804326    
0.0471415550    0.0202602200    0.0003924601    
0.0473642160    0.0205098280    0.0003893413    
0.0475868770    0.0190845020    0.0003737034    
0.0478095380    0.0194981440    0.0003760786    
0.0480321990    0.0189571170    0.0003716367    
0.0482548600    0.0194784030    0.0003750705    
0.0484775210    0.0195209040    0.0003792076    
0.0487001820    0.0193612550    0.0003721254    
0.0489228430    0.0193547420    0.0003718629    
0.0491455040    0.0205464850    0.0003804905    
0.0493681650    0.0195392650    0.0003742358    
0.0495908260    0.0193722930    0.0003663637    
0.0498134870    0.0196793260    0.0003727707    
0.0500361480    0.0195683060    0.0003707342    
0.0502588090    0.0195110380    0.0003646445    
0.0504814700    0.0193110920    0.0003675138    
0.0507041310    0.0192916790    0.0003629617    
0.0509267920    0.0197752480    0.0003690028    
0.0511494530    0.0194240820    0.0003632732    
0.0513721140    0.0196501680    0.0003685991    
0.0515947750    0.0198730800    0.0003657691    
0.0518174360    0.0196210800    0.0003612534    
0.0520400970    0.0198353160    0.0003607017    
0.0522627580    0.0204407400    0.0003692770    
0.0524854190    0.0194794710    0.0003634204    
0.0527080800    0.0205947770    0.0003765728    
0.0529307410    0.0195445570    0.0003685685    
0.0531534020    0.0199130990    0.0003706728    
0.0533760630    0.0202948620    0.0003753805    
0.0535987240    0.0189433360    0.0003609728    
0.0538213850    0.0199760890    0.0003749767    
0.0540440460    0.0195015910    0.0003687430    
0.0542667070    0.0193613250    0.0003699466    
0.0544893680    0.0201249730    0.0003773727    
0.0547120290    0.0196407870    0.0003702515    
0.0549346900    0.0198361340    0.0003722840    
0.0551573510    0.0202129180    0.0003802270    
0.0553800120    0.0200886810    0.0003758342    
0.0556026730    0.0199047070    0.0003818660    
0.0558253340    0.0198818860    0.0003848427    
0.0560479950    0.0199266010    0.0003852754    
0.0562706560    0.0201163240    0.0003908478    
0.0564933170    0.0203590410    0.0003966131    
0.0567159780    0.0199190250    0.0003876001    
0.0569386390    0.0193194550    0.0003877096    
0.0571613000    0.0195989350    0.0003820956    
0.0573839610    0.0199561490    0.0003823606    
0.0576066220    0.0189249580    0.0003733816    
0.0578292830    0.0195683120    0.0003784188    
0.0580519440    0.0199121080    0.0003832087    
0.0582746050    0.0202485810    0.0003847288    
0.0584972660    0.0197166500    0.0003781886    
0.0587199270    0.0196491100    0.0003742858    
0.0589425880    0.0193635550    0.0003693828    
0.0591652490    0.0201197050    0.0003787417    
0.0593879100    0.0194988630    0.0003700834    
0.0596105710    0.0188409310    0.0003634023    
0.0598332320    0.0194424560    0.0003723133    
0.0600558930    0.0197866010    0.0003731993    
0.0602785540    0.0195691870    0.0003707509    
0.0605012150    0.0194658280    0.0003689914    
0.0607238760    0.0195829430    0.0003674027    
0.0609465370    0.0197384520    0.0003717625    
0.0611691980    0.0191478230    0.0003667385    
0.0613918590    0.0191374420    0.0003626363    
0.0616145200    0.0194883270    0.0003686240    
0.0618371810    0.0196474690    0.0003664909    
0.0620598420    0.0193934350    0.0003644893    
0.0622825030    0.0205701730    0.0003811252    
0.0625051640    0.0202092410    0.0003724613    
0.0627278250    0.0190938150    0.0003612911    
0.0629504860    0.0203651420    0.0003700918    
0.0631731470    0.0197141480    0.0003686337    
0.0633958080    0.0195442810    0.0003691545    
0.0636184690    0.0195118460    0.0003739851    
0.0638411300    0.0201482270    0.0003786084    
0.0640637910    0.0197327980    0.0003773202    
0.0642864520    0.0191949150    0.0003713368    
0.0645091130    0.0188821950    0.0003715269    
0.0647317740    0.0198396420    0.0003812497    
0.0649544350    0.0191234750    0.0003738935    
0.0651770960    0.0199349300    0.0003796613    
0.0653997570    0.0197477710    0.0003770554    
0.0656224180    0.0195734420    0.0003762037    
0.0658450790    0.0198085620    0.0003730168    
0.0660677400    0.0195524740    0.0003721750    
0.0662904010    0.0189411960    0.0003706841    
0.0665130620    0.0194388510    0.0003738932    
0.0667357230    0.0194881190    0.0003810229    
0.0669583840    0.0196169250    0.0003810010    
0.0671810450    0.0194009030    0.0003768054    
0.0674037060    0.0201546480    0.0003905617    
0.0676263670    0.0196816170    0.0003831255    
0.0678490280    0.0195373920    0.0003793847    
0.0680716890    0.0196466420    0.0003812906    
0.0682943500    0.0194285550    0.0003750155    
0.0685170110    0.0196870690    0.0003736555    
0.0687396720    0.0195684880    0.0003715387    
0.0689623330    0.0196128920    0.0003707813    
0.0691849940    0.0198429660    0.0003755337    
0.0694076550    0.0195804080    0.0003728418    
0.0696303160    0.0195091680    0.0003692165    
0.0698529770    0.0194622700    0.0003679995    
0.0700756380    0.0190471760    0.0003593807    
0.0702982990    0.0193257070    0.0003659411    
0.0705209600    0.0193276750    0.0003633176    
0.0707436210    0.0194077070    0.0003623970    
0.0709662820    0.0198593350    0.0003709596    
0.0711889430    0.0197530590    0.0003654216    
0.0714116040    0.0196165830    0.0003649005    
0.0716342650    0.0194239440    0.0003616301    
0.0718569260    0.0199890870    0.0003653756    
0.0720795870    0.0198885540    0.0003659300    
0.0723022480    0.0197533700    0.0003652399    
0.0725249090    0.0198302550    0.0003615675    
0.0727475700    0.0195267190    0.0003618542    
0.0729702310    0.0192890780    0.0003567772    
0.0731928920    0.0191242770    0.0003566696    
0.0734155530    0.0198298310    0.0003624647    
0.0736382140    0.0198573760    0.0003603885    
0.0738608750    0.0195979940    0.0003603400    
0.0740835360    0.0196062880    0.0003595215    
0.0743061970    0.0195130010    0.0003536148    
0.0745288580    0.0197724520    0.0003596180    
0.0747515190    0.0194960370    0.0003578008    
0.0749741800    0.0188467270    0.0003485357    
0.0751968410    0.0201979340    0.0003636465    
0.0754195020    0.0197225430    0.0003572362    
0.0756421630    0.0191468050    0.0003491061    
0.0758648240    0.0199169410    0.0003569138    
0.0760874850    0.0193227360    0.0003513806    
0.0763101460    0.0195917960    0.0003534790    
0.0765328070    0.0190705500    0.0003523136    
0.0767554680    0.0199490780    0.0003578922    
0.0769781290    0.0195808260    0.0003525360    
0.0772007900    0.0195490570    0.0003494247    
0.0774234510    0.0197847110    0.0003535240    
0.0776461120    0.0188329750    0.0003445889    
0.0778687730    0.0200491150    0.0003543663    
0.0780914340    0.0192375470    0.0003496003    
0.0783140950    0.0198072110    0.0003491105    
0.0785367560    0.0189961780    0.0003474006    
0.0787594170    0.0198304060    0.0003517666    
0.0789820780    0.0198685750    0.0003503009    
0.0792047390    0.0197811260    0.0003506719    
0.0794274000    0.0192469390    0.0003473701    
0.0796500610    0.0198443830    0.0003492777    
0.0798727220    0.0196482220    0.0003472263    
0.0800953830    0.0193380650    0.0003436826    
0.0803180440    0.0195960430    0.0003483775    
0.0805407050    0.0199799840    0.0003514467    
0.0807633660    0.0197948180    0.0003494897    
0.0809860270    0.0200408910    0.0003503567    
0.0812086880    0.0195033870    0.0003426396    
0.0814313490    0.0196148710    0.0003451846    
0.0816540100    0.0198038210    0.0003460536    
0.0818766710    0.0194873610    0.0003440613    
0.0820993320    0.0194163970    0.0003428084    
0.0823219930    0.0196318150    0.0003461266    
0.0825446540    0.0198467570    0.0003454877    
0.0827673150    0.0193199010    0.0003385811    
0.0829899760    0.0192393510    0.0003372730    
0.0832126370    0.0192032880    0.0003384661    
0.0834352980    0.0192659850    0.0003382601    
0.0836579590    0.0195291510    0.0003398045    
0.0838806200    0.0197646080    0.0003429165    
0.0841032810    0.0193084470    0.0003368322    
0.0843259420    0.0197386520    0.0003395151    
0.0845486030    0.0191254970    0.0003342005    
0.0847712640    0.0191757730    0.0003326001    
0.0849939250    0.0194510210    0.0003355620    
0.0852165860    0.0190550920    0.0003325643    
0.0854392470    0.0199544410    0.0003370990    
0.0856619080    0.0198333660    0.0003385500    
0.0858845690    0.0198182360    0.0003353728    
0.0861072300    0.0193850680    0.0003339772    
0.0863298910    0.0191874240    0.0003340102    
0.0865525520    0.0195203580    0.0003339864    
0.0867752130    0.0190997800    0.0003277031    
0.0869978740    0.0195928450    0.0003327519    
0.0872205350    0.0196388470    0.0003327185    
0.0874431960    0.0196952470    0.0003331962    
0.0876658570    0.0197729360    0.0003351345    
0.0878885180    0.0194874150    0.0003332765    
0.0881111790    0.0194772300    0.0003327618    
0.0883338400    0.0201806310    0.0003337580    
0.0885565010    0.0192686590    0.0003305520    
0.0887791620    0.0195013860    0.0003282299    
0.0890018230    0.0197350930    0.0003333935    
0.0892244840    0.0198870210    0.0003352433    
0.0894471450    0.0193607340    0.0003293804    
0.0896698060    0.0191537750    0.0003263795    
0.0898924670    0.0197359030    0.0003328377    
0.0901151280    0.0197292920    0.0003291875    
0.0903377890    0.0197425700    0.0003320542    
0.0905604500    0.0188534600    0.0003230018    
0.0907831110    0.0197068430    0.0003294096    
0.0910057720    0.0198881260    0.0003324398    
0.0912284330    0.0197222140    0.0003263103    
0.0914510940    0.0194579630    0.0003277312    
0.0916737550    0.0189550550    0.0003226655    
0.0918964160    0.0191518130    0.0003256847    
0.0921190770    0.0191279320    0.0003225387    
0.0923417380    0.0192688230    0.0003238572    
0.0925643990    0.0200250300    0.0003293430    
0.0927870600    0.0199602420    0.0003301582    
0.0930097210    0.0192620060    0.0003215698    
0.0932323820    0.0189524360    0.0003213201    
