# Diamond Light Source Ltd.
# Data extracted from: /dls/b21/data/2018/cm19678-3/processed/b21-386631_00385.dat
q(1/A)          Column          Error           
0.0035000000    2.1057504000    0.0246645340    
0.0037226610    1.8939789000    0.0228989380    
0.0039453220    1.6590802000    0.0194970140    
0.0041679830    1.3041899000    0.0141961190    
0.0043906440    0.9609179400    0.0116554130    
0.0046133050    0.7720730600    0.0100294610    
0.0048359660    0.5946308500    0.0083256811    
0.0050586270    0.4602773700    0.0071997482    
0.0052812880    0.4401525800    0.0066567642    
0.0055039490    0.3854762600    0.0059233982    
0.0057266100    0.3201321600    0.0052221689    
0.0059492710    0.2621199400    0.0047253754    
0.0061719320    0.2269438800    0.0042369487    
0.0063945930    0.2071973200    0.0040974982    
0.0066172539    0.1886916900    0.0036717116    
0.0068399149    0.1685369400    0.0034154318    
0.0070625759    0.1435364500    0.0031196206    
0.0072852369    0.1301942800    0.0029266380    
0.0075078979    0.1122412900    0.0027040206    
0.0077305589    0.1021761000    0.0025307866    
0.0079532199    0.1003392800    0.0024731819    
0.0081758809    0.0889877290    0.0023507532    
0.0083985419    0.0854072100    0.0021479719    
0.0086212029    0.0747650840    0.0020096979    
0.0088438639    0.0706452360    0.0019378510    
0.0090665249    0.0640161320    0.0017816661    
0.0092891859    0.0623402800    0.0018351258    
0.0095118469    0.0587521550    0.0017132476    
0.0097345079    0.0583875690    0.0016587645    
0.0099571689    0.0535183410    0.0015553452    
0.0101798300    0.0511678830    0.0015208075    
0.0104024910    0.0490263270    0.0014836041    
0.0106251520    0.0491790430    0.0014909587    
0.0108478130    0.0437257290    0.0013691057    
0.0110704740    0.0449967480    0.0013222904    
0.0112931350    0.0415482860    0.0012743434    
0.0115157960    0.0378587690    0.0012093540    
0.0117384570    0.0387285350    0.0012126375    
0.0119611180    0.0370035650    0.0011887258    
0.0121837790    0.0368406390    0.0011661701    
0.0124064400    0.0376301650    0.0011294698    
0.0126291010    0.0335536140    0.0010531889    
0.0128517620    0.0334223830    0.0010537520    
0.0130744230    0.0334849090    0.0010469147    
0.0132970840    0.0328016940    0.0010311124    
0.0135197450    0.0322153530    0.0010072217    
0.0137424060    0.0319982610    0.0009898474    
0.0139650670    0.0289494530    0.0009205391    
0.0141877280    0.0297537780    0.0009353020    
0.0144103890    0.0303835190    0.0009288513    
0.0146330500    0.0287933610    0.0008984774    
0.0148557110    0.0275237540    0.0008747623    
0.0150783720    0.0269613190    0.0008586233    
0.0153010330    0.0279871690    0.0008624716    
0.0155236940    0.0270249930    0.0008424767    
0.0157463550    0.0282016390    0.0008457109    
0.0159690160    0.0268553900    0.0008221466    
0.0161916770    0.0258070640    0.0008013998    
0.0164143380    0.0258711320    0.0008084729    
0.0166369990    0.0242766610    0.0007590164    
0.0168596600    0.0245968270    0.0007572737    
0.0170823210    0.0240123630    0.0007417444    
0.0173049820    0.0246702540    0.0007531366    
0.0175276430    0.0236671510    0.0007454452    
0.0177503040    0.0242373590    0.0007351408    
0.0179729650    0.0238682840    0.0007222871    
0.0181956260    0.0238029970    0.0007074706    
0.0184182870    0.0239540850    0.0007063674    
0.0186409480    0.0246801550    0.0007215309    
0.0188636090    0.0241623980    0.0007094324    
0.0190862700    0.0237339010    0.0007020144    
0.0193089310    0.0227491760    0.0006862254    
0.0195315920    0.0225223270    0.0006595747    
0.0197542530    0.0224330210    0.0006592247    
0.0199769140    0.0218906060    0.0006512063    
0.0201995750    0.0230874240    0.0006582986    
0.0204222360    0.0228172050    0.0006600525    
0.0206448970    0.0220799070    0.0006446860    
0.0208675580    0.0222994030    0.0006345411    
0.0210902190    0.0221059950    0.0006378794    
0.0213128800    0.0231578930    0.0006440206    
0.0215355410    0.0223471350    0.0006251100    
0.0217582020    0.0215078140    0.0006132587    
0.0219808630    0.0216955330    0.0006151204    
0.0222035240    0.0235646940    0.0006352616    
0.0224261850    0.0207751960    0.0005911690    
0.0226488460    0.0223533710    0.0006086071    
0.0228715070    0.0211542310    0.0005905870    
0.0230941680    0.0219951320    0.0006022110    
0.0233168290    0.0217071540    0.0005997458    
0.0235394900    0.0197396560    0.0005656085    
0.0237621510    0.0207167780    0.0005638393    
0.0239848120    0.0205494040    0.0005622067    
0.0242074730    0.0222197030    0.0005799295    
0.0244301340    0.0221490770    0.0005796679    
0.0246527950    0.0214640110    0.0005759168    
0.0248754560    0.0209825770    0.0005566238    
0.0250981170    0.0214470590    0.0005640058    
0.0253207780    0.0218885380    0.0005527691    
0.0255434390    0.0217736370    0.0005572005    
0.0257661000    0.0211253970    0.0005506187    
0.0259887610    0.0211704640    0.0005453480    
0.0262114220    0.0211126900    0.0005475050    
0.0264340830    0.0211775510    0.0005408847    
0.0266567440    0.0205346070    0.0005293198    
0.0268794050    0.0213146470    0.0005370786    
0.0271020660    0.0212229600    0.0005337526    
0.0273247270    0.0211677480    0.0005298564    
0.0275473880    0.0211628540    0.0005287410    
0.0277700490    0.0198559810    0.0005091277    
0.0279927100    0.0200497680    0.0005071423    
0.0282153710    0.0205690140    0.0005161646    
0.0284380320    0.0205360810    0.0005127615    
0.0286606930    0.0206894370    0.0005102673    
0.0288833540    0.0204017670    0.0005076700    
0.0291060150    0.0203000210    0.0005059220    
0.0293286760    0.0208783810    0.0005059289    
0.0295513370    0.0207499960    0.0004988787    
0.0297739980    0.0195053080    0.0004890100    
0.0299966590    0.0205977070    0.0004939342    
0.0302193200    0.0205684210    0.0005007759    
0.0304419810    0.0201547020    0.0004966261    
0.0306646420    0.0201886790    0.0004830159    
0.0308873030    0.0199115400    0.0004776172    
0.0311099640    0.0203029820    0.0004835414    
0.0313326250    0.0211282920    0.0004878069    
0.0315552860    0.0196224690    0.0004761950    
0.0317779470    0.0205480450    0.0004877209    
0.0320006080    0.0198792270    0.0004688184    
0.0322232690    0.0198676260    0.0004706436    
0.0324459300    0.0204727100    0.0004741900    
0.0326685910    0.0200987490    0.0004690646    
0.0328912520    0.0192733760    0.0004608535    
0.0331139130    0.0191294550    0.0004531571    
0.0333365740    0.0213391830    0.0004801691    
0.0335592350    0.0205810600    0.0004670282    
0.0337818960    0.0199134400    0.0004590252    
0.0340045570    0.0198185930    0.0004572034    
0.0342272170    0.0197985900    0.0004551701    
0.0344498780    0.0201666820    0.0004612013    
0.0346725390    0.0200768960    0.0004516511    
0.0348952000    0.0206595600    0.0004560709    
0.0351178610    0.0201378830    0.0004523369    
0.0353405220    0.0203877490    0.0004530611    
0.0355631830    0.0192452300    0.0004385256    
0.0357858440    0.0201945140    0.0004492109    
0.0360085050    0.0193818210    0.0004414089    
0.0362311660    0.0199936300    0.0004429923    
0.0364538270    0.0199444100    0.0004388955    
0.0366764880    0.0199733420    0.0004388950    
0.0368991490    0.0199443250    0.0004363652    
0.0371218100    0.0193937040    0.0004290684    
0.0373444710    0.0202743260    0.0004434792    
0.0375671320    0.0198574380    0.0004382569    
0.0377897930    0.0200541460    0.0004290209    
0.0380124540    0.0203902320    0.0004353152    
0.0382351150    0.0204924760    0.0004364054    
0.0384577760    0.0199986770    0.0004269558    
0.0386804370    0.0202680580    0.0004331019    
0.0389030980    0.0197890550    0.0004247126    
0.0391257590    0.0203575290    0.0004278454    
0.0393484200    0.0198009550    0.0004205361    
0.0395710810    0.0195946310    0.0004189030    
0.0397937420    0.0198453990    0.0004215751    
0.0400164030    0.0204947360    0.0004301594    
0.0402390640    0.0197767680    0.0004169309    
0.0404617250    0.0204474870    0.0004214409    
0.0406843860    0.0202928190    0.0004157876    
0.0409070470    0.0196045150    0.0004129326    
0.0411297080    0.0206942270    0.0004201495    
0.0413523690    0.0200379450    0.0004144993    
0.0415750300    0.0203013300    0.0004207586    
0.0417976910    0.0192482380    0.0003991040    
0.0420203520    0.0201435380    0.0004098145    
0.0422430130    0.0197334940    0.0004071575    
0.0424656740    0.0210726420    0.0004152698    
0.0426883350    0.0202409480    0.0004090124    
0.0429109960    0.0202012940    0.0004098882    
0.0431336570    0.0198866700    0.0004009540    
0.0433563180    0.0199598620    0.0004051563    
0.0435789790    0.0191145310    0.0003902550    
0.0438016400    0.0201446410    0.0004028123    
0.0440243010    0.0188066770    0.0003852566    
0.0442469620    0.0203186220    0.0004028429    
0.0444696230    0.0198083920    0.0003963264    
0.0446922840    0.0198091600    0.0003951571    
0.0449149450    0.0195746530    0.0003875599    
0.0451376060    0.0194398810    0.0003909934    
0.0453602670    0.0199892310    0.0003923230    
0.0455829280    0.0199276650    0.0003912654    
0.0458055890    0.0202540180    0.0003967564    
0.0460282500    0.0194574760    0.0003841871    
0.0462509110    0.0197555950    0.0003847114    
0.0464735720    0.0202354190    0.0003895751    
0.0466962330    0.0204803610    0.0003937075    
0.0469188940    0.0192882390    0.0003809941    
0.0471415550    0.0195781140    0.0003858178    
0.0473642160    0.0199724370    0.0003842274    
0.0475868770    0.0192987890    0.0003758158    
0.0478095380    0.0190577120    0.0003718268    
0.0480321990    0.0197752290    0.0003795916    
0.0482548600    0.0198922080    0.0003790540    
0.0484775210    0.0205544060    0.0003891373    
0.0487001820    0.0196923760    0.0003753142    
0.0489228430    0.0195997650    0.0003742295    
0.0491455040    0.0192450210    0.0003682625    
0.0493681650    0.0196345550    0.0003751674    
0.0495908260    0.0201643180    0.0003737981    
0.0498134870    0.0201687100    0.0003773975    
0.0500361480    0.0195774330    0.0003708406    
0.0502588090    0.0196153690    0.0003656378    
0.0504814700    0.0189844030    0.0003644115    
0.0507041310    0.0199835470    0.0003694328    
0.0509267920    0.0200597100    0.0003716674    
0.0511494530    0.0196096280    0.0003650238    
0.0513721140    0.0200810070    0.0003726380    
0.0515947750    0.0194712480    0.0003620718    
0.0518174360    0.0196631010    0.0003616594    
0.0520400970    0.0199030480    0.0003613365    
0.0522627580    0.0197824110    0.0003633012    
0.0524854190    0.0195358120    0.0003639652    
0.0527080800    0.0193849980    0.0003653647    
0.0529307410    0.0203182360    0.0003758128    
0.0531534020    0.0199428420    0.0003709694    
0.0533760630    0.0207345100    0.0003794450    
0.0535987240    0.0195507430    0.0003667340    
0.0538213850    0.0196403370    0.0003718321    
0.0540440460    0.0184298340    0.0003584865    
0.0542667070    0.0196320470    0.0003725441    
0.0544893680    0.0189452680    0.0003661648    
0.0547120290    0.0199570160    0.0003732403    
0.0549346900    0.0196845350    0.0003708786    
0.0551573510    0.0197429760    0.0003758011    
0.0553800120    0.0193946580    0.0003693048    
0.0556026730    0.0198775390    0.0003816258    
0.0558253340    0.0194742730    0.0003808978    
0.0560479950    0.0202937920    0.0003888299    
0.0562706560    0.0199058340    0.0003888185    
0.0564933170    0.0194339630    0.0003875184    
0.0567159780    0.0195741860    0.0003842510    
0.0569386390    0.0194693810    0.0003892320    
0.0571613000    0.0193700900    0.0003798787    
0.0573839610    0.0202367130    0.0003850598    
0.0576066220    0.0198110870    0.0003820436    
0.0578292830    0.0193288950    0.0003761169    
0.0580519440    0.0198036130    0.0003821838    
0.0582746050    0.0198194230    0.0003806504    
0.0584972660    0.0197840630    0.0003788549    
0.0587199270    0.0202786930    0.0003802552    
0.0589425880    0.0196545700    0.0003721682    
0.0591652490    0.0195870910    0.0003737151    
0.0593879100    0.0197327790    0.0003723166    
0.0596105710    0.0195930290    0.0003706045    
0.0598332320    0.0195657620    0.0003735121    
0.0600558930    0.0197605690    0.0003729737    
0.0602785540    0.0200700560    0.0003754858    
0.0605012150    0.0196567930    0.0003708169    
0.0607238760    0.0197022400    0.0003685399    
0.0609465370    0.0194534630    0.0003690887    
0.0611691980    0.0187705360    0.0003631269    
0.0613918590    0.0197442660    0.0003683606    
0.0616145200    0.0193858210    0.0003676731    
0.0618371810    0.0194102850    0.0003642916    
0.0620598420    0.0196010520    0.0003664548    
0.0622825030    0.0202545810    0.0003782106    
0.0625051640    0.0198612830    0.0003692607    
0.0627278250    0.0195949710    0.0003660214    
0.0629504860    0.0194323710    0.0003615364    
0.0631731470    0.0197645230    0.0003691242    
0.0633958080    0.0192813930    0.0003666831    
0.0636184690    0.0186751740    0.0003658986    
0.0638411300    0.0191898340    0.0003695139    
0.0640637910    0.0196483300    0.0003765319    
0.0642864520    0.0197501840    0.0003766897    
0.0645091130    0.0194106140    0.0003767099    
0.0647317740    0.0196292890    0.0003792435    
0.0649544350    0.0193594820    0.0003762138    
0.0651770960    0.0199587670    0.0003799086    
0.0653997570    0.0200666980    0.0003801084    
0.0656224180    0.0197563320    0.0003779775    
0.0658450790    0.0196561390    0.0003715989    
0.0660677400    0.0191719860    0.0003685558    
0.0662904010    0.0201330780    0.0003821894    
0.0665130620    0.0197142500    0.0003765527    
0.0667357230    0.0195870680    0.0003820095    
0.0669583840    0.0190639870    0.0003756132    
0.0671810450    0.0202007720    0.0003845151    
0.0674037060    0.0197178000    0.0003863266    
0.0676263670    0.0195345570    0.0003817120    
0.0678490280    0.0189132270    0.0003732954    
0.0680716890    0.0196117500    0.0003809723    
0.0682943500    0.0200025580    0.0003805354    
0.0685170110    0.0187884190    0.0003650474    
0.0687396720    0.0199938920    0.0003755756    
0.0689623330    0.0195519070    0.0003702242    
0.0691849940    0.0199375010    0.0003764474    
0.0694076550    0.0191280960    0.0003685301    
0.0696303160    0.0190710040    0.0003650663    
0.0698529770    0.0193947710    0.0003673806    
0.0700756380    0.0196053060    0.0003646276    
0.0702982990    0.0195634040    0.0003682044    
0.0705209600    0.0193980560    0.0003639980    
0.0707436210    0.0196195920    0.0003643895    
0.0709662820    0.0191546060    0.0003643378    
0.0711889430    0.0194577050    0.0003626989    
0.0714116040    0.0198630770    0.0003672057    
0.0716342650    0.0195472350    0.0003627954    
0.0718569260    0.0193233020    0.0003592586    
0.0720795870    0.0192173440    0.0003597215    
0.0723022480    0.0187491450    0.0003558539    
0.0725249090    0.0201224870    0.0003642415    
0.0727475700    0.0195690550    0.0003622657    
0.0729702310    0.0194627450    0.0003583989    
0.0731928920    0.0198514700    0.0003634070    
0.0734155530    0.0194078910    0.0003586069    
0.0736382140    0.0193885340    0.0003561278    
0.0738608750    0.0196133520    0.0003605006    
0.0740835360    0.0202545360    0.0003654363    
0.0743061970    0.0201175340    0.0003590700    
0.0745288580    0.0199773600    0.0003614961    
0.0747515190    0.0193470870    0.0003564505    
0.0749741800    0.0194804830    0.0003543664    
0.0751968410    0.0193816240    0.0003562413    
0.0754195020    0.0200288160    0.0003600186    
0.0756421630    0.0194798940    0.0003521485    
0.0758648240    0.0191578830    0.0003500653    
0.0760874850    0.0200916700    0.0003583231    
0.0763101460    0.0199574600    0.0003567816    
0.0765328070    0.0197951450    0.0003589637    
0.0767554680    0.0190586500    0.0003498325    
0.0769781290    0.0188719770    0.0003461146    
0.0772007900    0.0192638250    0.0003468849    
0.0774234510    0.0195846740    0.0003517511    
0.0776461120    0.0197934590    0.0003532857    
0.0778687730    0.0201953430    0.0003556753    
0.0780914340    0.0195700180    0.0003526272    
0.0783140950    0.0186585650    0.0003388548    
0.0785367560    0.0197543360    0.0003542844    
0.0787594170    0.0189026920    0.0003434583    
0.0789820780    0.0187465360    0.0003402841    
0.0792047390    0.0196775590    0.0003497715    
0.0794274000    0.0191486870    0.0003465010    
0.0796500610    0.0197235510    0.0003482314    
0.0798727220    0.0189936860    0.0003414121    
0.0800953830    0.0201403830    0.0003507585    
0.0803180440    0.0193503850    0.0003462056    
0.0805407050    0.0196482710    0.0003485358    
0.0807633660    0.0196550100    0.0003482720    
0.0809860270    0.0199817890    0.0003498585    
0.0812086880    0.0202098480    0.0003488088    
0.0814313490    0.0194650980    0.0003438827    
0.0816540100    0.0192979490    0.0003416235    
0.0818766710    0.0191796170    0.0003413522    
0.0820993320    0.0195577070    0.0003440721    
0.0823219930    0.0197071630    0.0003468088    
0.0825446540    0.0194699570    0.0003422107    
0.0827673150    0.0192863720    0.0003383054    
0.0829899760    0.0194010740    0.0003387058    
0.0832126370    0.0196170230    0.0003421111    
0.0834352980    0.0194640620    0.0003400128    
0.0836579590    0.0197382120    0.0003416368    
0.0838806200    0.0194692200    0.0003403626    
0.0841032810    0.0196689950    0.0003399807    
0.0843259420    0.0190399170    0.0003334696    
0.0845486030    0.0194838220    0.0003373348    
0.0847712640    0.0202336540    0.0003416697    
0.0849939250    0.0198236470    0.0003387791    
0.0852165860    0.0201774660    0.0003422368    
0.0854392470    0.0201046650    0.0003383837    
0.0856619080    0.0189396640    0.0003308522    
0.0858845690    0.0194230500    0.0003320301    
0.0861072300    0.0195195070    0.0003351513    
0.0863298910    0.0194569760    0.0003363662    
0.0865525520    0.0196881910    0.0003354372    
0.0867752130    0.0194448450    0.0003306679    
0.0869978740    0.0197305950    0.0003339375    
0.0872205350    0.0197593450    0.0003337556    
0.0874431960    0.0192632770    0.0003295397    
0.0876658570    0.0192751460    0.0003309068    
0.0878885180    0.0191873900    0.0003307188    
0.0881111790    0.0194395230    0.0003324574    
0.0883338400    0.0196583560    0.0003294285    
0.0885565010    0.0192764010    0.0003306362    
0.0887791620    0.0200062630    0.0003324694    
0.0890018230    0.0196414580    0.0003326195    
0.0892244840    0.0194030920    0.0003311571    
0.0894471450    0.0192899590    0.0003287955    
0.0896698060    0.0200680170    0.0003340959    
0.0898924670    0.0196145210    0.0003318305    
0.0901151280    0.0195885900    0.0003280292    
0.0903377890    0.0196385680    0.0003311962    
0.0905604500    0.0196358270    0.0003296533    
0.0907831110    0.0193675380    0.0003265790    
0.0910057720    0.0193456290    0.0003278920    
0.0912284330    0.0187956210    0.0003185699    
0.0914510940    0.0197360840    0.0003300829    
0.0916737550    0.0193471100    0.0003260029    
0.0918964160    0.0193145030    0.0003270827    
0.0921190770    0.0190429590    0.0003218388    
0.0923417380    0.0199840250    0.0003298305    
0.0925643990    0.0197725770    0.0003272780    
0.0927870600    0.0198422310    0.0003291985    
0.0930097210    0.0198224560    0.0003262320    
0.0932323820    0.0191342660    0.0003228751    
