# Diamond Light Source Ltd.
# Data extracted from: /dls/b21/data/2018/cm19678-3/processed/b21-386631_00388.dat
q(1/A)          Column          Error           
0.0035000000    2.1052166000    0.0246633580    
0.0037226610    1.9122770000    0.0230111070    
0.0039453220    1.6125941000    0.0192234480    
0.0041679830    1.2982142000    0.0141646790    
0.0043906440    0.9804412000    0.0117741520    
0.0046133050    0.7783195700    0.0100707470    
0.0048359660    0.5941419400    0.0083229158    
0.0050586270    0.4560699400    0.0071673326    
0.0052812880    0.4332745000    0.0066050704    
0.0055039490    0.3814406100    0.0058927757    
0.0057266100    0.3164339700    0.0051923284    
0.0059492710    0.2634394000    0.0047376284    
0.0061719320    0.2210461800    0.0041818631    
0.0063945930    0.2015570000    0.0040416619    
0.0066172539    0.1887215300    0.0036722923    
0.0068399149    0.1721633100    0.0034522537    
0.0070625759    0.1441016500    0.0031260037    
0.0072852369    0.1228454600    0.0028430660    
0.0075078979    0.1104999000    0.0026831748    
0.0077305589    0.1055777700    0.0025727729    
0.0079532199    0.0965140960    0.0024257737    
0.0081758809    0.0911135000    0.0023788534    
0.0083985419    0.0823950630    0.0021099214    
0.0086212029    0.0770461500    0.0020402866    
0.0088438639    0.0689551260    0.0019146816    
0.0090665249    0.0624888330    0.0017604234    
0.0092891859    0.0662402690    0.0018918071    
0.0095118469    0.0588613820    0.0017149751    
0.0097345079    0.0542491690    0.0015990256    
0.0099571689    0.0548378500    0.0015745267    
0.0101798300    0.0489155520    0.0014870766    
0.0104024910    0.0479115050    0.0014667551    
0.0106251520    0.0476949410    0.0014684058    
0.0108478130    0.0469911560    0.0014194198    
0.0110704740    0.0431384190    0.0012948001    
0.0112931350    0.0435876440    0.0013053470    
0.0115157960    0.0408012070    0.0012555703    
0.0117384570    0.0396080890    0.0012264271    
0.0119611180    0.0381552200    0.0012071777    
0.0121837790    0.0378063940    0.0011814498    
0.0124064400    0.0368901760    0.0011183977    
0.0126291010    0.0358072030    0.0010880683    
0.0128517620    0.0332282990    0.0010507711    
0.0130744230    0.0324753500    0.0010310934    
0.0132970840    0.0318019280    0.0010153574    
0.0135197450    0.0325039130    0.0010118026    
0.0137424060    0.0311458170    0.0009766507    
0.0139650670    0.0306813200    0.0009477491    
0.0141877280    0.0317874710    0.0009668145    
0.0144103890    0.0302463230    0.0009268251    
0.0146330500    0.0296671800    0.0009120811    
0.0148557110    0.0285569360    0.0008910999    
0.0150783720    0.0274852040    0.0008669937    
0.0153010330    0.0284169190    0.0008691368    
0.0155236940    0.0277384900    0.0008535930    
0.0157463550    0.0256949450    0.0008073149    
0.0159690160    0.0260289270    0.0008094611    
0.0161916770    0.0250893290    0.0007902396    
0.0164143380    0.0249655480    0.0007942599    
0.0166369990    0.0252061500    0.0007734714    
0.0168596600    0.0267226740    0.0007893827    
0.0170823210    0.0261244500    0.0007737394    
0.0173049820    0.0234553950    0.0007344169    
0.0175276430    0.0244223510    0.0007573049    
0.0177503040    0.0244196000    0.0007379577    
0.0179729650    0.0233473990    0.0007144188    
0.0181956260    0.0256154020    0.0007339687    
0.0184182870    0.0243953650    0.0007129004    
0.0186409480    0.0236713790    0.0007066871    
0.0188636090    0.0230620730    0.0006931457    
0.0190862700    0.0240284040    0.0007064123    
0.0193089310    0.0233117590    0.0006947137    
0.0195315920    0.0240907240    0.0006822077    
0.0197542530    0.0240834670    0.0006830987    
0.0199769140    0.0227078300    0.0006633028    
0.0201995750    0.0228845700    0.0006554520    
0.0204222360    0.0224006820    0.0006540519    
0.0206448970    0.0221398790    0.0006456120    
0.0208675580    0.0222848710    0.0006343845    
0.0210902190    0.0227169960    0.0006466858    
0.0213128800    0.0220330340    0.0006282345    
0.0215355410    0.0223156920    0.0006247194    
0.0217582020    0.0216161490    0.0006148499    
0.0219808630    0.0212977780    0.0006095039    
0.0222035240    0.0210334450    0.0006002211    
0.0224261850    0.0225114240    0.0006154247    
0.0226488460    0.0222077500    0.0006066695    
0.0228715070    0.0213719550    0.0005936654    
0.0230941680    0.0214544170    0.0005948098    
0.0233168290    0.0225060900    0.0006107313    
0.0235394900    0.0220444810    0.0005977649    
0.0237621510    0.0211037590    0.0005691261    
0.0239848120    0.0212295380    0.0005714799    
0.0242074730    0.0210121420    0.0005639955    
0.0244301340    0.0206201080    0.0005593469    
0.0246527950    0.0207410060    0.0005661788    
0.0248754560    0.0201293290    0.0005452320    
0.0250981170    0.0205158870    0.0005516698    
0.0253207780    0.0207052530    0.0005376628    
0.0255434390    0.0200799800    0.0005351333    
0.0257661000    0.0210139080    0.0005492073    
0.0259887610    0.0221151820    0.0005574272    
0.0262114220    0.0207894190    0.0005433402    
0.0264340830    0.0216368490    0.0005467618    
0.0266567440    0.0211655900    0.0005374332    
0.0268794050    0.0202351980    0.0005233435    
0.0271020660    0.0208101140    0.0005285774    
0.0273247270    0.0207200820    0.0005242651    
0.0275473880    0.0202281230    0.0005169732    
0.0277700490    0.0211256130    0.0005251944    
0.0279927100    0.0197706840    0.0005036402    
0.0282153710    0.0201447580    0.0005108541    
0.0284380320    0.0208978710    0.0005172994    
0.0286606930    0.0203025180    0.0005055135    
0.0288833540    0.0206324180    0.0005105720    
0.0291060150    0.0202527890    0.0005053730    
0.0293286760    0.0205015700    0.0005013823    
0.0295513370    0.0206453130    0.0004976581    
0.0297739980    0.0204402830    0.0005006326    
0.0299966590    0.0199020240    0.0004855597    
0.0302193200    0.0206692280    0.0005020413    
0.0304419810    0.0205250640    0.0005012080    
0.0306646420    0.0205732870    0.0004876337    
0.0308873030    0.0212667800    0.0004936427    
0.0311099640    0.0198800270    0.0004785161    
0.0313326250    0.0199714210    0.0004743016    
0.0315552860    0.0194406430    0.0004740211    
0.0317779470    0.0207828590    0.0004905385    
0.0320006080    0.0212093370    0.0004842870    
0.0322232690    0.0197035060    0.0004687327    
0.0324459300    0.0201573840    0.0004705612    
0.0326685910    0.0195982850    0.0004632245    
0.0328912520    0.0208304410    0.0004791457    
0.0331139130    0.0201631870    0.0004652768    
0.0333365740    0.0201106330    0.0004661788    
0.0335592350    0.0196833540    0.0004567653    
0.0337818960    0.0200859130    0.0004610452    
0.0340045570    0.0199799640    0.0004590973    
0.0342272170    0.0200738380    0.0004583594    
0.0344498780    0.0205601880    0.0004657160    
0.0346725390    0.0202731490    0.0004538891    
0.0348952000    0.0199478860    0.0004481822    
0.0351178610    0.0210048380    0.0004620076    
0.0353405220    0.0199479110    0.0004481828    
0.0355631830    0.0199878230    0.0004469413    
0.0357858440    0.0206274460    0.0004540364    
0.0360085050    0.0196261920    0.0004442180    
0.0362311660    0.0199575250    0.0004426271    
0.0364538270    0.0195225310    0.0004342631    
0.0366764880    0.0200826050    0.0004401287    
0.0368991490    0.0200334190    0.0004373734    
0.0371218100    0.0192638510    0.0004276634    
0.0373444710    0.0199961700    0.0004404614    
0.0375671320    0.0199669920    0.0004394989    
0.0377897930    0.0203694220    0.0004324143    
0.0380124540    0.0200495380    0.0004316973    
0.0382351150    0.0207187990    0.0004388434    
0.0384577760    0.0200109570    0.0004271207    
0.0386804370    0.0196233240    0.0004261914    
0.0389030980    0.0199198180    0.0004261472    
0.0391257590    0.0198211530    0.0004222048    
0.0393484200    0.0199202130    0.0004218340    
0.0395710810    0.0200007910    0.0004232557    
0.0397937420    0.0199470640    0.0004226870    
0.0400164030    0.0196852830    0.0004216124    
0.0402390640    0.0199996720    0.0004193071    
0.0404617250    0.0199729000    0.0004165543    
0.0406843860    0.0199211230    0.0004119946    
0.0409070470    0.0198076930    0.0004150997    
0.0411297080    0.0195884000    0.0004088020    
0.0413523690    0.0193807950    0.0004076781    
0.0415750300    0.0204004820    0.0004218182    
0.0417976910    0.0193919840    0.0004006232    
0.0420203520    0.0198215070    0.0004065576    
0.0422430130    0.0194761490    0.0004045259    
0.0424656740    0.0191525370    0.0003959300    
0.0426883350    0.0193596560    0.0004000407    
0.0429109960    0.0195889550    0.0004036601    
0.0431336570    0.0203830180    0.0004059589    
0.0433563180    0.0198807650    0.0004043847    
0.0435789790    0.0199303890    0.0003985281    
0.0438016400    0.0194389070    0.0003957247    
0.0440243010    0.0196384450    0.0003937149    
0.0442469620    0.0198026060    0.0003977261    
0.0444696230    0.0193832530    0.0003920812    
0.0446922840    0.0197571060    0.0003946688    
0.0449149450    0.0194549560    0.0003864037    
0.0451376060    0.0195373390    0.0003920032    
0.0453602670    0.0192915800    0.0003854464    
0.0455829280    0.0199615500    0.0003916289    
0.0458055890    0.0196042640    0.0003903714    
0.0460282500    0.0197716190    0.0003873067    
0.0462509110    0.0189419960    0.0003767361    
0.0464735720    0.0197735360    0.0003851338    
0.0466962330    0.0197417700    0.0003865737    
0.0469188940    0.0191708610    0.0003798631    
0.0471415550    0.0205393590    0.0003952070    
0.0473642160    0.0192732710    0.0003774722    
0.0475868770    0.0199898860    0.0003825159    
0.0478095380    0.0195613690    0.0003767379    
0.0480321990    0.0201208710    0.0003829249    
0.0482548600    0.0197075260    0.0003773201    
0.0484775210    0.0196808250    0.0003808082    
0.0487001820    0.0195881780    0.0003743496    
0.0489228430    0.0200316550    0.0003783601    
0.0491455040    0.0200162960    0.0003755991    
0.0493681650    0.0195301160    0.0003741978    
0.0495908260    0.0198279170    0.0003706962    
0.0498134870    0.0199035060    0.0003749377    
0.0500361480    0.0193416570    0.0003686299    
0.0502588090    0.0197343550    0.0003667741    
0.0504814700    0.0196030620    0.0003703308    
0.0507041310    0.0196451710    0.0003663206    
0.0509267920    0.0199871220    0.0003710236    
0.0511494530    0.0199389280    0.0003681050    
0.0513721140    0.0197107170    0.0003692156    
0.0515947750    0.0193800540    0.0003612514    
0.0518174360    0.0190208710    0.0003557323    
0.0520400970    0.0198799520    0.0003611553    
0.0522627580    0.0196987910    0.0003625613    
0.0524854190    0.0197627070    0.0003661016    
0.0527080800    0.0192503160    0.0003641220    
0.0529307410    0.0191673750    0.0003650432    
0.0531534020    0.0199459960    0.0003710281    
0.0533760630    0.0197446530    0.0003703063    
0.0535987240    0.0194299890    0.0003656287    
0.0538213850    0.0201222080    0.0003763956    
0.0540440460    0.0201762920    0.0003751174    
0.0542667070    0.0195503050    0.0003717971    
0.0544893680    0.0197197850    0.0003736041    
0.0547120290    0.0198484680    0.0003722533    
0.0549346900    0.0193871270    0.0003680953    
0.0551573510    0.0201825160    0.0003799914    
0.0553800120    0.0194399250    0.0003697648    
0.0556026730    0.0190599540    0.0003737246    
0.0558253340    0.0196710840    0.0003828480    
0.0560479950    0.0191718750    0.0003779590    
0.0562706560    0.0198710020    0.0003885088    
0.0564933170    0.0195684200    0.0003888874    
0.0567159780    0.0194792070    0.0003833480    
0.0569386390    0.0191844980    0.0003864043    
0.0571613000    0.0200735680    0.0003867460    
0.0573839610    0.0196829870    0.0003797852    
0.0576066220    0.0186352410    0.0003705618    
0.0578292830    0.0199980670    0.0003826024    
0.0580519440    0.0195559330    0.0003798164    
0.0582746050    0.0194350270    0.0003769708    
0.0584972660    0.0195622550    0.0003767549    
0.0587199270    0.0189483150    0.0003675994    
0.0589425880    0.0197140650    0.0003727606    
0.0591652490    0.0195260050    0.0003731614    
0.0593879100    0.0206633260    0.0003810243    
0.0596105710    0.0192666040    0.0003675334    
0.0598332320    0.0193406480    0.0003713866    
0.0600558930    0.0197425720    0.0003728333    
0.0602785540    0.0196868020    0.0003719128    
0.0605012150    0.0203175640    0.0003770278    
0.0607238760    0.0200638860    0.0003719363    
0.0609465370    0.0196736570    0.0003712011    
0.0611691980    0.0202770720    0.0003774479    
0.0613918590    0.0192731210    0.0003639679    
0.0616145200    0.0201839710    0.0003751953    
0.0618371810    0.0187637360    0.0003582014    
0.0620598420    0.0195424830    0.0003659359    
0.0622825030    0.0194808120    0.0003709453    
0.0625051640    0.0195623040    0.0003664998    
0.0627278250    0.0194407930    0.0003646075    
0.0629504860    0.0191663480    0.0003590816    
0.0631731470    0.0189954220    0.0003618996    
0.0633958080    0.0196122430    0.0003698449    
0.0636184690    0.0190079520    0.0003691735    
0.0638411300    0.0190790070    0.0003684744    
0.0640637910    0.0199184610    0.0003791414    
0.0642864520    0.0194371390    0.0003737220    
0.0645091130    0.0198085390    0.0003805817    
0.0647317740    0.0201233860    0.0003840173    
0.0649544350    0.0197793360    0.0003803015    
0.0651770960    0.0186166630    0.0003669421    
0.0653997570    0.0189104710    0.0003690243    
0.0656224180    0.0199836670    0.0003801760    
0.0658450790    0.0190971540    0.0003663059    
0.0660677400    0.0196427020    0.0003730823    
0.0662904010    0.0196573460    0.0003776769    
0.0665130620    0.0188613420    0.0003683462    
0.0667357230    0.0201639360    0.0003876247    
0.0669583840    0.0196517430    0.0003813896    
0.0671810450    0.0196256650    0.0003790321    
0.0674037060    0.0199101790    0.0003882373    
0.0676263670    0.0196719260    0.0003830821    
0.0678490280    0.0195425830    0.0003794855    
0.0680716890    0.0195704410    0.0003806010    
0.0682943500    0.0198609100    0.0003792156    
0.0685170110    0.0192879540    0.0003698976    
0.0687396720    0.0192914420    0.0003689482    
0.0689623330    0.0198705150    0.0003732581    
0.0691849940    0.0189596170    0.0003671284    
0.0694076550    0.0191950340    0.0003692035    
0.0696303160    0.0193885420    0.0003681221    
0.0698529770    0.0197736850    0.0003709813    
0.0700756380    0.0196151890    0.0003647484    
0.0702982990    0.0196496710    0.0003690445    
0.0705209600    0.0194147860    0.0003641838    
0.0707436210    0.0193519440    0.0003619241    
0.0709662820    0.0186239390    0.0003592838    
0.0711889430    0.0194066870    0.0003622517    
0.0714116040    0.0199001660    0.0003675774    
0.0716342650    0.0195166530    0.0003625402    
0.0718569260    0.0196603780    0.0003624071    
0.0720795870    0.0200487320    0.0003674494    
0.0723022480    0.0196032510    0.0003638978    
0.0725249090    0.0196706660    0.0003601575    
0.0727475700    0.0198672750    0.0003650445    
0.0729702310    0.0193668110    0.0003575428    
0.0731928920    0.0190960890    0.0003564540    
0.0734155530    0.0192121460    0.0003568221    
0.0736382140    0.0194701090    0.0003569044    
0.0738608750    0.0196959800    0.0003612877    
0.0740835360    0.0198357030    0.0003616668    
0.0743061970    0.0194733150    0.0003533019    
0.0745288580    0.0200328590    0.0003620265    
0.0747515190    0.0202959780    0.0003651159    
0.0749741800    0.0199671070    0.0003587935    
0.0751968410    0.0196793890    0.0003589958    
0.0754195020    0.0198572300    0.0003585015    
0.0756421630    0.0196166810    0.0003534107    
0.0758648240    0.0201909330    0.0003594081    
0.0760874850    0.0199670180    0.0003572380    
0.0763101460    0.0191313160    0.0003493467    
0.0765328070    0.0199805690    0.0003606695    
0.0767554680    0.0200635580    0.0003589653    
0.0769781290    0.0196939560    0.0003535998    
0.0772007900    0.0197291770    0.0003510774    
0.0774234510    0.0200743060    0.0003561492    
0.0776461120    0.0195317090    0.0003509697    
0.0778687730    0.0194028750    0.0003486547    
0.0780914340    0.0200052460    0.0003565550    
0.0783140950    0.0194739560    0.0003462071    
0.0785367560    0.0194015840    0.0003511347    
0.0787594170    0.0200104380    0.0003534067    
0.0789820780    0.0193302100    0.0003455682    
0.0792047390    0.0194754700    0.0003479983    
0.0794274000    0.0197662760    0.0003520722    
0.0796500610    0.0190748540    0.0003424840    
0.0798727220    0.0202304010    0.0003523797    
0.0800953830    0.0197586600    0.0003474461    
0.0803180440    0.0191861780    0.0003447608    
0.0805407050    0.0190206550    0.0003429512    
0.0807633660    0.0202815000    0.0003538069    
0.0809860270    0.0190108210    0.0003412793    
0.0812086880    0.0197674780    0.0003449974    
0.0814313490    0.0196929970    0.0003459173    
0.0816540100    0.0194643130    0.0003431200    
0.0818766710    0.0197720440    0.0003466114    
0.0820993320    0.0193549600    0.0003423111    
0.0823219930    0.0192402600    0.0003427030    
0.0825446540    0.0191000580    0.0003389712    
0.0827673150    0.0194259320    0.0003395540    
0.0829899760    0.0197116750    0.0003414333    
0.0832126370    0.0199363870    0.0003449119    
0.0834352980    0.0191760540    0.0003375145    
0.0836579590    0.0194633700    0.0003392767    
0.0838806200    0.0196627370    0.0003420771    
0.0841032810    0.0194663930    0.0003382520    
0.0843259420    0.0200067580    0.0003418585    
0.0845486030    0.0195277930    0.0003377419    
0.0847712640    0.0191000820    0.0003319871    
0.0849939250    0.0188713440    0.0003305679    
0.0852165860    0.0190079030    0.0003321964    
0.0854392470    0.0191736560    0.0003304821    
0.0856619080    0.0188732930    0.0003302981    
0.0858845690    0.0192444630    0.0003305263    
0.0861072300    0.0191715100    0.0003321766    
0.0863298910    0.0196461630    0.0003380243    
0.0865525520    0.0200799870    0.0003387851    
0.0867752130    0.0189417570    0.0003263880    
0.0869978740    0.0199428670    0.0003357556    
0.0872205350    0.0192099100    0.0003291086    
0.0874431960    0.0197512240    0.0003337136    
0.0876658570    0.0198065980    0.0003354642    
0.0878885180    0.0191448150    0.0003303778    
0.0881111790    0.0197496760    0.0003351256    
0.0883338400    0.0192804930    0.0003262729    
0.0885565010    0.0192681050    0.0003305912    
0.0887791620    0.0197828640    0.0003306341    
0.0890018230    0.0190868320    0.0003279157    
0.0892244840    0.0195757450    0.0003326535    
0.0894471450    0.0191696960    0.0003277949    
0.0896698060    0.0199543680    0.0003331749    
0.0898924670    0.0189943960    0.0003265687    
0.0901151280    0.0193719270    0.0003262358    
0.0903377890    0.0204125930    0.0003376867    
0.0905604500    0.0192237920    0.0003262020    
0.0907831110    0.0201857410    0.0003334323    
0.0910057720    0.0198044750    0.0003317840    
0.0912284330    0.0195600420    0.0003250091    
0.0914510940    0.0197060760    0.0003298579    
0.0916737550    0.0190205250    0.0003232652    
0.0918964160    0.0194117350    0.0003279309    
0.0921190770    0.0197803920    0.0003280371    
0.0923417380    0.0200252980    0.0003301970    
0.0925643990    0.0189413320    0.0003203501    
0.0927870600    0.0201184960    0.0003315085    
0.0930097210    0.0197289330    0.0003254873    
0.0932323820    0.0193225620    0.0003244855    
