# Diamond Light Source Ltd.
# Data extracted from: /dls/b21/data/2018/cm19678-3/processed/b21-386631_00390.dat
q(1/A)          Column          Error           
0.0035000000    2.1110267000    0.0246992420    
0.0037226610    1.8635483000    0.0227177540    
0.0039453220    1.6135263000    0.0192304630    
0.0041679830    1.2902189000    0.0141220640    
0.0043906440    0.9848325100    0.0118013850    
0.0046133050    0.7810441900    0.0100891240    
0.0048359660    0.5927162000    0.0083135544    
0.0050586270    0.4639123200    0.0072292416    
0.0052812880    0.4179321400    0.0064875651    
0.0055039490    0.3793132900    0.0058767664    
0.0057266100    0.3100910000    0.0051404144    
0.0059492710    0.2576848800    0.0046859542    
0.0061719320    0.2314453100    0.0042794253    
0.0063945930    0.2064509700    0.0040907455    
0.0066172539    0.1856769900    0.0036428267    
0.0068399149    0.1705277700    0.0034360772    
0.0070625759    0.1508379800    0.0031984776    
0.0072852369    0.1264177500    0.0028843261    
0.0075078979    0.1184665700    0.0027784263    
0.0077305589    0.0956238330    0.0024486755    
0.0079532199    0.1017728800    0.0024911731    
0.0081758809    0.0852261020    0.0023008885    
0.0083985419    0.0821373780    0.0021067793    
0.0086212029    0.0768416900    0.0020377322    
0.0088438639    0.0744955990    0.0019902679    
0.0090665249    0.0640359720    0.0017822182    
0.0092891859    0.0621434500    0.0018325104    
0.0095118469    0.0627183730    0.0017704062    
0.0097345079    0.0596312880    0.0016765979    
0.0099571689    0.0527662680    0.0015446175    
0.0101798300    0.0508672340    0.0015165679    
0.0104024910    0.0484576940    0.0014752038    
0.0106251520    0.0443110280    0.0014154639    
0.0108478130    0.0453259020    0.0013941483    
0.0110704740    0.0426007950    0.0012868041    
0.0112931350    0.0421476330    0.0012837008    
0.0115157960    0.0412324750    0.0012622843    
0.0117384570    0.0366136060    0.0011792449    
0.0119611180    0.0380082130    0.0012049413    
0.0121837790    0.0388091310    0.0011971059    
0.0124064400    0.0341828490    0.0010766586    
0.0126291010    0.0340931010    0.0010617864    
0.0128517620    0.0366563750    0.0011037272    
0.0130744230    0.0333643170    0.0010451898    
0.0132970840    0.0324876320    0.0010263233    
0.0135197450    0.0333593670    0.0010251085    
0.0137424060    0.0326820350    0.0010005225    
0.0139650670    0.0316815130    0.0009631464    
0.0141877280    0.0299982800    0.0009392826    
0.0144103890    0.0290011100    0.0009076152    
0.0146330500    0.0295034120    0.0009096291    
0.0148557110    0.0288393730    0.0008955636    
0.0150783720    0.0262038020    0.0008466064    
0.0153010330    0.0275438690    0.0008557464    
0.0155236940    0.0264816670    0.0008340941    
0.0157463550    0.0266374980    0.0008220510    
0.0159690160    0.0255545170    0.0008021113    
0.0161916770    0.0263129420    0.0008093417    
0.0164143380    0.0271175080    0.0008278467    
0.0166369990    0.0261120270    0.0007873072    
0.0168596600    0.0267733730    0.0007901911    
0.0170823210    0.0252574670    0.0007608499    
0.0173049820    0.0238269380    0.0007402669    
0.0175276430    0.0255064400    0.0007739893    
0.0177503040    0.0237095650    0.0007272052    
0.0179729650    0.0235695830    0.0007178646    
0.0181956260    0.0234317630    0.0007020408    
0.0184182870    0.0237739840    0.0007038160    
0.0186409480    0.0233373600    0.0007017367    
0.0188636090    0.0229822280    0.0006919973    
0.0190862700    0.0241566760    0.0007083491    
0.0193089310    0.0232531780    0.0006938929    
0.0195315920    0.0234181140    0.0006726677    
0.0197542530    0.0235057750    0.0006749074    
0.0199769140    0.0247653680    0.0006927545    
0.0201995750    0.0233011160    0.0006614406    
0.0204222360    0.0228624760    0.0006608094    
0.0206448970    0.0238190450    0.0006696981    
0.0208675580    0.0220353870    0.0006308713    
0.0210902190    0.0218550780    0.0006343472    
0.0213128800    0.0223588610    0.0006329106    
0.0215355410    0.0215319630    0.0006136978    
0.0217582020    0.0229662700    0.0006338086    
0.0219808630    0.0222081780    0.0006224418    
0.0222035240    0.0229210260    0.0006266225    
0.0224261850    0.0213705880    0.0005996732    
0.0226488460    0.0212000160    0.0005927901    
0.0228715070    0.0210783210    0.0005896178    
0.0230941680    0.0206659990    0.0005838225    
0.0233168290    0.0212994950    0.0005941796    
0.0235394900    0.0207184720    0.0005795519    
0.0237621510    0.0205850440    0.0005621308    
0.0239848120    0.0210481270    0.0005690762    
0.0242074730    0.0215149750    0.0005707472    
0.0244301340    0.0219434880    0.0005770607    
0.0246527950    0.0215170360    0.0005767171    
0.0248754560    0.0202357780    0.0005467133    
0.0250981170    0.0205041640    0.0005515540    
0.0253207780    0.0199403830    0.0005276785    
0.0255434390    0.0205251960    0.0005410743    
0.0257661000    0.0211032320    0.0005504151    
0.0259887610    0.0208678710    0.0005415205    
0.0262114220    0.0208351820    0.0005439791    
0.0264340830    0.0211702960    0.0005408758    
0.0266567440    0.0208958320    0.0005340379    
0.0268794050    0.0204548650    0.0005262164    
0.0271020660    0.0212698210    0.0005344244    
0.0273247270    0.0213998490    0.0005328360    
0.0275473880    0.0216583440    0.0005349778    
0.0277700490    0.0204628300    0.0005169294    
0.0279927100    0.0206590730    0.0005148704    
0.0282153710    0.0210677470    0.0005224658    
0.0284380320    0.0201326210    0.0005077782    
0.0286606930    0.0210483330    0.0005147538    
0.0288833540    0.0198141710    0.0005003834    
0.0291060150    0.0202054120    0.0005048199    
0.0293286760    0.0206763710    0.0005035534    
0.0295513370    0.0200845430    0.0004908900    
0.0297739980    0.0208358190    0.0005054915    
0.0299966590    0.0206870280    0.0004950807    
0.0302193200    0.0191234620    0.0004829403    
0.0304419810    0.0215319410    0.0005133934    
0.0306646420    0.0216283480    0.0005000189    
0.0308873030    0.0200323130    0.0004791377    
0.0311099640    0.0208161420    0.0004896899    
0.0313326250    0.0208531920    0.0004846959    
0.0315552860    0.0202759000    0.0004841337    
0.0317779470    0.0207860130    0.0004906129    
0.0320006080    0.0198632690    0.0004687028    
0.0322232690    0.0206544600    0.0004799471    
0.0324459300    0.0200505770    0.0004693485    
0.0326685910    0.0204991940    0.0004737878    
0.0328912520    0.0199738030    0.0004692256    
0.0331139130    0.0205742960    0.0004700318    
0.0333365740    0.0194868210    0.0004589265    
0.0335592350    0.0199831730    0.0004602659    
0.0337818960    0.0200466230    0.0004606290    
0.0340045570    0.0195926200    0.0004546598    
0.0342272170    0.0212911270    0.0004720882    
0.0344498780    0.0207848730    0.0004682893    
0.0346725390    0.0205506400    0.0004570196    
0.0348952000    0.0200919080    0.0004498314    
0.0351178610    0.0201746150    0.0004528194    
0.0353405220    0.0197797280    0.0004463233    
0.0355631830    0.0198709110    0.0004456661    
0.0357858440    0.0201807820    0.0004491277    
0.0360085050    0.0202224700    0.0004509498    
0.0362311660    0.0203631030    0.0004471359    
0.0364538270    0.0198153330    0.0004375408    
0.0366764880    0.0193524580    0.0004320865    
0.0368991490    0.0202179140    0.0004394160    
0.0371218100    0.0200359260    0.0004361825    
0.0373444710    0.0196692800    0.0004368794    
0.0375671320    0.0204344410    0.0004446474    
0.0377897930    0.0207489320    0.0004364570    
0.0380124540    0.0200897660    0.0004321629    
0.0382351150    0.0189834940    0.0004200957    
0.0384577760    0.0197313360    0.0004241582    
0.0386804370    0.0201077010    0.0004314520    
0.0389030980    0.0196310650    0.0004230794    
0.0391257590    0.0195543220    0.0004193851    
0.0393484200    0.0198249600    0.0004208561    
0.0395710810    0.0198784110    0.0004219908    
0.0397937420    0.0193050950    0.0004158611    
0.0400164030    0.0192457350    0.0004169104    
0.0402390640    0.0200378770    0.0004197392    
0.0404617250    0.0198282180    0.0004150743    
0.0406843860    0.0200690180    0.0004135525    
0.0409070470    0.0198629010    0.0004157093    
0.0411297080    0.0202057360    0.0004152253    
0.0413523690    0.0197782730    0.0004118686    
0.0415750300    0.0204733630    0.0004226031    
0.0417976910    0.0198088170    0.0004049367    
0.0420203520    0.0194909100    0.0004031835    
0.0422430130    0.0201933940    0.0004119386    
0.0424656740    0.0197693990    0.0004022860    
0.0426883350    0.0201645460    0.0004083030    
0.0429109960    0.0202241930    0.0004101840    
0.0431336570    0.0194561620    0.0003966517    
0.0433563180    0.0203773800    0.0004094353    
0.0435789790    0.0203877130    0.0004031051    
0.0438016400    0.0198447130    0.0003998643    
0.0440243010    0.0199493090    0.0003968489    
0.0442469620    0.0200932280    0.0004006644    
0.0444696230    0.0197352100    0.0003956549    
0.0446922840    0.0200439680    0.0003975538    
0.0449149450    0.0189359600    0.0003812438    
0.0451376060    0.0191784460    0.0003884155    
0.0453602670    0.0198567830    0.0003910816    
0.0455829280    0.0193882350    0.0003859932    
0.0458055890    0.0194906220    0.0003892678    
0.0460282500    0.0196152690    0.0003858016    
0.0462509110    0.0187500260    0.0003748506    
0.0464735720    0.0193038800    0.0003805614    
0.0466962330    0.0196084900    0.0003852958    
0.0469188940    0.0201373510    0.0003893502    
0.0471415550    0.0195461540    0.0003855625    
0.0473642160    0.0201486890    0.0003859789    
0.0475868770    0.0194877890    0.0003777100    
0.0478095380    0.0195861080    0.0003770046    
0.0480321990    0.0197813580    0.0003797093    
0.0482548600    0.0198477970    0.0003786893    
0.0484775210    0.0204649730    0.0003883499    
0.0487001820    0.0195768400    0.0003742696    
0.0489228430    0.0194485930    0.0003728412    
0.0491455040    0.0193990160    0.0003697903    
0.0493681650    0.0197338600    0.0003761732    
0.0495908260    0.0194704890    0.0003673677    
0.0498134870    0.0197369890    0.0003733943    
0.0500361480    0.0200823990    0.0003756509    
0.0502588090    0.0195532710    0.0003651151    
0.0504814700    0.0193331470    0.0003678003    
0.0507041310    0.0197779550    0.0003675844    
0.0509267920    0.0196250690    0.0003676757    
0.0511494530    0.0195069560    0.0003641234    
0.0513721140    0.0191465060    0.0003639205    
0.0515947750    0.0189991060    0.0003577104    
0.0518174360    0.0191967610    0.0003574004    
0.0520400970    0.0195942390    0.0003585779    
0.0522627580    0.0189943310    0.0003560464    
0.0524854190    0.0195215170    0.0003638884    
0.0527080800    0.0192739020    0.0003643727    
0.0529307410    0.0194831820    0.0003680661    
0.0531534020    0.0196522030    0.0003683134    
0.0533760630    0.0196781880    0.0003697105    
0.0535987240    0.0199008700    0.0003700607    
0.0538213850    0.0194281310    0.0003698752    
0.0540440460    0.0190563410    0.0003645853    
0.0542667070    0.0202887290    0.0003787822    
0.0544893680    0.0198431250    0.0003747991    
0.0547120290    0.0198654450    0.0003724407    
0.0549346900    0.0199003340    0.0003729638    
0.0551573510    0.0193984770    0.0003725657    
0.0553800120    0.0201533420    0.0003765171    
0.0556026730    0.0197664350    0.0003806167    
0.0558253340    0.0195920930    0.0003821075    
0.0560479950    0.0202106540    0.0003880928    
0.0562706560    0.0191902780    0.0003818252    
0.0564933170    0.0191849090    0.0003850870    
0.0567159780    0.0200329760    0.0003887883    
0.0569386390    0.0190395150    0.0003849707    
0.0571613000    0.0205759210    0.0003915850    
0.0573839610    0.0198911880    0.0003818175    
0.0576066220    0.0200235800    0.0003841465    
0.0578292830    0.0200962750    0.0003835698    
0.0580519440    0.0195367670    0.0003796590    
0.0582746050    0.0199937650    0.0003823801    
0.0584972660    0.0199208230    0.0003802210    
0.0587199270    0.0195503250    0.0003734216    
0.0589425880    0.0192517990    0.0003683922    
0.0591652490    0.0201423690    0.0003790340    
0.0593879100    0.0192259220    0.0003675608    
0.0596105710    0.0196341630    0.0003710508    
0.0598332320    0.0195860910    0.0003737640    
0.0600558930    0.0201610410    0.0003767925    
0.0602785540    0.0195914100    0.0003710388    
0.0605012150    0.0198028350    0.0003722495    
0.0607238760    0.0202600150    0.0003737781    
0.0609465370    0.0191162540    0.0003659325    
0.0611691980    0.0190995990    0.0003663528    
0.0613918590    0.0199497450    0.0003703298    
0.0616145200    0.0195034370    0.0003688439    
0.0618371810    0.0195325660    0.0003654940    
0.0620598420    0.0199703490    0.0003699482    
0.0622825030    0.0200136020    0.0003760122    
0.0625051640    0.0192768400    0.0003638435    
0.0627278250    0.0193479950    0.0003637638    
0.0629504860    0.0198488270    0.0003654465    
0.0631731470    0.0195086030    0.0003667834    
0.0633958080    0.0192176130    0.0003661328    
0.0636184690    0.0198068390    0.0003768802    
0.0638411300    0.0198505880    0.0003758799    
0.0640637910    0.0188099220    0.0003684680    
0.0642864520    0.0190304460    0.0003698197    
0.0645091130    0.0191314140    0.0003740488    
0.0647317740    0.0198919000    0.0003818312    
0.0649544350    0.0193508560    0.0003761883    
0.0651770960    0.0195526330    0.0003760817    
0.0653997570    0.0194175040    0.0003739672    
0.0656224180    0.0194658740    0.0003752468    
0.0658450790    0.0198519670    0.0003735032    
0.0660677400    0.0201488730    0.0003778873    
0.0662904010    0.0187966970    0.0003693445    
0.0665130620    0.0197059700    0.0003765319    
0.0667357230    0.0200701110    0.0003867511    
0.0669583840    0.0186701380    0.0003717706    
0.0671810450    0.0198116780    0.0003808530    
0.0674037060    0.0196179090    0.0003854065    
0.0676263670    0.0188840340    0.0003753606    
0.0678490280    0.0194349970    0.0003784682    
0.0680716890    0.0197066640    0.0003819523    
0.0682943500    0.0200015160    0.0003805845    
0.0685170110    0.0194114930    0.0003711085    
0.0687396720    0.0197460300    0.0003732982    
0.0689623330    0.0204625840    0.0003788068    
0.0691849940    0.0187278620    0.0003649054    
0.0694076550    0.0202633150    0.0003793670    
0.0696303160    0.0197340160    0.0003714155    
0.0698529770    0.0201595500    0.0003746119    
0.0700756380    0.0184310360    0.0003535940    
0.0702982990    0.0192852490    0.0003656341    
0.0705209600    0.0199643250    0.0003693300    
0.0707436210    0.0196121330    0.0003643767    
0.0709662820    0.0192506610    0.0003653068    
0.0711889430    0.0196801490    0.0003648227    
0.0714116040    0.0194414260    0.0003633435    
0.0716342650    0.0190818040    0.0003585058    
0.0718569260    0.0201110150    0.0003665648    
0.0720795870    0.0190683820    0.0003583801    
0.0723022480    0.0194508350    0.0003625078    
0.0725249090    0.0190141250    0.0003541229    
0.0727475700    0.0193671600    0.0003604479    
0.0729702310    0.0195017860    0.0003588138    
0.0731928920    0.0194849600    0.0003600924    
0.0734155530    0.0193873940    0.0003584730    
0.0736382140    0.0200619670    0.0003623159    
0.0738608750    0.0188439330    0.0003534135    
0.0740835360    0.0190934420    0.0003548624    
0.0743061970    0.0198096360    0.0003563668    
0.0745288580    0.0201340500    0.0003629672    
0.0747515190    0.0195238840    0.0003581309    
0.0749741800    0.0202925480    0.0003617331    
0.0751968410    0.0190470380    0.0003532078    
0.0754195020    0.0202227510    0.0003618135    
0.0756421630    0.0189892310    0.0003477391    
0.0758648240    0.0197141010    0.0003551658    
0.0760874850    0.0194139030    0.0003522820    
0.0763101460    0.0192299230    0.0003502724    
0.0765328070    0.0194691970    0.0003560512    
0.0767554680    0.0188718560    0.0003481679    
0.0769781290    0.0195953490    0.0003527403    
0.0772007900    0.0199883510    0.0003534027    
0.0774234510    0.0196665790    0.0003525405    
0.0776461120    0.0196797480    0.0003523240    
0.0778687730    0.0200637500    0.0003545696    
0.0780914340    0.0194044740    0.0003511870    
0.0783140950    0.0200801790    0.0003515812    
0.0785367560    0.0193346140    0.0003505548    
0.0787594170    0.0197388040    0.0003510265    
0.0789820780    0.0197656520    0.0003494653    
0.0792047390    0.0199324240    0.0003520839    
0.0794274000    0.0196940120    0.0003514547    
0.0796500610    0.0192807030    0.0003443532    
0.0798727220    0.0195213700    0.0003461758    
0.0800953830    0.0197555480    0.0003474451    
0.0803180440    0.0202362180    0.0003540962    
0.0805407050    0.0193575040    0.0003460009    
0.0807633660    0.0196055450    0.0003478874    
0.0809860270    0.0191240010    0.0003423197    
0.0812086880    0.0189394310    0.0003377199    
0.0814313490    0.0193982050    0.0003433445    
0.0816540100    0.0200903640    0.0003486209    
0.0818766710    0.0195501900    0.0003446874    
0.0820993320    0.0191217510    0.0003402684    
0.0823219930    0.0189379270    0.0003400255    
0.0825446540    0.0196986080    0.0003442676    
0.0827673150    0.0198918970    0.0003436283    
0.0829899760    0.0199216910    0.0003432734    
0.0832126370    0.0193485710    0.0003398149    
0.0834352980    0.0187452390    0.0003337270    
0.0836579590    0.0188097560    0.0003335566    
0.0838806200    0.0195228700    0.0003408841    
0.0841032810    0.0197162400    0.0003404416    
0.0843259420    0.0195365700    0.0003378432    
0.0845486030    0.0193730150    0.0003364263    
0.0847712640    0.0189471550    0.0003306805    
0.0849939250    0.0200440730    0.0003407102    
0.0852165860    0.0195682200    0.0003370826    
0.0854392470    0.0197576740    0.0003355029    
0.0856619080    0.0195583580    0.0003362648    
0.0858845690    0.0198435420    0.0003356569    
0.0861072300    0.0199975780    0.0003392833    
0.0863298910    0.0190325640    0.0003327290    
0.0865525520    0.0194884890    0.0003337833    
0.0867752130    0.0187421350    0.0003246882    
0.0869978740    0.0193183440    0.0003304817    
0.0872205350    0.0192804960    0.0003297377    
0.0874431960    0.0196639940    0.0003330012    
0.0876658570    0.0192754370    0.0003309606    
0.0878885180    0.0191078050    0.0003300833    
0.0881111790    0.0189279860    0.0003281049    
0.0883338400    0.0190514880    0.0003243541    
0.0885565010    0.0195149660    0.0003327274    
0.0887791620    0.0190065900    0.0003241068    
0.0890018230    0.0192305910    0.0003291732    
0.0892244840    0.0192564550    0.0003299545    
0.0894471450    0.0189427580    0.0003258736    
0.0896698060    0.0194343970    0.0003288303    
0.0898924670    0.0194465200    0.0003304575    
0.0901151280    0.0195067430    0.0003273939    
0.0903377890    0.0195776080    0.0003307330    
0.0905604500    0.0192931420    0.0003268147    
0.0907831110    0.0194892190    0.0003276540    
0.0910057720    0.0194739270    0.0003290285    
0.0912284330    0.0197736560    0.0003268038    
0.0914510940    0.0195599650    0.0003286577    
0.0916737550    0.0199905170    0.0003314307    
0.0918964160    0.0200075380    0.0003329507    
0.0921190770    0.0192120910    0.0003233149    
0.0923417380    0.0193857750    0.0003249063    
0.0925643990    0.0190363260    0.0003211767    
0.0927870600    0.0190288770    0.0003224307    
0.0930097210    0.0193398660    0.0003222863    
0.0932323820    0.0194671920    0.0003257224    
