# Diamond Light Source Ltd.
# Data extracted from: /dls/b21/data/2018/cm19678-3/processed/b21-386631_00384.dat
q(1/A)          Column          Error           
0.0035000000    2.0903050000    0.0245714270    
0.0037226610    1.9085431000    0.0229844880    
0.0039453220    1.6108676000    0.0192096920    
0.0041679830    1.2960470000    0.0141503000    
0.0043906440    0.9819253900    0.0117809370    
0.0046133050    0.7773878100    0.0100629040    
0.0048359660    0.5960257100    0.0083345974    
0.0050586270    0.4640125800    0.0072281716    
0.0052812880    0.4381511200    0.0066409405    
0.0055039490    0.3890384200    0.0059501023    
0.0057266100    0.3144462100    0.0051750616    
0.0059492710    0.2602783700    0.0047082704    
0.0061719320    0.2260280400    0.0042279632    
0.0063945930    0.2036717700    0.0040620775    
0.0066172539    0.1865105400    0.0036500596    
0.0068399149    0.1632436200    0.0033610290    
0.0070625759    0.1443208800    0.0031278170    
0.0072852369    0.1279316100    0.0029008019    
0.0075078979    0.1165171500    0.0027547659    
0.0077305589    0.0995232110    0.0024974634    
0.0079532199    0.0988562560    0.0024545887    
0.0081758809    0.0931916030    0.0024053952    
0.0083985419    0.0819873020    0.0021043148    
0.0086212029    0.0789627500    0.0020651356    
0.0088438639    0.0731819530    0.0019721368    
0.0090665249    0.0653417480    0.0017998365    
0.0092891859    0.0620576210    0.0018307756    
0.0095118469    0.0578411870    0.0016997417    
0.0097345079    0.0582344140    0.0016564200    
0.0099571689    0.0537334780    0.0015583106    
0.0101798300    0.0488527330    0.0014858536    
0.0104024910    0.0479840140    0.0014676001    
0.0106251520    0.0466383340    0.0014517879    
0.0108478130    0.0450026770    0.0013888128    
0.0110704740    0.0412581010    0.0012660387    
0.0112931350    0.0429076120    0.0012948909    
0.0115157960    0.0403230210    0.0012479662    
0.0117384570    0.0395938160    0.0012259851    
0.0119611180    0.0369197210    0.0011872582    
0.0121837790    0.0407084240    0.0012257348    
0.0124064400    0.0356566910    0.0010993429    
0.0126291010    0.0360256580    0.0010911857    
0.0128517620    0.0332495410    0.0010509175    
0.0130744230    0.0329218040    0.0010379696    
0.0132970840    0.0314664060    0.0010098050    
0.0135197450    0.0317995370    0.0010005991    
0.0137424060    0.0306141530    0.0009681045    
0.0139650670    0.0309336540    0.0009514670    
0.0141877280    0.0310705360    0.0009556773    
0.0144103890    0.0298095730    0.0009199434    
0.0146330500    0.0308618100    0.0009300959    
0.0148557110    0.0294639180    0.0009049770    
0.0150783720    0.0294436790    0.0008971896    
0.0153010330    0.0275829120    0.0008561334    
0.0155236940    0.0269670110    0.0008414873    
0.0157463550    0.0255081930    0.0008042308    
0.0159690160    0.0251388090    0.0007953567    
0.0161916770    0.0275684120    0.0008282127    
0.0164143380    0.0262700540    0.0008145998    
0.0166369990    0.0251733410    0.0007728286    
0.0168596600    0.0250580480    0.0007642633    
0.0170823210    0.0250154550    0.0007570021    
0.0173049820    0.0240675980    0.0007438055    
0.0175276430    0.0253994820    0.0007721670    
0.0177503040    0.0247897810    0.0007433961    
0.0179729650    0.0244534880    0.0007310141    
0.0181956260    0.0242606910    0.0007141678    
0.0184182870    0.0238451130    0.0007046876    
0.0186409480    0.0232410520    0.0007001079    
0.0188636090    0.0227205560    0.0006878703    
0.0190862700    0.0236875800    0.0007012581    
0.0193089310    0.0224134440    0.0006810741    
0.0195315920    0.0228074520    0.0006636694    
0.0197542530    0.0230482690    0.0006681359    
0.0199769140    0.0232806970    0.0006714965    
0.0201995750    0.0215814370    0.0006364019    
0.0204222360    0.0239198120    0.0006757440    
0.0206448970    0.0221507200    0.0006456537    
0.0208675580    0.0219518950    0.0006295138    
0.0210902190    0.0227272120    0.0006467146    
0.0213128800    0.0225443850    0.0006353683    
0.0215355410    0.0223600980    0.0006252280    
0.0217582020    0.0218880790    0.0006185937    
0.0219808630    0.0214993430    0.0006122709    
0.0222035240    0.0222757750    0.0006175813    
0.0224261850    0.0220828460    0.0006094284    
0.0226488460    0.0221169120    0.0006053184    
0.0228715070    0.0213972240    0.0005939092    
0.0230941680    0.0213807470    0.0005936806    
0.0233168290    0.0221500730    0.0006057724    
0.0235394900    0.0210319310    0.0005837700    
0.0237621510    0.0212495810    0.0005709860    
0.0239848120    0.0219600410    0.0005811243    
0.0242074730    0.0206867780    0.0005595110    
0.0244301340    0.0206278450    0.0005593510    
0.0246527950    0.0210116280    0.0005697577    
0.0248754560    0.0208749920    0.0005551389    
0.0250981170    0.0208495610    0.0005560377    
0.0253207780    0.0204884410    0.0005347440    
0.0255434390    0.0221969200    0.0005625335    
0.0257661000    0.0213650500    0.0005536771    
0.0259887610    0.0209555030    0.0005425174    
0.0262114220    0.0216478420    0.0005543444    
0.0264340830    0.0206622370    0.0005342094    
0.0266567440    0.0209260580    0.0005342872    
0.0268794050    0.0213644570    0.0005376514    
0.0271020660    0.0202389310    0.0005211790    
0.0273247270    0.0210176030    0.0005279205    
0.0275473880    0.0206963080    0.0005228274    
0.0277700490    0.0210527410    0.0005241933    
0.0279927100    0.0210075990    0.0005190623    
0.0282153710    0.0212382630    0.0005244415    
0.0284380320    0.0213639570    0.0005229420    
0.0286606930    0.0205971770    0.0005090769    
0.0288833540    0.0205113120    0.0005089797    
0.0291060150    0.0198547000    0.0005002914    
0.0293286760    0.0208496440    0.0005055295    
0.0295513370    0.0206618570    0.0004977677    
0.0297739980    0.0202613150    0.0004983463    
0.0299966590    0.0206882780    0.0004949689    
0.0302193200    0.0207958680    0.0005034862    
0.0304419810    0.0195144190    0.0004886245    
0.0306646420    0.0203810110    0.0004852622    
0.0308873030    0.0199876930    0.0004784813    
0.0311099640    0.0202067650    0.0004823455    
0.0313326250    0.0199642240    0.0004741307    
0.0315552860    0.0198149160    0.0004784760    
0.0317779470    0.0201619470    0.0004830681    
0.0320006080    0.0198641530    0.0004685932    
0.0322232690    0.0196741120    0.0004682985    
0.0324459300    0.0199854050    0.0004684651    
0.0326685910    0.0192628780    0.0004591608    
0.0328912520    0.0199305230    0.0004685969    
0.0331139130    0.0203813070    0.0004677023    
0.0333365740    0.0202006080    0.0004671363    
0.0335592350    0.0199517500    0.0004597861    
0.0337818960    0.0199094130    0.0004589323    
0.0340045570    0.0202363960    0.0004619508    
0.0342272170    0.0194807180    0.0004514557    
0.0344498780    0.0194349780    0.0004527114    
0.0346725390    0.0200322020    0.0004511025    
0.0348952000    0.0200916870    0.0004497137    
0.0351178610    0.0202760270    0.0004538398    
0.0353405220    0.0197696010    0.0004460948    
0.0355631830    0.0201804270    0.0004490086    
0.0357858440    0.0202503720    0.0004497862    
0.0360085050    0.0202121160    0.0004507189    
0.0362311660    0.0192830330    0.0004350048    
0.0364538270    0.0201914420    0.0004415606    
0.0366764880    0.0196896740    0.0004357232    
0.0368991490    0.0195680210    0.0004321853    
0.0371218100    0.0198358510    0.0004338881    
0.0373444710    0.0191354810    0.0004308002    
0.0375671320    0.0196213310    0.0004355996    
0.0377897930    0.0205180780    0.0004339111    
0.0380124540    0.0201166470    0.0004323412    
0.0382351150    0.0194011950    0.0004245836    
0.0384577760    0.0197030060    0.0004237451    
0.0386804370    0.0194867110    0.0004246287    
0.0389030980    0.0202498330    0.0004295853    
0.0391257590    0.0196432000    0.0004202295    
0.0393484200    0.0194844140    0.0004171190    
0.0395710810    0.0192951970    0.0004156479    
0.0397937420    0.0191519510    0.0004141023    
0.0400164030    0.0199128830    0.0004239664    
0.0402390640    0.0190961000    0.0004096518    
0.0404617250    0.0190538290    0.0004067841    
0.0406843860    0.0199991190    0.0004127260    
0.0409070470    0.0204266600    0.0004214595    
0.0411297080    0.0198286670    0.0004112274    
0.0413523690    0.0200510380    0.0004145928    
0.0415750300    0.0190242890    0.0004072687    
0.0417976910    0.0197655810    0.0004043910    
0.0420203520    0.0199644110    0.0004079470    
0.0422430130    0.0201998540    0.0004118990    
0.0424656740    0.0193583640    0.0003979800    
0.0426883350    0.0197906360    0.0004043961    
0.0429109960    0.0200807980    0.0004086226    
0.0431336570    0.0204645790    0.0004066970    
0.0433563180    0.0197420420    0.0004028988    
0.0435789790    0.0202816810    0.0004019525    
0.0438016400    0.0199956130    0.0004012789    
0.0440243010    0.0197891770    0.0003951518    
0.0442469620    0.0196437500    0.0003960562    
0.0444696230    0.0194238370    0.0003924208    
0.0446922840    0.0195056730    0.0003920788    
0.0449149450    0.0193328690    0.0003851200    
0.0451376060    0.0200728070    0.0003972672    
0.0453602670    0.0197773300    0.0003901985    
0.0455829280    0.0203844740    0.0003956845    
0.0458055890    0.0194029370    0.0003882918    
0.0460282500    0.0197114050    0.0003866468    
0.0462509110    0.0194819530    0.0003819991    
0.0464735720    0.0200813530    0.0003880500    
0.0466962330    0.0202794780    0.0003917323    
0.0469188940    0.0203000960    0.0003908203    
0.0471415550    0.0199694380    0.0003896151    
0.0473642160    0.0193845690    0.0003784923    
0.0475868770    0.0192143990    0.0003749552    
0.0478095380    0.0196123450    0.0003771605    
0.0480321990    0.0196255320    0.0003781139    
0.0482548600    0.0199676220    0.0003797334    
0.0484775210    0.0193422770    0.0003774507    
0.0487001820    0.0197742130    0.0003760552    
0.0489228430    0.0194957860    0.0003731977    
0.0491455040    0.0201288560    0.0003765858    
0.0493681650    0.0193654030    0.0003725494    
0.0495908260    0.0195228710    0.0003677674    
0.0498134870    0.0195927350    0.0003719320    
0.0500361480    0.0189413920    0.0003647299    
0.0502588090    0.0192298040    0.0003619898    
0.0504814700    0.0190714790    0.0003652093    
0.0507041310    0.0191191440    0.0003613179    
0.0509267920    0.0196356750    0.0003676809    
0.0511494530    0.0194018610    0.0003630482    
0.0513721140    0.0193441090    0.0003656999    
0.0515947750    0.0190028410    0.0003576540    
0.0518174360    0.0192999920    0.0003582683    
0.0520400970    0.0194792680    0.0003574328    
0.0522627580    0.0189179000    0.0003552383    
0.0524854190    0.0193962700    0.0003626263    
0.0527080800    0.0195256610    0.0003666508    
0.0529307410    0.0198901920    0.0003717955    
0.0531534020    0.0196283420    0.0003679955    
0.0533760630    0.0196542280    0.0003693908    
0.0535987240    0.0198838020    0.0003698072    
0.0538213850    0.0192070390    0.0003676704    
0.0540440460    0.0201620500    0.0003749174    
0.0542667070    0.0197411660    0.0003735402    
0.0544893680    0.0192669150    0.0003692227    
0.0547120290    0.0195133020    0.0003690304    
0.0549346900    0.0196456220    0.0003704743    
0.0551573510    0.0194314560    0.0003727868    
0.0553800120    0.0201711460    0.0003765870    
0.0556026730    0.0195951580    0.0003788671    
0.0558253340    0.0199917290    0.0003858861    
0.0560479950    0.0191947600    0.0003781164    
0.0562706560    0.0196891980    0.0003866578    
0.0564933170    0.0198935720    0.0003920344    
0.0567159780    0.0201886320    0.0003901959    
0.0569386390    0.0197377420    0.0003918657    
0.0571613000    0.0197534960    0.0003835811    
0.0573839610    0.0196172910    0.0003790825    
0.0576066220    0.0196523950    0.0003804719    
0.0578292830    0.0193249860    0.0003760408    
0.0580519440    0.0191211850    0.0003755031    
0.0582746050    0.0197788680    0.0003802223    
0.0584972660    0.0198308350    0.0003792641    
0.0587199270    0.0195617010    0.0003734346    
0.0589425880    0.0197421900    0.0003729592    
0.0591652490    0.0190983630    0.0003689859    
0.0593879100    0.0190896570    0.0003661621    
0.0596105710    0.0192176100    0.0003669997    
0.0598332320    0.0197257700    0.0003749984    
0.0600558930    0.0199958750    0.0003751499    
0.0602785540    0.0198693410    0.0003735657    
0.0605012150    0.0201284020    0.0003752009    
0.0607238760    0.0205391190    0.0003762475    
0.0609465370    0.0194495290    0.0003690141    
0.0611691980    0.0191600550    0.0003668382    
0.0613918590    0.0200151110    0.0003708410    
0.0616145200    0.0198071870    0.0003716098    
0.0618371810    0.0190098930    0.0003604783    
0.0620598420    0.0195628400    0.0003660604    
0.0622825030    0.0196008880    0.0003720198    
0.0625051640    0.0193493370    0.0003644337    
0.0627278250    0.0195431580    0.0003655003    
0.0629504860    0.0200942130    0.0003676044    
0.0631731470    0.0202705640    0.0003737820    
0.0633958080    0.0195005970    0.0003687242    
0.0636184690    0.0195530020    0.0003743616    
0.0638411300    0.0198973350    0.0003762259    
0.0640637910    0.0194640000    0.0003747237    
0.0642864520    0.0197174570    0.0003763394    
0.0645091130    0.0194139980    0.0003767046    
0.0647317740    0.0193615970    0.0003766106    
0.0649544350    0.0192605430    0.0003752133    
0.0651770960    0.0197522910    0.0003779002    
0.0653997570    0.0199618580    0.0003790758    
0.0656224180    0.0198897070    0.0003792129    
0.0658450790    0.0194765730    0.0003698602    
0.0660677400    0.0192247770    0.0003690255    
0.0662904010    0.0192440560    0.0003736182    
0.0665130620    0.0200266620    0.0003794862    
0.0667357230    0.0197767770    0.0003838162    
0.0669583840    0.0196964550    0.0003817544    
0.0671810450    0.0194429690    0.0003771958    
0.0674037060    0.0194792140    0.0003839434    
0.0676263670    0.0192770590    0.0003791495    
0.0678490280    0.0200732830    0.0003845344    
0.0680716890    0.0193710110    0.0003785885    
0.0682943500    0.0195352830    0.0003760263    
0.0685170110    0.0194866490    0.0003717310    
0.0687396720    0.0198276160    0.0003739728    
0.0689623330    0.0194358090    0.0003690861    
0.0691849940    0.0203030020    0.0003798439    
0.0694076550    0.0199405920    0.0003762376    
0.0696303160    0.0204225980    0.0003777431    
0.0698529770    0.0192308240    0.0003657875    
0.0700756380    0.0199403470    0.0003676929    
0.0702982990    0.0199335920    0.0003716342    
0.0705209600    0.0200701950    0.0003702131    
0.0707436210    0.0198930440    0.0003668830    
0.0709662820    0.0195248780    0.0003678052    
0.0711889430    0.0198728570    0.0003665107    
0.0714116040    0.0194586200    0.0003634111    
0.0716342650    0.0198058330    0.0003651504    
0.0718569260    0.0190055290    0.0003562563    
0.0720795870    0.0195567950    0.0003628479    
0.0723022480    0.0195624230    0.0003634531    
0.0725249090    0.0192219220    0.0003559615    
0.0727475700    0.0196723770    0.0003631841    
0.0729702310    0.0198745110    0.0003621337    
0.0731928920    0.0189628340    0.0003551441    
0.0734155530    0.0200068200    0.0003640614    
0.0736382140    0.0194238530    0.0003564160    
0.0738608750    0.0197485060    0.0003617040    
0.0740835360    0.0203427270    0.0003661940    
0.0743061970    0.0198187160    0.0003563572    
0.0745288580    0.0191754330    0.0003541304    
0.0747515190    0.0196846010    0.0003595099    
0.0749741800    0.0196247760    0.0003556404    
0.0751968410    0.0196199250    0.0003583884    
0.0754195020    0.0190025000    0.0003506378    
0.0756421630    0.0195077770    0.0003523648    
0.0758648240    0.0194865660    0.0003530198    
0.0760874850    0.0195573040    0.0003534901    
0.0763101460    0.0194050080    0.0003517733    
0.0765328070    0.0196219310    0.0003573535    
0.0767554680    0.0197160640    0.0003557790    
0.0769781290    0.0196805130    0.0003534155    
0.0772007900    0.0202841270    0.0003559167    
0.0774234510    0.0191827820    0.0003480881    
0.0776461120    0.0193985840    0.0003497086    
0.0778687730    0.0199219580    0.0003532240    
0.0780914340    0.0194580650    0.0003515816    
0.0783140950    0.0193746490    0.0003452610    
0.0785367560    0.0193945930    0.0003510082    
0.0787594170    0.0200531410    0.0003537199    
0.0789820780    0.0196196700    0.0003480832    
0.0792047390    0.0197916830    0.0003507488    
0.0794274000    0.0192827260    0.0003476764    
0.0796500610    0.0190372450    0.0003420846    
0.0798727220    0.0198181580    0.0003487081    
0.0800953830    0.0188598500    0.0003393904    
0.0803180440    0.0193402780    0.0003460802    
0.0805407050    0.0196937480    0.0003489036    
0.0807633660    0.0197559220    0.0003491296    
0.0809860270    0.0191877020    0.0003428015    
0.0812086880    0.0195376520    0.0003429242    
0.0814313490    0.0191817560    0.0003413362    
0.0816540100    0.0197233400    0.0003453333    
0.0818766710    0.0189874430    0.0003396034    
0.0820993320    0.0188275200    0.0003375539    
0.0823219930    0.0195384240    0.0003452859    
0.0825446540    0.0197246040    0.0003444065    
0.0827673150    0.0196265900    0.0003412417    
0.0829899760    0.0196750120    0.0003410542    
0.0832126370    0.0199172730    0.0003446844    
0.0834352980    0.0197570460    0.0003425276    
0.0836579590    0.0197046600    0.0003413118    
0.0838806200    0.0201732190    0.0003464267    
0.0841032810    0.0199587880    0.0003424415    
0.0843259420    0.0198126910    0.0003401352    
0.0845486030    0.0188142020    0.0003314538    
0.0847712640    0.0191047360    0.0003319677    
0.0849939250    0.0191250240    0.0003327223    
0.0852165860    0.0193550750    0.0003351560    
0.0854392470    0.0193831280    0.0003322225    
0.0856619080    0.0193749920    0.0003345991    
0.0858845690    0.0200319990    0.0003371607    
0.0861072300    0.0194004910    0.0003340942    
0.0863298910    0.0192088610    0.0003341809    
0.0865525520    0.0199584740    0.0003376976    
0.0867752130    0.0197332570    0.0003330774    
0.0869978740    0.0192406440    0.0003297320    
0.0872205350    0.0196144400    0.0003324959    
0.0874431960    0.0198230160    0.0003342593    
0.0876658570    0.0200436880    0.0003374052    
0.0878885180    0.0194798680    0.0003331962    
0.0881111790    0.0196118140    0.0003338937    
0.0883338400    0.0197206120    0.0003299164    
0.0885565010    0.0193802330    0.0003314919    
0.0887791620    0.0188919030    0.0003230447    
0.0890018230    0.0192826930    0.0003295344    
0.0892244840    0.0190544690    0.0003281354    
0.0894471450    0.0201769600    0.0003362360    
0.0896698060    0.0195412270    0.0003296484    
0.0898924670    0.0190773540    0.0003272220    
0.0901151280    0.0196065970    0.0003281468    
0.0903377890    0.0191431730    0.0003269592    
0.0905604500    0.0195654570    0.0003290288    
0.0907831110    0.0192535060    0.0003255832    
0.0910057720    0.0192250320    0.0003268353    
0.0912284330    0.0197743280    0.0003267257    
0.0914510940    0.0195720280    0.0003286748    
0.0916737550    0.0190576080    0.0003235219    
0.0918964160    0.0196373320    0.0003297715    
0.0921190770    0.0193436470    0.0003243369    
0.0923417380    0.0192071270    0.0003233230    
0.0925643990    0.0194869430    0.0003248726    
0.0927870600    0.0193576890    0.0003251213    
0.0930097210    0.0199150690    0.0003269602    
0.0932323820    0.0193864120    0.0003249626    
