# Diamond Light Source Ltd.
# Data extracted from: /dls/b21/data/2018/cm19678-3/processed/b21-386631_00395.dat
q(1/A)          Column          Error           
0.0035000000    2.1073136000    0.0246845370    
0.0037226610    1.8853923000    0.0228570180    
0.0039453220    1.6137574000    0.0192373160    
0.0041679830    1.2829114000    0.0140860250    
0.0043906440    0.9665741800    0.0116948070    
0.0046133050    0.7820106600    0.0100982390    
0.0048359660    0.5959706500    0.0083387206    
0.0050586270    0.4508757200    0.0071289711    
0.0052812880    0.4301610900    0.0065836699    
0.0055039490    0.3793471400    0.0058787020    
0.0057266100    0.3200727200    0.0052239803    
0.0059492710    0.2663578300    0.0047655162    
0.0061719320    0.2237391400    0.0042087767    
0.0063945930    0.1915645600    0.0039416243    
0.0066172539    0.1828508400    0.0036160264    
0.0068399149    0.1653599800    0.0033845755    
0.0070625759    0.1495666600    0.0031858770    
0.0072852369    0.1241851500    0.0028595574    
0.0075078979    0.1173604400    0.0027662122    
0.0077305589    0.1066577700    0.0025868310    
0.0079532199    0.0967667610    0.0024298229    
0.0081758809    0.0922979930    0.0023951297    
0.0083985419    0.0806702420    0.0020884734    
0.0086212029    0.0747227160    0.0020100119    
0.0088438639    0.0715586360    0.0019511961    
0.0090665249    0.0642213350    0.0017853041    
0.0092891859    0.0663421240    0.0018939438    
0.0095118469    0.0598539070    0.0017299973    
0.0097345079    0.0550429640    0.0016112628    
0.0099571689    0.0538368660    0.0015606528    
0.0101798300    0.0535654290    0.0015567137    
0.0104024910    0.0479460690    0.0014678132    
0.0106251520    0.0480460360    0.0014743320    
0.0108478130    0.0440645370    0.0013750041    
0.0110704740    0.0441807180    0.0013108216    
0.0112931350    0.0429540440    0.0012962921    
0.0115157960    0.0411012990    0.0012606337    
0.0117384570    0.0402067010    0.0012361057    
0.0119611180    0.0387178380    0.0012164839    
0.0121837790    0.0374641980    0.0011765150    
0.0124064400    0.0375954060    0.0011294445    
0.0126291010    0.0339470850    0.0010598120    
0.0128517620    0.0358791990    0.0010922751    
0.0130744230    0.0336454080    0.0010498822    
0.0132970840    0.0336740210    0.0010451926    
0.0135197450    0.0308883860    0.0009866933    
0.0137424060    0.0315973480    0.0009840594    
0.0139650670    0.0290628110    0.0009227452    
0.0141877280    0.0300742200    0.0009407385    
0.0144103890    0.0300691970    0.0009244406    
0.0146330500    0.0284258350    0.0008931173    
0.0148557110    0.0270470940    0.0008675360    
0.0150783720    0.0267934590    0.0008563227    
0.0153010330    0.0273733440    0.0008533362    
0.0155236940    0.0273379170    0.0008477128    
0.0157463550    0.0264749860    0.0008197729    
0.0159690160    0.0275339860    0.0008328351    
0.0161916770    0.0247338060    0.0007849036    
0.0164143380    0.0249329840    0.0007940280    
0.0166369990    0.0246780440    0.0007656018    
0.0168596600    0.0264852670    0.0007861518    
0.0170823210    0.0246526690    0.0007518994    
0.0173049820    0.0240476180    0.0007438989    
0.0175276430    0.0243459690    0.0007563925    
0.0177503040    0.0243479480    0.0007371400    
0.0179729650    0.0240642940    0.0007255658    
0.0181956260    0.0243290370    0.0007155599    
0.0184182870    0.0232454780    0.0006961472    
0.0186409480    0.0233717650    0.0007024537    
0.0188636090    0.0240168690    0.0007076038    
0.0190862700    0.0226740710    0.0006864630    
0.0193089310    0.0227484700    0.0006865166    
0.0195315920    0.0221941480    0.0006550396    
0.0197542530    0.0225497010    0.0006612275    
0.0199769140    0.0220068090    0.0006532195    
0.0201995750    0.0222999020    0.0006472583    
0.0204222360    0.0230474940    0.0006636667    
0.0206448970    0.0225138110    0.0006512760    
0.0208675580    0.0217407130    0.0006268173    
0.0210902190    0.0229912990    0.0006508130    
0.0213128800    0.0223357440    0.0006327635    
0.0215355410    0.0228743340    0.0006327187    
0.0217582020    0.0216142410    0.0006150445    
0.0219808630    0.0218891730    0.0006181311    
0.0222035240    0.0224541460    0.0006203844    
0.0224261850    0.0226455220    0.0006174776    
0.0226488460    0.0225388830    0.0006113961    
0.0228715070    0.0226085660    0.0006108193    
0.0230941680    0.0212553610    0.0005922575    
0.0233168290    0.0214608910    0.0005965964    
0.0235394900    0.0214926540    0.0005904486    
0.0237621510    0.0204892540    0.0005609811    
0.0239848120    0.0217836720    0.0005790991    
0.0242074730    0.0208909570    0.0005625695    
0.0244301340    0.0205894310    0.0005591322    
0.0246527950    0.0212972950    0.0005739281    
0.0248754560    0.0213409540    0.0005616040    
0.0250981170    0.0216886010    0.0005674223    
0.0253207780    0.0218658780    0.0005527258    
0.0255434390    0.0222066680    0.0005629614    
0.0257661000    0.0203395900    0.0005405185    
0.0259887610    0.0213578120    0.0005479966    
0.0262114220    0.0206481000    0.0005416856    
0.0264340830    0.0212238340    0.0005417135    
0.0266567440    0.0212764530    0.0005390332    
0.0268794050    0.0210489510    0.0005339554    
0.0271020660    0.0203548820    0.0005229525    
0.0273247270    0.0207748540    0.0005251469    
0.0275473880    0.0217367900    0.0005360984    
0.0277700490    0.0207619390    0.0005208419    
0.0279927100    0.0213127910    0.0005231019    
0.0282153710    0.0201852190    0.0005115513    
0.0284380320    0.0199262450    0.0005053128    
0.0286606930    0.0207958080    0.0005118023    
0.0288833540    0.0191047600    0.0004914840    
0.0291060150    0.0199266650    0.0005014684    
0.0293286760    0.0201482440    0.0004972223    
0.0295513370    0.0206001830    0.0004972931    
0.0297739980    0.0203323230    0.0004994888    
0.0299966590    0.0211493000    0.0005007242    
0.0302193200    0.0200983940    0.0004952387    
0.0304419810    0.0206133590    0.0005024660    
0.0306646420    0.0205418630    0.0004874368    
0.0308873030    0.0207546560    0.0004878387    
0.0311099640    0.0192604230    0.0004711700    
0.0313326250    0.0196589310    0.0004707460    
0.0315552860    0.0194199690    0.0004739398    
0.0317779470    0.0201026590    0.0004826183    
0.0320006080    0.0204610820    0.0004758391    
0.0322232690    0.0204988410    0.0004782717    
0.0324459300    0.0210183770    0.0004806791    
0.0326685910    0.0202150390    0.0004706265    
0.0328912520    0.0209226740    0.0004803785    
0.0331139130    0.0205967590    0.0004704222    
0.0333365740    0.0198656010    0.0004634972    
0.0335592350    0.0208431310    0.0004701990    
0.0337818960    0.0192955390    0.0004520461    
0.0340045570    0.0203110780    0.0004630527    
0.0342272170    0.0199416890    0.0004570129    
0.0344498780    0.0197410400    0.0004565089    
0.0346725390    0.0201555730    0.0004527342    
0.0348952000    0.0198312770    0.0004470315    
0.0351178610    0.0197081480    0.0004476813    
0.0353405220    0.0205165290    0.0004546896    
0.0355631830    0.0194721830    0.0004412977    
0.0357858440    0.0203522950    0.0004511606    
0.0360085050    0.0198113990    0.0004464700    
0.0362311660    0.0206006500    0.0004498645    
0.0364538270    0.0199812880    0.0004394943    
0.0366764880    0.0194310510    0.0004330862    
0.0368991490    0.0205161000    0.0004427706    
0.0371218100    0.0198383140    0.0004341497    
0.0373444710    0.0203989620    0.0004450359    
0.0375671320    0.0195263930    0.0004347795    
0.0377897930    0.0206045850    0.0004350601    
0.0380124540    0.0198221550    0.0004293971    
0.0382351150    0.0194035860    0.0004248395    
0.0384577760    0.0206184000    0.0004337113    
0.0386804370    0.0196560060    0.0004267000    
0.0389030980    0.0199433110    0.0004265522    
0.0391257590    0.0206724290    0.0004313313    
0.0393484200    0.0199167050    0.0004219489    
0.0395710810    0.0197194290    0.0004204196    
0.0397937420    0.0203110260    0.0004266796    
0.0400164030    0.0198982860    0.0004240402    
0.0402390640    0.0202604280    0.0004221839    
0.0404617250    0.0197786540    0.0004146733    
0.0406843860    0.0200037080    0.0004129966    
0.0409070470    0.0200047940    0.0004173103    
0.0411297080    0.0198672000    0.0004118494    
0.0413523690    0.0195149210    0.0004092339    
0.0415750300    0.0202930040    0.0004208573    
0.0417976910    0.0198201000    0.0004051674    
0.0420203520    0.0192516640    0.0004008155    
0.0422430130    0.0195995060    0.0004059514    
0.0424656740    0.0197233240    0.0004019314    
0.0426883350    0.0196217900    0.0004028852    
0.0429109960    0.0194865500    0.0004027488    
0.0431336570    0.0197099770    0.0003993443    
0.0433563180    0.0194259210    0.0003998763    
0.0435789790    0.0191871690    0.0003911678    
0.0438016400    0.0195335470    0.0003968299    
0.0440243010    0.0198658840    0.0003961311    
0.0442469620    0.0201446420    0.0004012909    
0.0444696230    0.0195877170    0.0003942859    
0.0446922840    0.0193689880    0.0003909140    
0.0449149450    0.0200987570    0.0003928867    
0.0451376060    0.0195671750    0.0003924439    
0.0453602670    0.0192592570    0.0003852622    
0.0455829280    0.0208217380    0.0004001222    
0.0458055890    0.0197428690    0.0003918903    
0.0460282500    0.0194366310    0.0003841501    
0.0462509110    0.0196979910    0.0003843190    
0.0464735720    0.0197427600    0.0003849728    
0.0466962330    0.0193090770    0.0003824517    
0.0469188940    0.0196441590    0.0003846623    
0.0471415550    0.0194203100    0.0003844287    
0.0473642160    0.0188728740    0.0003736653    
0.0475868770    0.0201801040    0.0003844701    
0.0478095380    0.0200329200    0.0003813892    
0.0480321990    0.0202374850    0.0003841714    
0.0482548600    0.0200542950    0.0003807625    
0.0484775210    0.0199309790    0.0003833590    
0.0487001820    0.0193445720    0.0003721487    
0.0489228430    0.0194167600    0.0003726420    
0.0491455040    0.0192619510    0.0003685865    
0.0493681650    0.0195226810    0.0003742615    
0.0495908260    0.0196133520    0.0003688180    
0.0498134870    0.0197623670    0.0003737407    
0.0500361480    0.0197985460    0.0003730929    
0.0502588090    0.0195985160    0.0003656414    
0.0504814700    0.0194421750    0.0003689410    
0.0507041310    0.0201515100    0.0003711452    
0.0509267920    0.0204771110    0.0003756794    
0.0511494530    0.0200621240    0.0003693736    
0.0513721140    0.0189913070    0.0003625457    
0.0515947750    0.0188886300    0.0003567705    
0.0518174360    0.0193009040    0.0003584706    
0.0520400970    0.0197170170    0.0003598020    
0.0522627580    0.0194058210    0.0003599848    
0.0524854190    0.0200009310    0.0003684344    
0.0527080800    0.0196708540    0.0003682105    
0.0529307410    0.0193273050    0.0003666952    
0.0531534020    0.0195390760    0.0003673563    
0.0533760630    0.0194878460    0.0003680229    
0.0535987240    0.0196918760    0.0003682172    
0.0538213850    0.0191925960    0.0003677309    
0.0540440460    0.0191718830    0.0003657931    
0.0542667070    0.0196068630    0.0003724688    
0.0544893680    0.0201165080    0.0003774795    
0.0547120290    0.0197300420    0.0003712750    
0.0549346900    0.0199955950    0.0003739618    
0.0551573510    0.0192520160    0.0003712623    
0.0553800120    0.0200803610    0.0003759418    
0.0556026730    0.0199170240    0.0003821726    
0.0558253340    0.0200879280    0.0003870226    
0.0560479950    0.0193646620    0.0003799916    
0.0562706560    0.0189427600    0.0003794628    
0.0564933170    0.0192267720    0.0003856167    
0.0567159780    0.0199386900    0.0003879828    
0.0569386390    0.0199226570    0.0003939100    
0.0571613000    0.0189919300    0.0003763177    
0.0573839610    0.0201811820    0.0003847002    
0.0576066220    0.0190984940    0.0003752747    
0.0578292830    0.0197341350    0.0003802063    
0.0580519440    0.0193559590    0.0003780057    
0.0582746050    0.0198222230    0.0003808447    
0.0584972660    0.0198668180    0.0003798134    
0.0587199270    0.0188121160    0.0003664080    
0.0589425880    0.0188042950    0.0003641891    
0.0591652490    0.0196756870    0.0003747240    
0.0593879100    0.0196938890    0.0003721131    
0.0596105710    0.0194138110    0.0003690679    
0.0598332320    0.0188835820    0.0003671043    
0.0600558930    0.0193904250    0.0003696265    
0.0602785540    0.0192721100    0.0003681076    
0.0605012150    0.0195970690    0.0003704159    
0.0607238760    0.0195746770    0.0003675064    
0.0609465370    0.0195967350    0.0003706083    
0.0611691980    0.0197010890    0.0003721827    
0.0613918590    0.0194039580    0.0003653329    
0.0616145200    0.0195913200    0.0003697792    
0.0618371810    0.0193452430    0.0003638407    
0.0620598420    0.0196114380    0.0003667131    
0.0622825030    0.0188233600    0.0003647637    
0.0625051640    0.0200505380    0.0003711790    
0.0627278250    0.0196258940    0.0003664712    
0.0629504860    0.0200082420    0.0003670156    
0.0631731470    0.0199889050    0.0003713768    
0.0633958080    0.0198357770    0.0003720807    
0.0636184690    0.0199185750    0.0003780494    
0.0638411300    0.0194274810    0.0003719583    
0.0640637910    0.0188928560    0.0003693846    
0.0642864520    0.0192929640    0.0003724677    
0.0645091130    0.0191130410    0.0003739755    
0.0647317740    0.0194778840    0.0003779442    
0.0649544350    0.0194130990    0.0003769001    
0.0651770960    0.0197230010    0.0003778242    
0.0653997570    0.0196591700    0.0003763943    
0.0656224180    0.0197809490    0.0003783793    
0.0658450790    0.0198140550    0.0003732526    
0.0660677400    0.0195150480    0.0003720021    
0.0662904010    0.0190179880    0.0003716181    
0.0665130620    0.0194940350    0.0003746083    
0.0667357230    0.0194104180    0.0003804502    
0.0669583840    0.0194659280    0.0003797191    
0.0671810450    0.0200647050    0.0003833865    
0.0674037060    0.0196669620    0.0003859979    
0.0676263670    0.0195592060    0.0003821207    
0.0678490280    0.0197705360    0.0003818300    
0.0680716890    0.0194734510    0.0003797936    
0.0682943500    0.0201433330    0.0003820401    
0.0685170110    0.0197916920    0.0003748319    
0.0687396720    0.0197360930    0.0003733106    
0.0689623330    0.0197936350    0.0003726696    
0.0691849940    0.0198981270    0.0003762409    
0.0694076550    0.0194078630    0.0003713786    
0.0696303160    0.0197802280    0.0003719560    
0.0698529770    0.0195789960    0.0003692836    
0.0700756380    0.0191813670    0.0003608224    
0.0702982990    0.0199066100    0.0003715834    
0.0705209600    0.0196202090    0.0003662374    
0.0707436210    0.0201042340    0.0003690248    
0.0709662820    0.0198234520    0.0003708072    
0.0711889430    0.0193124180    0.0003615011    
0.0714116040    0.0193369940    0.0003624695    
0.0716342650    0.0200159680    0.0003672809    
0.0718569260    0.0190862630    0.0003572053    
0.0720795870    0.0198677530    0.0003659190    
0.0723022480    0.0201108690    0.0003687121    
0.0725249090    0.0194868860    0.0003586004    
0.0727475700    0.0193983270    0.0003608406    
0.0729702310    0.0196317940    0.0003601103    
0.0731928920    0.0187702820    0.0003535275    
0.0734155530    0.0200748950    0.0003648775    
0.0736382140    0.0194776080    0.0003571019    
0.0738608750    0.0199224120    0.0003634896    
0.0740835360    0.0195794510    0.0003594527    
0.0743061970    0.0197439440    0.0003558768    
0.0745288580    0.0194056920    0.0003564429    
0.0747515190    0.0201594410    0.0003640169    
0.0749741800    0.0190137270    0.0003502492    
0.0751968410    0.0199295160    0.0003614003    
0.0754195020    0.0190101090    0.0003508977    
0.0756421630    0.0196690630    0.0003540098    
0.0758648240    0.0198661790    0.0003566346    
0.0760874850    0.0192906430    0.0003512619    
0.0763101460    0.0193621680    0.0003515748    
0.0765328070    0.0189134680    0.0003510328    
0.0767554680    0.0198080970    0.0003568013    
0.0769781290    0.0195683900    0.0003525979    
0.0772007900    0.0193682970    0.0003479772    
0.0774234510    0.0197915980    0.0003537600    
0.0776461120    0.0190913930    0.0003471162    
0.0778687730    0.0193980630    0.0003487372    
0.0780914340    0.0194091670    0.0003513295    
0.0783140950    0.0194633680    0.0003462378    
0.0785367560    0.0191357620    0.0003488467    
0.0787594170    0.0196688480    0.0003505037    
0.0789820780    0.0193132440    0.0003455411    
0.0792047390    0.0192281660    0.0003459064    
0.0794274000    0.0198558420    0.0003529962    
0.0796500610    0.0190086170    0.0003420122    
0.0798727220    0.0194096430    0.0003452821    
0.0800953830    0.0194672100    0.0003449985    
0.0803180440    0.0195223950    0.0003478939    
0.0805407050    0.0193375900    0.0003459213    
0.0807633660    0.0190114100    0.0003426731    
0.0809860270    0.0197050780    0.0003475804    
0.0812086880    0.0197094330    0.0003446147    
0.0814313490    0.0196828810    0.0003459532    
0.0816540100    0.0196538900    0.0003449113    
0.0818766710    0.0192816180    0.0003424091    
0.0820993320    0.0195809690    0.0003444280    
0.0823219930    0.0198588870    0.0003482943    
0.0825446540    0.0195653450    0.0003431989    
0.0827673150    0.0196121910    0.0003413010    
0.0829899760    0.0195424260    0.0003400869    
0.0832126370    0.0193894490    0.0003402705    
0.0834352980    0.0195465780    0.0003408826    
0.0836579590    0.0192702670    0.0003377113    
0.0838806200    0.0195697230    0.0003413901    
0.0841032810    0.0199745040    0.0003427616    
0.0843259420    0.0192495710    0.0003354480    
0.0845486030    0.0196880210    0.0003392470    
0.0847712640    0.0194718850    0.0003353237    
0.0849939250    0.0198932370    0.0003395225    
0.0852165860    0.0187543600    0.0003300924    
0.0854392470    0.0196435190    0.0003346275    
0.0856619080    0.0195868520    0.0003366055    
0.0858845690    0.0193265170    0.0003313496    
0.0861072300    0.0198995350    0.0003385470    
0.0863298910    0.0199688020    0.0003409115    
0.0865525520    0.0190534270    0.0003301306    
0.0867752130    0.0187865790    0.0003251656    
0.0869978740    0.0202740350    0.0003386540    
0.0872205350    0.0195623150    0.0003322334    
0.0874431960    0.0194664230    0.0003314184    
0.0876658570    0.0191272120    0.0003297795    
0.0878885180    0.0190844560    0.0003299755    
0.0881111790    0.0195021500    0.0003331390    
0.0883338400    0.0197695790    0.0003305044    
0.0885565010    0.0190833390    0.0003291209    
0.0887791620    0.0193547410    0.0003271548    
0.0890018230    0.0191118770    0.0003282490    
0.0892244840    0.0193749050    0.0003310620    
0.0894471450    0.0194415490    0.0003302301    
0.0896698060    0.0193842300    0.0003284991    
0.0898924670    0.0192497030    0.0003288746    
0.0901151280    0.0192924370    0.0003256832    
0.0903377890    0.0191806600    0.0003274562    
0.0905604500    0.0198469730    0.0003315667    
0.0907831110    0.0193239460    0.0003263547    
0.0910057720    0.0194905820    0.0003292629    
0.0912284330    0.0188391760    0.0003190790    
0.0914510940    0.0192616810    0.0003262350    
0.0916737550    0.0195455650    0.0003278147    
0.0918964160    0.0191319140    0.0003256761    
0.0921190770    0.0195932310    0.0003265992    
0.0923417380    0.0195657210    0.0003265037    
0.0925643990    0.0186134160    0.0003176795    
0.0927870600    0.0190615820    0.0003227996    
0.0930097210    0.0200011050    0.0003278429    
0.0932323820    0.0193310490    0.0003246738    
