# Diamond Light Source Ltd.
# Data extracted from: /dls/b21/data/2018/cm19678-3/processed/b21-386631_00394.dat
q(1/A)          Column          Error           
0.0035000000    2.1073451000    0.0246815200    
0.0037226610    1.9012479000    0.0229499500    
0.0039453220    1.6140266000    0.0192364250    
0.0041679830    1.2985045000    0.0141695330    
0.0043906440    0.9755184400    0.0117472680    
0.0046133050    0.8035790000    0.0102352220    
0.0048359660    0.5913835900    0.0083054905    
0.0050586270    0.4737474600    0.0073066035    
0.0052812880    0.4291428700    0.0065750203    
0.0055039490    0.3850777200    0.0059221705    
0.0057266100    0.3199044500    0.0052219295    
0.0059492710    0.2731079100    0.0048248967    
0.0061719320    0.2167949500    0.0041424106    
0.0063945930    0.1994608700    0.0040215193    
0.0066172539    0.1755112900    0.0035422508    
0.0068399149    0.1712732100    0.0034441130    
0.0070625759    0.1461356700    0.0031487153    
0.0072852369    0.1252720200    0.0028716711    
0.0075078979    0.1166129800    0.0027570315    
0.0077305589    0.1064419400    0.0025838771    
0.0079532199    0.1007064800    0.0024784713    
0.0081758809    0.0909691650    0.0023775172    
0.0083985419    0.0803249890    0.0020837292    
0.0086212029    0.0807574370    0.0020893309    
0.0088438639    0.0700507640    0.0019302786    
0.0090665249    0.0643039100    0.0017862197    
0.0092891859    0.0669735690    0.0019026889    
0.0095118469    0.0604382640    0.0017381963    
0.0097345079    0.0572449220    0.0016429624    
0.0099571689    0.0564462020    0.0015978185    
0.0101798300    0.0476717210    0.0014683870    
0.0104024910    0.0523361580    0.0015333415    
0.0106251520    0.0464957750    0.0014501634    
0.0108478130    0.0462407480    0.0014083658    
0.0110704740    0.0430028160    0.0012930619    
0.0112931350    0.0431775620    0.0012994919    
0.0115157960    0.0403561850    0.0012489926    
0.0117384570    0.0370428770    0.0011863215    
0.0119611180    0.0363004990    0.0011777437    
0.0121837790    0.0371959190    0.0011721429    
0.0124064400    0.0356520960    0.0010997240    
0.0126291010    0.0367499300    0.0011025530    
0.0128517620    0.0368339580    0.0011065690    
0.0130744230    0.0321955760    0.0010268794    
0.0132970840    0.0322058080    0.0010220204    
0.0135197450    0.0323928810    0.0010103062    
0.0137424060    0.0307618890    0.0009708366    
0.0139650670    0.0322771270    0.0009723085    
0.0141877280    0.0294780350    0.0009312465    
0.0144103890    0.0297204360    0.0009189446    
0.0146330500    0.0294283970    0.0009086128    
0.0148557110    0.0274573630    0.0008739775    
0.0150783720    0.0285649800    0.0008840639    
0.0153010330    0.0293342720    0.0008832580    
0.0155236940    0.0272782660    0.0008466776    
0.0157463550    0.0267218870    0.0008234798    
0.0159690160    0.0264942720    0.0008168534    
0.0161916770    0.0253997360    0.0007952966    
0.0164143380    0.0268731100    0.0008242355    
0.0166369990    0.0257164480    0.0007814420    
0.0168596600    0.0246820650    0.0007588198    
0.0170823210    0.0246233480    0.0007513546    
0.0173049820    0.0250766550    0.0007595500    
0.0175276430    0.0250679640    0.0007674266    
0.0177503040    0.0256803100    0.0007569420    
0.0179729650    0.0237081160    0.0007200827    
0.0181956260    0.0251853830    0.0007279499    
0.0184182870    0.0243857890    0.0007129251    
0.0186409480    0.0234923460    0.0007041721    
0.0188636090    0.0224474460    0.0006840047    
0.0190862700    0.0241641650    0.0007085687    
0.0193089310    0.0239646190    0.0007045371    
0.0195315920    0.0230194890    0.0006670215    
0.0197542530    0.0220204770    0.0006533375    
0.0199769140    0.0224857060    0.0006602031    
0.0201995750    0.0219936070    0.0006427144    
0.0204222360    0.0227931410    0.0006599089    
0.0206448970    0.0226586510    0.0006532828    
0.0208675580    0.0220602860    0.0006313255    
0.0210902190    0.0221012840    0.0006380091    
0.0213128800    0.0221507370    0.0006300557    
0.0215355410    0.0228334060    0.0006320704    
0.0217582020    0.0213986720    0.0006118903    
0.0219808630    0.0217613380    0.0006162435    
0.0222035240    0.0220541900    0.0006147547    
0.0224261850    0.0221010090    0.0006099296    
0.0226488460    0.0210905240    0.0005913489    
0.0228715070    0.0221737450    0.0006048385    
0.0230941680    0.0211508570    0.0005907231    
0.0233168290    0.0208584210    0.0005880864    
0.0235394900    0.0222006120    0.0006000165    
0.0237621510    0.0211595710    0.0005700097    
0.0239848120    0.0204390190    0.0005608685    
0.0242074730    0.0217488270    0.0005739296    
0.0244301340    0.0209635900    0.0005641165    
0.0246527950    0.0222195160    0.0005861466    
0.0248754560    0.0207296340    0.0005534301    
0.0250981170    0.0206292500    0.0005533196    
0.0253207780    0.0206729100    0.0005373667    
0.0255434390    0.0214875110    0.0005536989    
0.0257661000    0.0212246580    0.0005520819    
0.0259887610    0.0214506690    0.0005491153    
0.0262114220    0.0211541950    0.0005482128    
0.0264340830    0.0208589300    0.0005369668    
0.0266567440    0.0207384780    0.0005321058    
0.0268794050    0.0209622420    0.0005327853    
0.0271020660    0.0213435760    0.0005354331    
0.0273247270    0.0203845990    0.0005201236    
0.0275473880    0.0202110280    0.0005168740    
0.0277700490    0.0204822370    0.0005172546    
0.0279927100    0.0206526420    0.0005148700    
0.0282153710    0.0203873560    0.0005140396    
0.0284380320    0.0209331440    0.0005178553    
0.0286606930    0.0207904140    0.0005116696    
0.0288833540    0.0203006530    0.0005065674    
0.0291060150    0.0207794200    0.0005120196    
0.0293286760    0.0204374340    0.0005007130    
0.0295513370    0.0203428040    0.0004941127    
0.0297739980    0.0194315300    0.0004882356    
0.0299966590    0.0212149260    0.0005014354    
0.0302193200    0.0214229650    0.0005112312    
0.0304419810    0.0209998450    0.0005070888    
0.0306646420    0.0203630840    0.0004852481    
0.0308873030    0.0204626800    0.0004843323    
0.0311099640    0.0207304090    0.0004887562    
0.0313326250    0.0200031830    0.0004747882    
0.0315552860    0.0203400020    0.0004849736    
0.0317779470    0.0193560980    0.0004735105    
0.0320006080    0.0200353750    0.0004708019    
0.0322232690    0.0202480920    0.0004752759    
0.0324459300    0.0209799550    0.0004801773    
0.0326685910    0.0199688120    0.0004676909    
0.0328912520    0.0207187700    0.0004779699    
0.0331139130    0.0193024380    0.0004553424    
0.0333365740    0.0198712600    0.0004635031    
0.0335592350    0.0198621150    0.0004589407    
0.0337818960    0.0199257880    0.0004593098    
0.0340045570    0.0196514640    0.0004554126    
0.0342272170    0.0193710900    0.0004503687    
0.0344498780    0.0193876390    0.0004523456    
0.0346725390    0.0198250110    0.0004489481    
0.0348952000    0.0197253900    0.0004457786    
0.0351178610    0.0197335360    0.0004479114    
0.0353405220    0.0198664550    0.0004473701    
0.0355631830    0.0208169330    0.0004562222    
0.0357858440    0.0200770550    0.0004480414    
0.0360085050    0.0194642520    0.0004424837    
0.0362311660    0.0199765630    0.0004429404    
0.0364538270    0.0201693910    0.0004415009    
0.0366764880    0.0201980320    0.0004414936    
0.0368991490    0.0197560740    0.0004344356    
0.0371218100    0.0202416090    0.0004384836    
0.0373444710    0.0197724450    0.0004380915    
0.0375671320    0.0201310670    0.0004414028    
0.0377897930    0.0202043370    0.0004307579    
0.0380124540    0.0195194320    0.0004260504    
0.0382351150    0.0191195710    0.0004216641    
0.0384577760    0.0192631700    0.0004191609    
0.0386804370    0.0203639700    0.0004342600    
0.0389030980    0.0205127500    0.0004325429    
0.0391257590    0.0195063990    0.0004189358    
0.0393484200    0.0199562240    0.0004223126    
0.0395710810    0.0197322350    0.0004205016    
0.0397937420    0.0197949770    0.0004211697    
0.0400164030    0.0204261370    0.0004295720    
0.0402390640    0.0197714400    0.0004170039    
0.0404617250    0.0193302490    0.0004098926    
0.0406843860    0.0201775340    0.0004147333    
0.0409070470    0.0199909010    0.0004171112    
0.0411297080    0.0207326640    0.0004206698    
0.0413523690    0.0200932670    0.0004151998    
0.0415750300    0.0199299780    0.0004170218    
0.0417976910    0.0197404350    0.0004042999    
0.0420203520    0.0201643700    0.0004101534    
0.0422430130    0.0198381960    0.0004083628    
0.0424656740    0.0199474900    0.0004041565    
0.0426883350    0.0194016770    0.0004005671    
0.0429109960    0.0195231040    0.0004030741    
0.0431336570    0.0194541040    0.0003966922    
0.0433563180    0.0193715070    0.0003992640    
0.0435789790    0.0197163590    0.0003964739    
0.0438016400    0.0196332560    0.0003977898    
0.0440243010    0.0195527510    0.0003929457    
0.0442469620    0.0193642090    0.0003933898    
0.0444696230    0.0194080740    0.0003924228    
0.0446922840    0.0197110170    0.0003942992    
0.0449149450    0.0194869750    0.0003868108    
0.0451376060    0.0198453800    0.0003951727    
0.0453602670    0.0200093300    0.0003926418    
0.0455829280    0.0202705610    0.0003947396    
0.0458055890    0.0202821300    0.0003971548    
0.0460282500    0.0196137600    0.0003858465    
0.0462509110    0.0190257070    0.0003776548    
0.0464735720    0.0196250670    0.0003837738    
0.0466962330    0.0198266190    0.0003874930    
0.0469188940    0.0199553370    0.0003876467    
0.0471415550    0.0198337050    0.0003884484    
0.0473642160    0.0196371940    0.0003811072    
0.0475868770    0.0199185640    0.0003819210    
0.0478095380    0.0200349820    0.0003813594    
0.0480321990    0.0198239450    0.0003801767    
0.0482548600    0.0195865320    0.0003762469    
0.0484775210    0.0198594640    0.0003826209    
0.0487001820    0.0192465070    0.0003711560    
0.0489228430    0.0198979100    0.0003771819    
0.0491455040    0.0203287440    0.0003786066    
0.0493681650    0.0199838590    0.0003786071    
0.0495908260    0.0194002560    0.0003667614    
0.0498134870    0.0202165460    0.0003779619    
0.0500361480    0.0195755140    0.0003709374    
0.0502588090    0.0193683770    0.0003634411    
0.0504814700    0.0199200850    0.0003733995    
0.0507041310    0.0192715460    0.0003629042    
0.0509267920    0.0198447600    0.0003697853    
0.0511494530    0.0201521050    0.0003701530    
0.0513721140    0.0195191620    0.0003675019    
0.0515947750    0.0200290160    0.0003673349    
0.0518174360    0.0192293370    0.0003577590    
0.0520400970    0.0194296480    0.0003571240    
0.0522627580    0.0198747910    0.0003642614    
0.0524854190    0.0196904120    0.0003655157    
0.0527080800    0.0196450790    0.0003679215    
0.0529307410    0.0196978870    0.0003701460    
0.0531534020    0.0194028140    0.0003660257    
0.0533760630    0.0194063610    0.0003672050    
0.0535987240    0.0203338150    0.0003741223    
0.0538213850    0.0197511300    0.0003729949    
0.0540440460    0.0194808930    0.0003686813    
0.0542667070    0.0188943860    0.0003655913    
0.0544893680    0.0198917650    0.0003753163    
0.0547120290    0.0190823280    0.0003650825    
0.0549346900    0.0191163960    0.0003656005    
0.0551573510    0.0193973330    0.0003726125    
0.0553800120    0.0196177790    0.0003715382    
0.0556026730    0.0196919180    0.0003799575    
0.0558253340    0.0192999830    0.0003793070    
0.0560479950    0.0196205510    0.0003824444    
0.0562706560    0.0198953780    0.0003888368    
0.0564933170    0.0190207520    0.0003834954    
0.0567159780    0.0190730790    0.0003794182    
0.0569386390    0.0196605390    0.0003912593    
0.0571613000    0.0197548330    0.0003837518    
0.0573839610    0.0192888510    0.0003760503    
0.0576066220    0.0200887640    0.0003848309    
0.0578292830    0.0195679030    0.0003785524    
0.0580519440    0.0194911620    0.0003792744    
0.0582746050    0.0201535840    0.0003839649    
0.0584972660    0.0196874390    0.0003780458    
0.0587199270    0.0194065560    0.0003721037    
0.0589425880    0.0196949630    0.0003726659    
0.0591652490    0.0194636750    0.0003726513    
0.0593879100    0.0194497880    0.0003697518    
0.0596105710    0.0190720850    0.0003657578    
0.0598332320    0.0188572780    0.0003668009    
0.0600558930    0.0195826300    0.0003714057    
0.0602785540    0.0199981500    0.0003749287    
0.0605012150    0.0197319780    0.0003716405    
0.0607238760    0.0189142900    0.0003612071    
0.0609465370    0.0199279890    0.0003736790    
0.0611691980    0.0193445150    0.0003687514    
0.0613918590    0.0198527810    0.0003694860    
0.0616145200    0.0193280650    0.0003672387    
0.0618371810    0.0194838920    0.0003650949    
0.0620598420    0.0194555320    0.0003652052    
0.0622825030    0.0189598100    0.0003660359    
0.0625051640    0.0194064690    0.0003651214    
0.0627278250    0.0200791690    0.0003706309    
0.0629504860    0.0198078670    0.0003651259    
0.0631731470    0.0192318300    0.0003642288    
0.0633958080    0.0187002440    0.0003612267    
0.0636184690    0.0193323610    0.0003723964    
0.0638411300    0.0194580410    0.0003722025    
0.0640637910    0.0191623220    0.0003719612    
0.0642864520    0.0205604040    0.0003844577    
0.0645091130    0.0197664780    0.0003802652    
0.0647317740    0.0199787150    0.0003827228    
0.0649544350    0.0194739030    0.0003774409    
0.0651770960    0.0197178850    0.0003777262    
0.0653997570    0.0192938420    0.0003728322    
0.0656224180    0.0197251670    0.0003777964    
0.0658450790    0.0191340910    0.0003667446    
0.0660677400    0.0196801310    0.0003735238    
0.0662904010    0.0192526230    0.0003738550    
0.0665130620    0.0197840480    0.0003773356    
0.0667357230    0.0192935570    0.0003792540    
0.0669583840    0.0198385440    0.0003832864    
0.0671810450    0.0192392510    0.0003753687    
0.0674037060    0.0196845830    0.0003861207    
0.0676263670    0.0200317910    0.0003866593    
0.0678490280    0.0200897930    0.0003848506    
0.0680716890    0.0200015780    0.0003848593    
0.0682943500    0.0192398610    0.0003733257    
0.0685170110    0.0196942960    0.0003738600    
0.0687396720    0.0197874480    0.0003737475    
0.0689623330    0.0193395590    0.0003683224    
0.0691849940    0.0197080460    0.0003743909    
0.0694076550    0.0195378170    0.0003725716    
0.0696303160    0.0202016460    0.0003758486    
0.0698529770    0.0201449100    0.0003745339    
0.0700756380    0.0193867480    0.0003627019    
0.0702982990    0.0192565560    0.0003654186    
0.0705209600    0.0197654790    0.0003675430    
0.0707436210    0.0196791610    0.0003650554    
0.0709662820    0.0196102790    0.0003687602    
0.0711889430    0.0199094960    0.0003669992    
0.0714116040    0.0201810630    0.0003702480    
0.0716342650    0.0187777890    0.0003556935    
0.0718569260    0.0199835810    0.0003654582    
0.0720795870    0.0197211080    0.0003645188    
0.0723022480    0.0195447220    0.0003634380    
0.0725249090    0.0198512800    0.0003618907    
0.0727475700    0.0199502650    0.0003658906    
0.0729702310    0.0195012280    0.0003588643    
0.0731928920    0.0192846410    0.0003582922    
0.0734155530    0.0199702330    0.0003638779    
0.0736382140    0.0197736430    0.0003597587    
0.0738608750    0.0195791020    0.0003602973    
0.0740835360    0.0191521410    0.0003554625    
0.0743061970    0.0194117660    0.0003528246    
0.0745288580    0.0191715680    0.0003542403    
0.0747515190    0.0193130830    0.0003562475    
0.0749741800    0.0203633410    0.0003624197    
0.0751968410    0.0202126300    0.0003639110    
0.0754195020    0.0205981160    0.0003652125    
0.0756421630    0.0190906670    0.0003487207    
0.0758648240    0.0186769170    0.0003457503    
0.0760874850    0.0193048220    0.0003513454    
0.0763101460    0.0202187390    0.0003592208    
0.0765328070    0.0193449630    0.0003549684    
0.0767554680    0.0193660340    0.0003527517    
0.0769781290    0.0196776450    0.0003535350    
0.0772007900    0.0196257830    0.0003502371    
0.0774234510    0.0195399230    0.0003514579    
0.0776461120    0.0195028720    0.0003507915    
0.0778687730    0.0198443240    0.0003526800    
0.0780914340    0.0201162100    0.0003576250    
0.0783140950    0.0197785190    0.0003489844    
0.0785367560    0.0192388820    0.0003497400    
0.0787594170    0.0197948790    0.0003515792    
0.0789820780    0.0196481680    0.0003484792    
0.0792047390    0.0198141820    0.0003510924    
0.0794274000    0.0193487770    0.0003484146    
0.0796500610    0.0197050200    0.0003481757    
0.0798727220    0.0196502360    0.0003473704    
0.0800953830    0.0196822100    0.0003468534    
0.0803180440    0.0198830100    0.0003510468    
0.0805407050    0.0207183320    0.0003580117    
0.0807633660    0.0199882940    0.0003513212    
0.0809860270    0.0198532020    0.0003488390    
0.0812086880    0.0196320330    0.0003438928    
0.0814313490    0.0191002690    0.0003407504    
0.0816540100    0.0203991610    0.0003513443    
0.0818766710    0.0196413580    0.0003455437    
0.0820993320    0.0197454830    0.0003458271    
0.0823219930    0.0197315960    0.0003471313    
0.0825446540    0.0198672160    0.0003457915    
0.0827673150    0.0195714760    0.0003409023    
0.0829899760    0.0193243510    0.0003381402    
0.0832126370    0.0197903750    0.0003437259    
0.0834352980    0.0196782030    0.0003419840    
0.0836579590    0.0192475180    0.0003374681    
0.0838806200    0.0197194490    0.0003426491    
0.0841032810    0.0196282690    0.0003397339    
0.0843259420    0.0192095130    0.0003350553    
0.0845486030    0.0194082410    0.0003367842    
0.0847712640    0.0189992140    0.0003311858    
0.0849939250    0.0192160650    0.0003336505    
0.0852165860    0.0186042850    0.0003287264    
0.0854392470    0.0193192840    0.0003318113    
0.0856619080    0.0204492450    0.0003438913    
0.0858845690    0.0187876350    0.0003266550    
0.0861072300    0.0194509960    0.0003346663    
0.0863298910    0.0196726920    0.0003383305    
0.0865525520    0.0191571360    0.0003309849    
0.0867752130    0.0199239130    0.0003348202    
0.0869978740    0.0194770270    0.0003318877    
0.0872205350    0.0190551930    0.0003278563    
0.0874431960    0.0193147080    0.0003300816    
0.0876658570    0.0195201570    0.0003331065    
0.0878885180    0.0196327830    0.0003346389    
0.0881111790    0.0196620790    0.0003344588    
0.0883338400    0.0198694050    0.0003312948    
0.0885565010    0.0189592190    0.0003280063    
0.0887791620    0.0191506950    0.0003253836    
0.0890018230    0.0197776340    0.0003338740    
0.0892244840    0.0189287550    0.0003271856    
0.0894471450    0.0194645450    0.0003303824    
0.0896698060    0.0195628650    0.0003299664    
0.0898924670    0.0198120530    0.0003336005    
0.0901151280    0.0195292810    0.0003276338    
0.0903377890    0.0193154080    0.0003285618    
0.0905604500    0.0189280930    0.0003237582    
0.0907831110    0.0188891340    0.0003226203    
0.0910057720    0.0195188910    0.0003294591    
0.0912284330    0.0201849990    0.0003302367    
0.0914510940    0.0193340200    0.0003268046    
0.0916737550    0.0196779110    0.0003288800    
0.0918964160    0.0188664560    0.0003233669    
0.0921190770    0.0195881480    0.0003265145    
0.0923417380    0.0190159330    0.0003218420    
0.0925643990    0.0196601650    0.0003264475    
0.0927870600    0.0191714030    0.0003236861    
0.0930097210    0.0195715010    0.0003242609    
0.0932323820    0.0196367770    0.0003271887    
