# Diamond Light Source Ltd.
# Data extracted from: /dls/b21/data/2018/cm19678-3/processed/b21-386631_00398.dat
q(1/A)          Column          Error           
0.0035000000    2.0804092000    0.0245246710    
0.0037226610    1.8809620000    0.0228284870    
0.0039453220    1.5880713000    0.0190822130    
0.0041679830    1.3141163000    0.0142552700    
0.0043906440    0.9924654200    0.0118495410    
0.0046133050    0.7860690700    0.0101236720    
0.0048359660    0.5892344800    0.0082908578    
0.0050586270    0.4668138700    0.0072533512    
0.0052812880    0.4313074900    0.0065919573    
0.0055039490    0.3687256900    0.0057953963    
0.0057266100    0.3217311400    0.0052371154    
0.0059492710    0.2709225400    0.0048058276    
0.0061719320    0.2178487300    0.0041527025    
0.0063945930    0.2019163200    0.0040464274    
0.0066172539    0.1791777600    0.0035792626    
0.0068399149    0.1701152200    0.0034326457    
0.0070625759    0.1441167700    0.0031270676    
0.0072852369    0.1257471500    0.0028772756    
0.0075078979    0.1103027600    0.0026815520    
0.0077305589    0.1025020300    0.0025357500    
0.0079532199    0.0973017190    0.0024363528    
0.0081758809    0.0904823730    0.0023712825    
0.0083985419    0.0861186300    0.0021576909    
0.0086212029    0.0760633600    0.0020278156    
0.0088438639    0.0717610070    0.0019538110    
0.0090665249    0.0664946420    0.0018164952    
0.0092891859    0.0616291900    0.0018252991    
0.0095118469    0.0626949690    0.0017704510    
0.0097345079    0.0592792960    0.0016719966    
0.0099571689    0.0508887910    0.0015172106    
0.0101798300    0.0498484070    0.0015016215    
0.0104024910    0.0486579540    0.0014785623    
0.0106251520    0.0472700580    0.0014622714    
0.0108478130    0.0469324130    0.0014189406    
0.0110704740    0.0421911130    0.0012808731    
0.0112931350    0.0400533160    0.0012516661    
0.0115157960    0.0418685130    0.0012722525    
0.0117384570    0.0386429720    0.0012117417    
0.0119611180    0.0385211280    0.0012133015    
0.0121837790    0.0358702600    0.0011511314    
0.0124064400    0.0345705270    0.0010829762    
0.0126291010    0.0351992620    0.0010791026    
0.0128517620    0.0337128950    0.0010587101    
0.0130744230    0.0336405120    0.0010497294    
0.0132970840    0.0339934870    0.0010500623    
0.0135197450    0.0316087170    0.0009980594    
0.0137424060    0.0312863220    0.0009791329    
0.0139650670    0.0306696930    0.0009478423    
0.0141877280    0.0320411550    0.0009709441    
0.0144103890    0.0290134060    0.0009080000    
0.0146330500    0.0293195220    0.0009069822    
0.0148557110    0.0289350670    0.0008972383    
0.0150783720    0.0287050550    0.0008862794    
0.0153010330    0.0300557600    0.0008941049    
0.0155236940    0.0276230480    0.0008520601    
0.0157463550    0.0285776570    0.0008516427    
0.0159690160    0.0247089750    0.0007888969    
0.0161916770    0.0257263890    0.0008004398    
0.0164143380    0.0248787900    0.0007931068    
0.0166369990    0.0263605800    0.0007912131    
0.0168596600    0.0252215040    0.0007671109    
0.0170823210    0.0255433280    0.0007653056    
0.0173049820    0.0241821710    0.0007459229    
0.0175276430    0.0244599090    0.0007581052    
0.0177503040    0.0243444050    0.0007370328    
0.0179729650    0.0240170450    0.0007248004    
0.0181956260    0.0236942120    0.0007061112    
0.0184182870    0.0244511020    0.0007139198    
0.0186409480    0.0230939390    0.0006982153    
0.0188636090    0.0238049250    0.0007044234    
0.0190862700    0.0228993500    0.0006898146    
0.0193089310    0.0223722880    0.0006807670    
0.0195315920    0.0229061310    0.0006654150    
0.0197542530    0.0229535350    0.0006670735    
0.0199769140    0.0226433600    0.0006625512    
0.0201995750    0.0219961120    0.0006427876    
0.0204222360    0.0224135800    0.0006544285    
0.0206448970    0.0212107630    0.0006321019    
0.0208675580    0.0222073550    0.0006334625    
0.0210902190    0.0220853820    0.0006378159    
0.0213128800    0.0226192680    0.0006367205    
0.0215355410    0.0221885500    0.0006231166    
0.0217582020    0.0224510410    0.0006267916    
0.0219808630    0.0220256120    0.0006200094    
0.0222035240    0.0224166020    0.0006198205    
0.0224261850    0.0222045330    0.0006113913    
0.0226488460    0.0215240720    0.0005974301    
0.0228715070    0.0220442690    0.0006031044    
0.0230941680    0.0216977740    0.0005983459    
0.0233168290    0.0213251080    0.0005946628    
0.0235394900    0.0219112080    0.0005961268    
0.0237621510    0.0218223340    0.0005789008    
0.0239848120    0.0207799840    0.0005655595    
0.0242074730    0.0209030640    0.0005626916    
0.0244301340    0.0218920650    0.0005765063    
0.0246527950    0.0210931610    0.0005711294    
0.0248754560    0.0207172180    0.0005532959    
0.0250981170    0.0212104730    0.0005610922    
0.0253207780    0.0209127520    0.0005405057    
0.0255434390    0.0210047940    0.0005474753    
0.0257661000    0.0209541970    0.0005485843    
0.0259887610    0.0213265870    0.0005475560    
0.0262114220    0.0212276480    0.0005491950    
0.0264340830    0.0208474810    0.0005368500    
0.0266567440    0.0211231600    0.0005370488    
0.0268794050    0.0208969150    0.0005319848    
0.0271020660    0.0203922210    0.0005233939    
0.0273247270    0.0208381940    0.0005259086    
0.0275473880    0.0201736710    0.0005164255    
0.0277700490    0.0206805330    0.0005197820    
0.0279927100    0.0204367630    0.0005122012    
0.0282153710    0.0206878110    0.0005178430    
0.0284380320    0.0204999060    0.0005124976    
0.0286606930    0.0208305650    0.0005121926    
0.0288833540    0.0210741240    0.0005161569    
0.0291060150    0.0198859110    0.0005009189    
0.0293286760    0.0205747180    0.0005024205    
0.0295513370    0.0203811310    0.0004946061    
0.0297739980    0.0202066770    0.0004979068    
0.0299966590    0.0203639070    0.0004913031    
0.0302193200    0.0197904380    0.0004913941    
0.0304419810    0.0204144200    0.0004999991    
0.0306646420    0.0209667670    0.0004924165    
0.0308873030    0.0198917610    0.0004775551    
0.0311099640    0.0208134430    0.0004897620    
0.0313326250    0.0207042440    0.0004830641    
0.0315552860    0.0204579670    0.0004864056    
0.0317779470    0.0210844470    0.0004942271    
0.0320006080    0.0188869580    0.0004571358    
0.0322232690    0.0205628020    0.0004789825    
0.0324459300    0.0202789030    0.0004721133    
0.0326685910    0.0200915920    0.0004691532    
0.0328912520    0.0194419120    0.0004630339    
0.0331139130    0.0193583510    0.0004560274    
0.0333365740    0.0198194600    0.0004629250    
0.0335592350    0.0203098150    0.0004641107    
0.0337818960    0.0209022240    0.0004704559    
0.0340045570    0.0203925640    0.0004639469    
0.0342272170    0.0203681410    0.0004618401    
0.0344498780    0.0198014990    0.0004571741    
0.0346725390    0.0194815630    0.0004450677    
0.0348952000    0.0199392210    0.0004482139    
0.0351178610    0.0210982750    0.0004631673    
0.0353405220    0.0192339670    0.0004402161    
0.0355631830    0.0198693360    0.0004457429    
0.0357858440    0.0190593750    0.0004365633    
0.0360085050    0.0200700810    0.0004493427    
0.0362311660    0.0206565870    0.0004504421    
0.0364538270    0.0196014300    0.0004352650    
0.0366764880    0.0203644070    0.0004433335    
0.0368991490    0.0198347590    0.0004353246    
0.0371218100    0.0210228930    0.0004468912    
0.0373444710    0.0202212540    0.0004430609    
0.0375671320    0.0205592580    0.0004460979    
0.0377897930    0.0206658800    0.0004356750    
0.0380124540    0.0188334220    0.0004185205    
0.0382351150    0.0199866920    0.0004311444    
0.0384577760    0.0200863320    0.0004280475    
0.0386804370    0.0196994540    0.0004271402    
0.0389030980    0.0201137250    0.0004283396    
0.0391257590    0.0195536140    0.0004194664    
0.0393484200    0.0204947760    0.0004279974    
0.0395710810    0.0205321080    0.0004289641    
0.0397937420    0.0195104450    0.0004181556    
0.0400164030    0.0200489880    0.0004256119    
0.0402390640    0.0209875580    0.0004296618    
0.0404617250    0.0202104090    0.0004191444    
0.0406843860    0.0203503420    0.0004165292    
0.0409070470    0.0197581700    0.0004146998    
0.0411297080    0.0197533350    0.0004106376    
0.0413523690    0.0197351750    0.0004115068    
0.0415750300    0.0196791680    0.0004144131    
0.0417976910    0.0195853390    0.0004027314    
0.0420203520    0.0196910780    0.0004053344    
0.0422430130    0.0194201080    0.0004040598    
0.0424656740    0.0200807950    0.0004055278    
0.0426883350    0.0197181880    0.0004038442    
0.0429109960    0.0201328940    0.0004093439    
0.0431336570    0.0205484630    0.0004077205    
0.0433563180    0.0194477850    0.0004000721    
0.0435789790    0.0204601460    0.0004039061    
0.0438016400    0.0194823420    0.0003962806    
0.0440243010    0.0200841320    0.0003982721    
0.0442469620    0.0197980230    0.0003977945    
0.0444696230    0.0191722200    0.0003900533    
0.0446922840    0.0200051360    0.0003972527    
0.0449149450    0.0198117110    0.0003900427    
0.0451376060    0.0191236190    0.0003879421    
0.0453602670    0.0190869300    0.0003835068    
0.0455829280    0.0195117730    0.0003873030    
0.0458055890    0.0206499960    0.0004007631    
0.0460282500    0.0192516100    0.0003822896    
0.0462509110    0.0201899390    0.0003890602    
0.0464735720    0.0191394340    0.0003790173    
0.0466962330    0.0198364520    0.0003876111    
0.0469188940    0.0197166130    0.0003853430    
0.0471415550    0.0195316150    0.0003855007    
0.0473642160    0.0197947720    0.0003826550    
0.0475868770    0.0199940720    0.0003826660    
0.0478095380    0.0195435930    0.0003766751    
0.0480321990    0.0191845320    0.0003740165    
0.0482548600    0.0195020240    0.0003754557    
0.0484775210    0.0198248630    0.0003823092    
0.0487001820    0.0193417580    0.0003720945    
0.0489228430    0.0197142610    0.0003754587    
0.0491455040    0.0195905940    0.0003716905    
0.0493681650    0.0199933090    0.0003787182    
0.0495908260    0.0196590390    0.0003692205    
0.0498134870    0.0195969490    0.0003721461    
0.0500361480    0.0199503190    0.0003744929    
0.0502588090    0.0194524310    0.0003642496    
0.0504814700    0.0201113580    0.0003752093    
0.0507041310    0.0194036000    0.0003641662    
0.0509267920    0.0196264980    0.0003677671    
0.0511494530    0.0196104220    0.0003651651    
0.0513721140    0.0188985830    0.0003616333    
0.0515947750    0.0196270330    0.0003636507    
0.0518174360    0.0197973570    0.0003630252    
0.0520400970    0.0200883430    0.0003631478    
0.0522627580    0.0189556460    0.0003557590    
0.0524854190    0.0195094360    0.0003638529    
0.0527080800    0.0196266430    0.0003677698    
0.0529307410    0.0197557810    0.0003707106    
0.0531534020    0.0197917440    0.0003696970    
0.0533760630    0.0193390820    0.0003665888    
0.0535987240    0.0202328680    0.0003732138    
0.0538213850    0.0196758880    0.0003723050    
0.0540440460    0.0191551370    0.0003656067    
0.0542667070    0.0194766650    0.0003712030    
0.0544893680    0.0196744820    0.0003732821    
0.0547120290    0.0194756920    0.0003688472    
0.0549346900    0.0193773110    0.0003681080    
0.0551573510    0.0195928220    0.0003745067    
0.0553800120    0.0198170590    0.0003734418    
0.0556026730    0.0193495510    0.0003766615    
0.0558253340    0.0194065580    0.0003803745    
0.0560479950    0.0191530920    0.0003778825    
0.0562706560    0.0196468340    0.0003864224    
0.0564933170    0.0198580710    0.0003918678    
0.0567159780    0.0194526800    0.0003831971    
0.0569386390    0.0192656300    0.0003873320    
0.0571613000    0.0188997010    0.0003753755    
0.0573839610    0.0198702930    0.0003816978    
0.0576066220    0.0189851230    0.0003741319    
0.0578292830    0.0199216910    0.0003819810    
0.0580519440    0.0198476740    0.0003827491    
0.0582746050    0.0195705910    0.0003783921    
0.0584972660    0.0196098200    0.0003773213    
0.0587199270    0.0193374110    0.0003714614    
0.0589425880    0.0192176480    0.0003681434    
0.0591652490    0.0192589600    0.0003707075    
0.0593879100    0.0191005040    0.0003664376    
0.0596105710    0.0192075460    0.0003670753    
0.0598332320    0.0196657510    0.0003746027    
0.0600558930    0.0194439630    0.0003701095    
0.0602785540    0.0188615640    0.0003641391    
0.0605012150    0.0199442390    0.0003736554    
0.0607238760    0.0196615130    0.0003682939    
0.0609465370    0.0193345940    0.0003680944    
0.0611691980    0.0190584870    0.0003660359    
0.0613918590    0.0187684140    0.0003592740    
0.0616145200    0.0192883960    0.0003668826    
0.0618371810    0.0192397980    0.0003628214    
0.0620598420    0.0189366820    0.0003603230    
0.0622825030    0.0195061640    0.0003712935    
0.0625051640    0.0196422710    0.0003673539    
0.0627278250    0.0192467250    0.0003628875    
0.0629504860    0.0190898780    0.0003584677    
0.0631731470    0.0204206250    0.0003753386    
0.0633958080    0.0200003750    0.0003735941    
0.0636184690    0.0195569640    0.0003745748    
0.0638411300    0.0191469560    0.0003692363    
0.0640637910    0.0195399960    0.0003756303    
0.0642864520    0.0198869070    0.0003781300    
0.0645091130    0.0196882500    0.0003795336    
0.0647317740    0.0195557080    0.0003786710    
0.0649544350    0.0191761510    0.0003745656    
0.0651770960    0.0198142090    0.0003786692    
0.0653997570    0.0194473530    0.0003743338    
0.0656224180    0.0195682050    0.0003763116    
0.0658450790    0.0203454690    0.0003781973    
0.0660677400    0.0196823730    0.0003735663    
0.0662904010    0.0195887990    0.0003771263    
0.0665130620    0.0190161540    0.0003699613    
0.0667357230    0.0196760040    0.0003830163    
0.0669583840    0.0200185490    0.0003850433    
0.0671810450    0.0193879320    0.0003768379    
0.0674037060    0.0196944000    0.0003862390    
0.0676263670    0.0198400020    0.0003848258    
0.0678490280    0.0195022230    0.0003792026    
0.0680716890    0.0190632830    0.0003757452    
0.0682943500    0.0200969330    0.0003815721    
0.0685170110    0.0200727260    0.0003774563    
0.0687396720    0.0193943320    0.0003700373    
0.0689623330    0.0195311810    0.0003701637    
0.0691849940    0.0193475260    0.0003709719    
0.0694076550    0.0194760940    0.0003720038    
0.0696303160    0.0203228350    0.0003769958    
0.0698529770    0.0199034600    0.0003723038    
0.0700756380    0.0192735870    0.0003616624    
0.0702982990    0.0193281010    0.0003661177    
0.0705209600    0.0192072350    0.0003623362    
0.0707436210    0.0193834050    0.0003623224    
0.0709662820    0.0197997620    0.0003705586    
0.0711889430    0.0194787530    0.0003630282    
0.0714116040    0.0199320040    0.0003679772    
0.0716342650    0.0198580730    0.0003658028    
0.0718569260    0.0187559580    0.0003540751    
0.0720795870    0.0195414180    0.0003628750    
0.0723022480    0.0196077790    0.0003640446    
0.0725249090    0.0192003340    0.0003559281    
0.0727475700    0.0191740330    0.0003587223    
0.0729702310    0.0194968450    0.0003588444    
0.0731928920    0.0192535500    0.0003580236    
0.0734155530    0.0197735790    0.0003621025    
0.0736382140    0.0194878660    0.0003571699    
0.0738608750    0.0197603690    0.0003619819    
0.0740835360    0.0195238170    0.0003589155    
0.0743061970    0.0197538980    0.0003559405    
0.0745288580    0.0190362820    0.0003530083    
0.0747515190    0.0193152830    0.0003562881    
0.0749741800    0.0197012130    0.0003564991    
0.0751968410    0.0195400090    0.0003578252    
0.0754195020    0.0196873330    0.0003570673    
0.0756421630    0.0194304860    0.0003518307    
0.0758648240    0.0194984130    0.0003532924    
0.0760874850    0.0202918780    0.0003602361    
0.0763101460    0.0191742460    0.0003498391    
0.0765328070    0.0189302590    0.0003511630    
0.0767554680    0.0194646320    0.0003536686    
0.0769781290    0.0199657470    0.0003561339    
0.0772007900    0.0197842930    0.0003516687    
0.0774234510    0.0197950400    0.0003537650    
0.0776461120    0.0196944030    0.0003525299    
0.0778687730    0.0193388230    0.0003481789    
0.0780914340    0.0196606860    0.0003535728    
0.0783140950    0.0196329710    0.0003477177    
0.0785367560    0.0192347150    0.0003497221    
0.0787594170    0.0196097800    0.0003499515    
0.0789820780    0.0201881810    0.0003532556    
0.0792047390    0.0194929060    0.0003482542    
0.0794274000    0.0198592270    0.0003530006    
0.0796500610    0.0197011120    0.0003481610    
0.0798727220    0.0194743750    0.0003458322    
0.0800953830    0.0199778850    0.0003494689    
0.0803180440    0.0195071580    0.0003477328    
0.0805407050    0.0194275830    0.0003467001    
0.0807633660    0.0200955570    0.0003522827    
0.0809860270    0.0195366970    0.0003460669    
0.0812086880    0.0193149640    0.0003411239    
0.0814313490    0.0193760310    0.0003432209    
0.0816540100    0.0192939580    0.0003417135    
0.0818766710    0.0194672840    0.0003440287    
0.0820993320    0.0198385960    0.0003466612    
0.0823219930    0.0195872600    0.0003458790    
0.0825446540    0.0198454020    0.0003456212    
0.0827673150    0.0194608720    0.0003399571    
0.0829899760    0.0196579320    0.0003410657    
0.0832126370    0.0192075080    0.0003386456    
0.0834352980    0.0197577160    0.0003426938    
0.0836579590    0.0194686590    0.0003394205    
0.0838806200    0.0194954200    0.0003407166    
0.0841032810    0.0199774790    0.0003427622    
0.0843259420    0.0195623870    0.0003381380    
0.0845486030    0.0194396760    0.0003370761    
0.0847712640    0.0198674390    0.0003386878    
0.0849939250    0.0200004270    0.0003404112    
0.0852165860    0.0199076330    0.0003400655    
0.0854392470    0.0196235620    0.0003344332    
0.0856619080    0.0199946530    0.0003400668    
0.0858845690    0.0193407460    0.0003314474    
0.0861072300    0.0194416940    0.0003346054    
0.0863298910    0.0195643670    0.0003374170    
0.0865525520    0.0193080180    0.0003323047    
0.0867752130    0.0196729550    0.0003327238    
0.0869978740    0.0194566220    0.0003317327    
0.0872205350    0.0202646700    0.0003381204    
0.0874431960    0.0193281920    0.0003302156    
0.0876658570    0.0191983340    0.0003303680    
0.0878885180    0.0189904070    0.0003291375    
0.0881111790    0.0194139630    0.0003323607    
0.0883338400    0.0195899180    0.0003289753    
0.0885565010    0.0190635360    0.0003289262    
0.0887791620    0.0197997840    0.0003308707    
0.0890018230    0.0188103400    0.0003256256    
0.0892244840    0.0198358840    0.0003349528    
0.0894471450    0.0198537420    0.0003336881    
0.0896698060    0.0194203730    0.0003287813    
0.0898924670    0.0190671300    0.0003272875    
0.0901151280    0.0191851830    0.0003247531    
0.0903377890    0.0198430290    0.0003330380    
0.0905604500    0.0199659300    0.0003325347    
0.0907831110    0.0192660250    0.0003258415    
0.0910057720    0.0197046470    0.0003310420    
0.0912284330    0.0190255560    0.0003206301    
0.0914510940    0.0198831620    0.0003314321    
0.0916737550    0.0195152350    0.0003275364    
0.0918964160    0.0195448600    0.0003291481    
0.0921190770    0.0192093500    0.0003233604    
0.0923417380    0.0197372020    0.0003279075    
0.0925643990    0.0193588220    0.0003239545    
0.0927870600    0.0196272380    0.0003275303    
0.0930097210    0.0193212010    0.0003221991    
0.0932323820    0.0194536370    0.0003256780    
