# Diamond Light Source Ltd.
# Data extracted from: /dls/b21/data/2018/cm19678-3/processed/b21-386631_00412.dat
q(1/A)          Column          Error           
0.0035000000    2.1084968000    0.0247017860    
0.0037226610    1.9069366000    0.0229968480    
0.0039453220    1.6295662000    0.0193393930    
0.0041679830    1.2767089000    0.0140578070    
0.0043906440    0.9576108000    0.0116453210    
0.0046133050    0.7894509900    0.0101504050    
0.0048359660    0.5779022700    0.0082147750    
0.0050586270    0.4533961500    0.0071518571    
0.0052812880    0.4258817400    0.0065535781    
0.0055039490    0.3832202500    0.0059111060    
0.0057266100    0.3117217000    0.0051575351    
0.0059492710    0.2687991900    0.0047893071    
0.0061719320    0.2281258200    0.0042516118    
0.0063945930    0.1981372000    0.0040103487    
0.0066172539    0.1832900000    0.0036218794    
0.0068399149    0.1733328900    0.0034666578    
0.0070625759    0.1478579300    0.0031689501    
0.0072852369    0.1303518600    0.0029309208    
0.0075078979    0.1139348100    0.0027266809    
0.0077305589    0.1061190300    0.0025813680    
0.0079532199    0.0982521440    0.0024494242    
0.0081758809    0.0889538620    0.0023523221    
0.0083985419    0.0844715390    0.0021380062    
0.0086212029    0.0766250590    0.0020362880    
0.0088438639    0.0738016320    0.0019823683    
0.0090665249    0.0695898910    0.0018592042    
0.0092891859    0.0624472880    0.0018382758    
0.0095118469    0.0625563400    0.0017693605    
0.0097345079    0.0572132400    0.0016434074    
0.0099571689    0.0547421790    0.0015743777    
0.0101798300    0.0519801760    0.0015341464    
0.0104024910    0.0463221570    0.0014433450    
0.0106251520    0.0465014460    0.0014510462    
0.0108478130    0.0450031600    0.0013901523    
0.0110704740    0.0443733540    0.0013142253    
0.0112931350    0.0407190860    0.0012626453    
0.0115157960    0.0415226410    0.0012676084    
0.0117384570    0.0378821900    0.0012003431    
0.0119611180    0.0398212930    0.0012342126    
0.0121837790    0.0378283230    0.0011827127    
0.0124064400    0.0357590820    0.0011019761    
0.0126291010    0.0338761250    0.0010591462    
0.0128517620    0.0320819900    0.0010332913    
0.0130744230    0.0325587380    0.0010332203    
0.0132970840    0.0326631890    0.0010298159    
0.0135197450    0.0308511220    0.0009865101    
0.0137424060    0.0321452060    0.0009929687    
0.0139650670    0.0307584470    0.0009496786    
0.0141877280    0.0318664510    0.0009687686    
0.0144103890    0.0296107810    0.0009177502    
0.0146330500    0.0289270390    0.0009013332    
0.0148557110    0.0283507850    0.0008885691    
0.0150783720    0.0294454040    0.0008980764    
0.0153010330    0.0277955930    0.0008602520    
0.0155236940    0.0296496090    0.0008831958    
0.0157463550    0.0263700980    0.0008184894    
0.0159690160    0.0257921480    0.0008063985    
0.0161916770    0.0271725990    0.0008230343    
0.0164143380    0.0265229360    0.0008192962    
0.0166369990    0.0249363940    0.0007699205    
0.0168596600    0.0249660110    0.0007635901    
0.0170823210    0.0243060510    0.0007469068    
0.0173049820    0.0248738210    0.0007568863    
0.0175276430    0.0267418070    0.0007930682    
0.0177503040    0.0233855330    0.0007227264    
0.0179729650    0.0229896680    0.0007094766    
0.0181956260    0.0238227910    0.0007083719    
0.0184182870    0.0242455880    0.0007112621    
0.0186409480    0.0243633030    0.0007174994    
0.0188636090    0.0237657000    0.0007041882    
0.0190862700    0.0233586360    0.0006970398    
0.0193089310    0.0219173380    0.0006741403    
0.0195315920    0.0227544780    0.0006635341    
0.0197542530    0.0228208260    0.0006654688    
0.0199769140    0.0235000250    0.0006752992    
0.0201995750    0.0229766340    0.0006572806    
0.0204222360    0.0226459780    0.0006581354    
0.0206448970    0.0228908940    0.0006569819    
0.0208675580    0.0225185520    0.0006381985    
0.0210902190    0.0217567440    0.0006333633    
0.0213128800    0.0225517700    0.0006360818    
0.0215355410    0.0221928180    0.0006234823    
0.0217582020    0.0216498290    0.0006158079    
0.0219808630    0.0213484330    0.0006107035    
0.0222035240    0.0215980200    0.0006086969    
0.0224261850    0.0219567180    0.0006082684    
0.0226488460    0.0209476480    0.0005896653    
0.0228715070    0.0213061570    0.0005932125    
0.0230941680    0.0217025590    0.0005987055    
0.0233168290    0.0214456370    0.0005966336    
0.0235394900    0.0206989020    0.0005796852    
0.0237621510    0.0211673850    0.0005704272    
0.0239848120    0.0216632160    0.0005777371    
0.0242074730    0.0215755520    0.0005719519    
0.0244301340    0.0218527710    0.0005762714    
0.0246527950    0.0203399010    0.0005611141    
0.0248754560    0.0198944470    0.0005424638    
0.0250981170    0.0206667130    0.0005541251    
0.0253207780    0.0206815800    0.0005377738    
0.0255434390    0.0211396840    0.0005494999    
0.0257661000    0.0202272110    0.0005392485    
0.0259887610    0.0212490200    0.0005468276    
0.0262114220    0.0219311710    0.0005584954    
0.0264340830    0.0204112890    0.0005314647    
0.0266567440    0.0207885380    0.0005330394    
0.0268794050    0.0206056350    0.0005285234    
0.0271020660    0.0211383680    0.0005331448    
0.0273247270    0.0202076500    0.0005181449    
0.0275473880    0.0206830950    0.0005231618    
0.0277700490    0.0209885290    0.0005238953    
0.0279927100    0.0201998320    0.0005094734    
0.0282153710    0.0201242460    0.0005109915    
0.0284380320    0.0199557310    0.0005058979    
0.0286606930    0.0206997380    0.0005108322    
0.0288833540    0.0212466660    0.0005185199    
0.0291060150    0.0201959330    0.0005050562    
0.0293286760    0.0201896510    0.0004979410    
0.0295513370    0.0206174070    0.0004977089    
0.0297739980    0.0204966930    0.0005017133    
0.0299966590    0.0199211690    0.0004861715    
0.0302193200    0.0192114180    0.0004843899    
0.0304419810    0.0206796270    0.0005034834    
0.0306646420    0.0212767520    0.0004962866    
0.0308873030    0.0200031000    0.0004791248    
0.0311099640    0.0205916220    0.0004873842    
0.0313326250    0.0195625510    0.0004697869    
0.0315552860    0.0200960420    0.0004823204    
0.0317779470    0.0211631280    0.0004953914    
0.0320006080    0.0213309870    0.0004860521    
0.0322232690    0.0198570570    0.0004709220    
0.0324459300    0.0203758270    0.0004734725    
0.0326685910    0.0201551810    0.0004701257    
0.0328912520    0.0202005830    0.0004722135    
0.0331139130    0.0204741880    0.0004692164    
0.0333365740    0.0199038580    0.0004641372    
0.0335592350    0.0207225490    0.0004690329    
0.0337818960    0.0205517740    0.0004667243    
0.0340045570    0.0200533570    0.0004602979    
0.0342272170    0.0201784910    0.0004599105    
0.0344498780    0.0206027890    0.0004665613    
0.0346725390    0.0203759820    0.0004553932    
0.0348952000    0.0199688810    0.0004487672    
0.0351178610    0.0199892500    0.0004510511    
0.0353405220    0.0198680530    0.0004476331    
0.0355631830    0.0200590040    0.0004480851    
0.0357858440    0.0192382390    0.0004388222    
0.0360085050    0.0195359310    0.0004435405    
0.0362311660    0.0194576890    0.0004373895    
0.0364538270    0.0208300350    0.0004489190    
0.0366764880    0.0201042350    0.0004407086    
0.0368991490    0.0197203400    0.0004342802    
0.0371218100    0.0199785190    0.0004358633    
0.0373444710    0.0198815670    0.0004395394    
0.0375671320    0.0198818340    0.0004389022    
0.0377897930    0.0203092210    0.0004321111    
0.0380124540    0.0200342300    0.0004318685    
0.0382351150    0.0200994100    0.0004325706    
0.0384577760    0.0192660170    0.0004194215    
0.0386804370    0.0200061860    0.0004306640    
0.0389030980    0.0200604250    0.0004279816    
0.0391257590    0.0196358620    0.0004205539    
0.0393484200    0.0198349440    0.0004212580    
0.0395710810    0.0200140130    0.0004237253    
0.0397937420    0.0202652120    0.0004263763    
0.0400164030    0.0197340420    0.0004224630    
0.0402390640    0.0200308340    0.0004199604    
0.0404617250    0.0202911590    0.0004201870    
0.0406843860    0.0195254690    0.0004082004    
0.0409070470    0.0199605320    0.0004170226    
0.0411297080    0.0199009000    0.0004123709    
0.0413523690    0.0199005620    0.0004134303    
0.0415750300    0.0193228630    0.0004108459    
0.0417976910    0.0199029870    0.0004061834    
0.0420203520    0.0195600760    0.0004041821    
0.0422430130    0.0199945780    0.0004101937    
0.0424656740    0.0200595220    0.0004055119    
0.0426883350    0.0202260170    0.0004092123    
0.0429109960    0.0200027020    0.0004082184    
0.0431336570    0.0198803160    0.0004012338    
0.0433563180    0.0201671260    0.0004076039    
0.0435789790    0.0196102620    0.0003956223    
0.0438016400    0.0200501240    0.0004022109    
0.0440243010    0.0198113440    0.0003957523    
0.0442469620    0.0193134230    0.0003930888    
0.0444696230    0.0195961510    0.0003945356    
0.0446922840    0.0195352110    0.0003927519    
0.0449149450    0.0195390750    0.0003875397    
0.0451376060    0.0196544330    0.0003934824    
0.0453602670    0.0195993150    0.0003888110    
0.0455829280    0.0197771820    0.0003901197    
0.0458055890    0.0194713160    0.0003893485    
0.0460282500    0.0196808450    0.0003867175    
0.0462509110    0.0196169010    0.0003836875    
0.0464735720    0.0191657380    0.0003794638    
0.0466962330    0.0205382600    0.0003946019    
0.0469188940    0.0196605840    0.0003849839    
0.0471415550    0.0198554380    0.0003888741    
0.0473642160    0.0194958160    0.0003799408    
0.0475868770    0.0198157640    0.0003811429    
0.0478095380    0.0202604120    0.0003837089    
0.0480321990    0.0191303780    0.0003736715    
0.0482548600    0.0193981680    0.0003746384    
0.0484775210    0.0202797360    0.0003868601    
0.0487001820    0.0195900370    0.0003746589    
0.0489228430    0.0196405660    0.0003749401    
0.0491455040    0.0198004200    0.0003738591    
0.0493681650    0.0196467160    0.0003756055    
0.0495908260    0.0195672800    0.0003685385    
0.0498134870    0.0197718160    0.0003739863    
0.0500361480    0.0190973660    0.0003665798    
0.0502588090    0.0202839800    0.0003721361    
0.0504814700    0.0194514240    0.0003691830    
0.0507041310    0.0193747600    0.0003640740    
0.0509267920    0.0195147030    0.0003668981    
0.0511494530    0.0190783560    0.0003603540    
0.0513721140    0.0195336240    0.0003678394    
0.0515947750    0.0193225740    0.0003609962    
0.0518174360    0.0202765640    0.0003675728    
0.0520400970    0.0194772240    0.0003577568    
0.0522627580    0.0190611410    0.0003569227    
0.0524854190    0.0193927390    0.0003629410    
0.0527080800    0.0198942450    0.0003704502    
0.0529307410    0.0198865860    0.0003721184    
0.0531534020    0.0190922760    0.0003632837    
0.0533760630    0.0198171520    0.0003712744    
0.0535987240    0.0200115460    0.0003713491    
0.0538213850    0.0199067540    0.0003746666    
0.0540440460    0.0198095820    0.0003719822    
0.0542667070    0.0195099500    0.0003717024    
0.0544893680    0.0198001350    0.0003746560    
0.0547120290    0.0196206760    0.0003703993    
0.0549346900    0.0200053140    0.0003742090    
0.0551573510    0.0189671600    0.0003686594    
0.0553800120    0.0194631700    0.0003702739    
0.0556026730    0.0193098330    0.0003764594    
0.0558253340    0.0194927760    0.0003814056    
0.0560479950    0.0199778760    0.0003861225    
0.0562706560    0.0200617270    0.0003906729    
0.0564933170    0.0194982840    0.0003884922    
0.0567159780    0.0202802690    0.0003914555    
0.0569386390    0.0199860830    0.0003947014    
0.0571613000    0.0195152820    0.0003816269    
0.0573839610    0.0196402610    0.0003796682    
0.0576066220    0.0201033970    0.0003851819    
0.0578292830    0.0197139780    0.0003801709    
0.0580519440    0.0198523830    0.0003829824    
0.0582746050    0.0195165720    0.0003780550    
0.0584972660    0.0194546560    0.0003760100    
0.0587199270    0.0200920810    0.0003788262    
0.0589425880    0.0196812490    0.0003727402    
0.0591652490    0.0197135660    0.0003752413    
0.0593879100    0.0192107350    0.0003676738    
0.0596105710    0.0192544920    0.0003677040    
0.0598332320    0.0198779090    0.0003768028    
0.0600558930    0.0201470800    0.0003769268    
0.0602785540    0.0195204420    0.0003706265    
0.0605012150    0.0197676150    0.0003721797    
0.0607238760    0.0197567760    0.0003693662    
0.0609465370    0.0188204580    0.0003633456    
0.0611691980    0.0194220090    0.0003696916    
0.0613918590    0.0197162000    0.0003684145    
0.0616145200    0.0200058620    0.0003738271    
0.0618371810    0.0198750750    0.0003689437    
0.0620598420    0.0192091990    0.0003630846    
0.0622825030    0.0188673960    0.0003653427    
0.0625051640    0.0201085650    0.0003718711    
0.0627278250    0.0190122160    0.0003608469    
0.0629504860    0.0194724650    0.0003622197    
0.0631731470    0.0192667160    0.0003647586    
0.0633958080    0.0199920690    0.0003736998    
0.0636184690    0.0197054280    0.0003761784    
0.0638411300    0.0195435100    0.0003732234    
0.0640637910    0.0197326540    0.0003776628    
0.0642864520    0.0198272670    0.0003777479    
0.0645091130    0.0196050500    0.0003789167    
0.0647317740    0.0192079230    0.0003754728    
0.0649544350    0.0189166830    0.0003722055    
0.0651770960    0.0193121050    0.0003740241    
0.0653997570    0.0198270690    0.0003781561    
0.0656224180    0.0198481950    0.0003791803    
0.0658450790    0.0196758050    0.0003721036    
0.0660677400    0.0194320040    0.0003713649    
0.0662904010    0.0196007630    0.0003774266    
0.0665130620    0.0192941930    0.0003728390    
0.0667357230    0.0204192490    0.0003903748    
0.0669583840    0.0200085490    0.0003851360    
0.0671810450    0.0198908580    0.0003818815    
0.0674037060    0.0194559400    0.0003840819    
0.0676263670    0.0192019800    0.0003787734    
0.0678490280    0.0197427830    0.0003817214    
0.0680716890    0.0191264790    0.0003765522    
0.0682943500    0.0195510180    0.0003765385    
0.0685170110    0.0194032650    0.0003712906    
0.0687396720    0.0198161990    0.0003742238    
0.0689623330    0.0195644010    0.0003706602    
0.0691849940    0.0188396370    0.0003662500    
0.0694076550    0.0195023270    0.0003724369    
0.0696303160    0.0198177670    0.0003724644    
0.0698529770    0.0188703860    0.0003626909    
0.0700756380    0.0201892030    0.0003703350    
0.0702982990    0.0195900430    0.0003687711    
0.0705209600    0.0201771330    0.0003715541    
0.0707436210    0.0190770270    0.0003596240    
0.0709662820    0.0194859880    0.0003677911    
0.0711889430    0.0195385110    0.0003637630    
0.0714116040    0.0195503650    0.0003646162    
0.0716342650    0.0191760870    0.0003596430    
0.0718569260    0.0198582810    0.0003645102    
0.0720795870    0.0196347980    0.0003639195    
0.0723022480    0.0194172960    0.0003624497    
0.0725249090    0.0196550840    0.0003602952    
0.0727475700    0.0192197290    0.0003593257    
0.0729702310    0.0187821530    0.0003523788    
0.0731928920    0.0191325080    0.0003570716    
0.0734155530    0.0197531670    0.0003620931    
0.0736382140    0.0196183920    0.0003585399    
0.0738608750    0.0194014310    0.0003588553    
0.0740835360    0.0197741450    0.0003613864    
0.0743061970    0.0198760110    0.0003572142    
0.0745288580    0.0199068100    0.0003611668    
0.0747515190    0.0190776850    0.0003542637    
0.0749741800    0.0199982180    0.0003593525    
0.0751968410    0.0195788700    0.0003583566    
0.0754195020    0.0198298280    0.0003585331    
0.0756421630    0.0200936300    0.0003579598    
0.0758648240    0.0195175560    0.0003536393    
0.0760874850    0.0195244210    0.0003535316    
0.0763101460    0.0192825200    0.0003509976    
0.0765328070    0.0193596410    0.0003552975    
0.0767554680    0.0197217400    0.0003561715    
0.0769781290    0.0198899680    0.0003556319    
0.0772007900    0.0192593490    0.0003471421    
0.0774234510    0.0196372770    0.0003525254    
0.0776461120    0.0194800280    0.0003507780    
0.0778687730    0.0205061010    0.0003587088    
0.0780914340    0.0197881890    0.0003548916    
0.0783140950    0.0199912900    0.0003510487    
0.0785367560    0.0192090450    0.0003496602    
0.0787594170    0.0192727080    0.0003471011    
0.0789820780    0.0200038170    0.0003518115    
0.0792047390    0.0195743220    0.0003491520    
0.0794274000    0.0194013840    0.0003490790    
0.0796500610    0.0192092740    0.0003439563    
0.0798727220    0.0198254550    0.0003491068    
0.0800953830    0.0196242280    0.0003465318    
0.0803180440    0.0197869080    0.0003503892    
0.0805407050    0.0190255180    0.0003432621    
0.0807633660    0.0196022040    0.0003481022    
0.0809860270    0.0191754370    0.0003430206    
0.0812086880    0.0197440030    0.0003450610    
0.0814313490    0.0196993380    0.0003462424    
0.0816540100    0.0189191300    0.0003385440    
0.0818766710    0.0196567950    0.0003458689    
0.0820993320    0.0200399790    0.0003485873    
0.0823219930    0.0201811740    0.0003512559    
0.0825446540    0.0194973520    0.0003427452    
0.0827673150    0.0197772000    0.0003428771    
0.0829899760    0.0193929130    0.0003389251    
0.0832126370    0.0192203890    0.0003389254    
0.0834352980    0.0195926690    0.0003414269    
0.0836579590    0.0195825460    0.0003405789    
0.0838806200    0.0192284570    0.0003385418    
0.0841032810    0.0192494820    0.0003366241    
0.0843259420    0.0187917760    0.0003315737    
0.0845486030    0.0196342760    0.0003389252    
0.0847712640    0.0194766060    0.0003355045    
0.0849939250    0.0195560980    0.0003367739    
0.0852165860    0.0199213630    0.0003403497    
0.0854392470    0.0197626350    0.0003357808    
0.0856619080    0.0194121760    0.0003352412    
0.0858845690    0.0200931860    0.0003379991    
0.0861072300    0.0196855950    0.0003368629    
0.0863298910    0.0193971750    0.0003361370    
0.0865525520    0.0194242960    0.0003334674    
0.0867752130    0.0192078480    0.0003289285    
0.0869978740    0.0197814470    0.0003346545    
0.0872205350    0.0190139560    0.0003276807    
0.0874431960    0.0198780000    0.0003350436    
0.0876658570    0.0193594480    0.0003319142    
0.0878885180    0.0197799200    0.0003360745    
0.0881111790    0.0193475910    0.0003319549    
0.0883338400    0.0196312710    0.0003294839    
0.0885565010    0.0195480880    0.0003332437    
0.0887791620    0.0192491630    0.0003263977    
0.0890018230    0.0196526030    0.0003329993    
0.0892244840    0.0197591110    0.0003344681    
0.0894471450    0.0191939510    0.0003282576    
0.0896698060    0.0195118700    0.0003297166    
0.0898924670    0.0198899970    0.0003344392    
0.0901151280    0.0197432710    0.0003296043    
0.0903377890    0.0195827570    0.0003310090    
0.0905604500    0.0188712210    0.0003234486    
0.0907831110    0.0193290700    0.0003265344    
0.0910057720    0.0195458470    0.0003298672    
0.0912284330    0.0189847380    0.0003204432    
0.0914510940    0.0191893050    0.0003257576    
0.0916737550    0.0193418010    0.0003262378    
0.0918964160    0.0190757800    0.0003253339    
0.0921190770    0.0192064140    0.0003234944    
0.0923417380    0.0191894570    0.0003234842    
0.0925643990    0.0197413990    0.0003273004    
0.0927870600    0.0198653490    0.0003296728    
0.0930097210    0.0192810090    0.0003220217    
0.0932323820    0.0194290750    0.0003256320    
