# Diamond Light Source Ltd.
# Data extracted from: /dls/b21/data/2018/cm19678-3/processed/b21-386631_00407.dat
q(1/A)          Column          Error           
0.0035000000    2.0671441000    0.0244534000    
0.0037226610    1.8884218000    0.0228802980    
0.0039453220    1.6096343000    0.0192168600    
0.0041679830    1.3029594000    0.0141987150    
0.0043906440    0.9834111800    0.0117987630    
0.0046133050    0.8015244400    0.0102256560    
0.0048359660    0.5861889500    0.0082717857    
0.0050586270    0.4559188400    0.0071702726    
0.0052812880    0.4294390200    0.0065795578    
0.0055039490    0.3755002600    0.0058500777    
0.0057266100    0.3123630600    0.0051617920    
0.0059492710    0.2690314600    0.0047904049    
0.0061719320    0.2294590700    0.0042631537    
0.0063945930    0.1999230700    0.0040275651    
0.0066172539    0.1827149400    0.0036154605    
0.0068399149    0.1673024100    0.0034051290    
0.0070625759    0.1459649600    0.0031479613    
0.0072852369    0.1284545600    0.0029089230    
0.0075078979    0.1131059000    0.0027161936    
0.0077305589    0.0986695340    0.0024886098    
0.0079532199    0.1007759800    0.0024801817    
0.0081758809    0.0927729930    0.0024018017    
0.0083985419    0.0845454910    0.0021385084    
0.0086212029    0.0765940080    0.0020354628    
0.0088438639    0.0712168600    0.0019469499    
0.0090665249    0.0648944540    0.0017950220    
0.0092891859    0.0643692890    0.0018659725    
0.0095118469    0.0609802210    0.0017465746    
0.0097345079    0.0590775150    0.0016696293    
0.0099571689    0.0501939410    0.0015072508    
0.0101798300    0.0495603020    0.0014977071    
0.0104024910    0.0481914850    0.0014718817    
0.0106251520    0.0508276160    0.0015167355    
0.0108478130    0.0482042640    0.0014384527    
0.0110704740    0.0446666380    0.0013182941    
0.0112931350    0.0421897950    0.0012849849    
0.0115157960    0.0399198510    0.0012426507    
0.0117384570    0.0371824980    0.0011889652    
0.0119611180    0.0365167370    0.0011816539    
0.0121837790    0.0383674360    0.0011908693    
0.0124064400    0.0353711900    0.0010957609    
0.0126291010    0.0352857440    0.0010807386    
0.0128517620    0.0323018550    0.0010366159    
0.0130744230    0.0319228200    0.0010228731    
0.0132970840    0.0330718700    0.0010360284    
0.0135197450    0.0320683800    0.0010055798    
0.0137424060    0.0303538720    0.0009647094    
0.0139650670    0.0285477470    0.0009147288    
0.0141877280    0.0299399700    0.0009388385    
0.0144103890    0.0302243080    0.0009270213    
0.0146330500    0.0287749510    0.0008987785    
0.0148557110    0.0291466050    0.0009007715    
0.0150783720    0.0286668330    0.0008859442    
0.0153010330    0.0283165960    0.0008681009    
0.0155236940    0.0272970910    0.0008472619    
0.0157463550    0.0265117790    0.0008205190    
0.0159690160    0.0265125560    0.0008174171    
0.0161916770    0.0263143450    0.0008097680    
0.0164143380    0.0252725910    0.0007995894    
0.0166369990    0.0251876700    0.0007736331    
0.0168596600    0.0263099090    0.0007837136    
0.0170823210    0.0248009390    0.0007543194    
0.0173049820    0.0248867630    0.0007569297    
0.0175276430    0.0248736730    0.0007647106    
0.0177503040    0.0247603110    0.0007435160    
0.0179729650    0.0227396050    0.0007054645    
0.0181956260    0.0241289620    0.0007127649    
0.0184182870    0.0241731920    0.0007100555    
0.0186409480    0.0238887510    0.0007103332    
0.0188636090    0.0238186400    0.0007048292    
0.0190862700    0.0243887590    0.0007120995    
0.0193089310    0.0236909790    0.0007007448    
0.0195315920    0.0220102910    0.0006524611    
0.0197542530    0.0219968790    0.0006532126    
0.0199769140    0.0230055620    0.0006680216    
0.0201995750    0.0214637340    0.0006351440    
0.0204222360    0.0237839360    0.0006743316    
0.0206448970    0.0217695790    0.0006405588    
0.0208675580    0.0226540660    0.0006399862    
0.0210902190    0.0218769400    0.0006349817    
0.0213128800    0.0225246970    0.0006355711    
0.0215355410    0.0205554930    0.0005999207    
0.0217582020    0.0214309480    0.0006125629    
0.0219808630    0.0213397810    0.0006104560    
0.0222035240    0.0211777170    0.0006026229    
0.0224261850    0.0207855800    0.0005917041    
0.0226488460    0.0216526170    0.0005993840    
0.0228715070    0.0207527020    0.0005853384    
0.0230941680    0.0225522700    0.0006101897    
0.0233168290    0.0214203540    0.0005961609    
0.0235394900    0.0213558560    0.0005886932    
0.0237621510    0.0218810040    0.0005798454    
0.0239848120    0.0213464080    0.0005733809    
0.0242074730    0.0213394710    0.0005686988    
0.0244301340    0.0228312970    0.0005889129    
0.0246527950    0.0204090240    0.0005619528    
0.0248754560    0.0221041980    0.0005716815    
0.0250981170    0.0219652640    0.0005711528    
0.0253207780    0.0203237540    0.0005329933    
0.0255434390    0.0212738950    0.0005511298    
0.0257661000    0.0206788640    0.0005451252    
0.0259887610    0.0203120200    0.0005345268    
0.0262114220    0.0209128920    0.0005452652    
0.0264340830    0.0218416040    0.0005496591    
0.0266567440    0.0203839120    0.0005277195    
0.0268794050    0.0208276490    0.0005312554    
0.0271020660    0.0207400030    0.0005279902    
0.0273247270    0.0214478170    0.0005336995    
0.0275473880    0.0206085760    0.0005221127    
0.0277700490    0.0217773950    0.0005335418    
0.0279927100    0.0203072470    0.0005107226    
0.0282153710    0.0198177860    0.0005069831    
0.0284380320    0.0198707250    0.0005047169    
0.0286606930    0.0204519250    0.0005076623    
0.0288833540    0.0206435430    0.0005110038    
0.0291060150    0.0203518770    0.0005068996    
0.0293286760    0.0207338820    0.0005045054    
0.0295513370    0.0199725250    0.0004897640    
0.0297739980    0.0199359740    0.0004947029    
0.0299966590    0.0209923640    0.0004989703    
0.0302193200    0.0196919650    0.0004903113    
0.0304419810    0.0207570190    0.0005043224    
0.0306646420    0.0214995570    0.0004987773    
0.0308873030    0.0202358980    0.0004818071    
0.0311099640    0.0200413090    0.0004807300    
0.0313326250    0.0202876400    0.0004783171    
0.0315552860    0.0207937510    0.0004905224    
0.0317779470    0.0199142580    0.0004804548    
0.0320006080    0.0204366790    0.0004756576    
0.0322232690    0.0199383190    0.0004717890    
0.0324459300    0.0209284480    0.0004797529    
0.0326685910    0.0208485410    0.0004780468    
0.0328912520    0.0210199550    0.0004815976    
0.0331139130    0.0196167280    0.0004591929    
0.0333365740    0.0203826380    0.0004695912    
0.0335592350    0.0204382460    0.0004657099    
0.0337818960    0.0194415800    0.0004538512    
0.0340045570    0.0208690070    0.0004694705    
0.0342272170    0.0200760110    0.0004586482    
0.0344498780    0.0195383140    0.0004542566    
0.0346725390    0.0199709500    0.0004507530    
0.0348952000    0.0204446870    0.0004539902    
0.0351178610    0.0195538540    0.0004460214    
0.0353405220    0.0205757690    0.0004554436    
0.0355631830    0.0198707780    0.0004458874    
0.0357858440    0.0196606760    0.0004435241    
0.0360085050    0.0199205880    0.0004477950    
0.0362311660    0.0196955060    0.0004399652    
0.0364538270    0.0197868000    0.0004374443    
0.0366764880    0.0194780440    0.0004337030    
0.0368991490    0.0195593910    0.0004324168    
0.0371218100    0.0198278440    0.0004341286    
0.0373444710    0.0199512170    0.0004402194    
0.0375671320    0.0200771640    0.0004409636    
0.0377897930    0.0195565910    0.0004239429    
0.0380124540    0.0196724900    0.0004278651    
0.0382351150    0.0205007210    0.0004367791    
0.0384577760    0.0202256840    0.0004296535    
0.0386804370    0.0198590750    0.0004289908    
0.0389030980    0.0200979320    0.0004282947    
0.0391257590    0.0197359480    0.0004215390    
0.0393484200    0.0195407260    0.0004180372    
0.0395710810    0.0192885240    0.0004158903    
0.0397937420    0.0204184100    0.0004278981    
0.0400164030    0.0197531660    0.0004225820    
0.0402390640    0.0194594400    0.0004138434    
0.0404617250    0.0197871700    0.0004148518    
0.0406843860    0.0201146850    0.0004142298    
0.0409070470    0.0194211910    0.0004112666    
0.0411297080    0.0196536780    0.0004097184    
0.0413523690    0.0200298650    0.0004146872    
0.0415750300    0.0192539090    0.0004100290    
0.0417976910    0.0204832350    0.0004119783    
0.0420203520    0.0194102260    0.0004025493    
0.0422430130    0.0194397080    0.0004043801    
0.0424656740    0.0200923640    0.0004057615    
0.0426883350    0.0203419580    0.0004103003    
0.0429109960    0.0202860630    0.0004110164    
0.0431336570    0.0196860840    0.0003991881    
0.0433563180    0.0193189970    0.0003988601    
0.0435789790    0.0199533540    0.0003989873    
0.0438016400    0.0193403280    0.0003949474    
0.0440243010    0.0196610730    0.0003941686    
0.0442469620    0.0192096280    0.0003919516    
0.0444696230    0.0197708320    0.0003962098    
0.0446922840    0.0201429490    0.0003987335    
0.0449149450    0.0201765600    0.0003937312    
0.0451376060    0.0195677250    0.0003925339    
0.0453602670    0.0190902160    0.0003836503    
0.0455829280    0.0198537820    0.0003907952    
0.0458055890    0.0191365710    0.0003859090    
0.0460282500    0.0201134200    0.0003908651    
0.0462509110    0.0203666050    0.0003908712    
0.0464735720    0.0197437500    0.0003850653    
0.0466962330    0.0193477040    0.0003829165    
0.0469188940    0.0201725670    0.0003898854    
0.0471415550    0.0191926640    0.0003822512    
0.0473642160    0.0194731120    0.0003796426    
0.0475868770    0.0201301680    0.0003840768    
0.0478095380    0.0199543750    0.0003807227    
0.0480321990    0.0191591050    0.0003738762    
0.0482548600    0.0197808620    0.0003782392    
0.0484775210    0.0197330090    0.0003815324    
0.0487001820    0.0197539970    0.0003761472    
0.0489228430    0.0195825240    0.0003743099    
0.0491455040    0.0198841250    0.0003745726    
0.0493681650    0.0189927430    0.0003692264    
0.0495908260    0.0200242230    0.0003727413    
0.0498134870    0.0203012100    0.0003788832    
0.0500361480    0.0199266440    0.0003743785    
0.0502588090    0.0194226910    0.0003640759    
0.0504814700    0.0192824450    0.0003675014    
0.0507041310    0.0193942630    0.0003641834    
0.0509267920    0.0198239790    0.0003697191    
0.0511494530    0.0195400770    0.0003646146    
0.0513721140    0.0200034650    0.0003721615    
0.0515947750    0.0194360920    0.0003619817    
0.0518174360    0.0196022830    0.0003613362    
0.0520400970    0.0195744290    0.0003585758    
0.0522627580    0.0194542600    0.0003605114    
0.0524854190    0.0194459880    0.0003633653    
0.0527080800    0.0201344150    0.0003726041    
0.0529307410    0.0193147450    0.0003666549    
0.0531534020    0.0198307850    0.0003701681    
0.0533760630    0.0194614710    0.0003678529    
0.0535987240    0.0195419250    0.0003668915    
0.0538213850    0.0200678580    0.0003761034    
0.0540440460    0.0193965860    0.0003680096    
0.0542667070    0.0204859940    0.0003808095    
0.0544893680    0.0193385870    0.0003701885    
0.0547120290    0.0196267040    0.0003703811    
0.0549346900    0.0198082900    0.0003722863    
0.0551573510    0.0196685740    0.0003753381    
0.0553800120    0.0195045730    0.0003705924    
0.0556026730    0.0194267260    0.0003775206    
0.0558253340    0.0204695640    0.0003907658    
0.0560479950    0.0192312640    0.0003787620    
0.0562706560    0.0197798280    0.0003878398    
0.0564933170    0.0185773750    0.0003791301    
0.0567159780    0.0193883580    0.0003826733    
0.0569386390    0.0199857760    0.0003946184    
0.0571613000    0.0195595920    0.0003819825    
0.0573839610    0.0190160410    0.0003735103    
0.0576066220    0.0189960600    0.0003743475    
0.0578292830    0.0194128550    0.0003771798    
0.0580519440    0.0196227790    0.0003806841    
0.0582746050    0.0195086630    0.0003779018    
0.0584972660    0.0193087490    0.0003745214    
0.0587199270    0.0192628760    0.0003708516    
0.0589425880    0.0197156110    0.0003729899    
0.0591652490    0.0197198570    0.0003752251    
0.0593879100    0.0199415260    0.0003745259    
0.0596105710    0.0194151500    0.0003691600    
0.0598332320    0.0190273660    0.0003685786    
0.0600558930    0.0195749980    0.0003714615    
0.0602785540    0.0191748960    0.0003672570    
0.0605012150    0.0199417200    0.0003737394    
0.0607238760    0.0199903670    0.0003714681    
0.0609465370    0.0200960020    0.0003753804    
0.0611691980    0.0195337180    0.0003706781    
0.0613918590    0.0198251930    0.0003693566    
0.0616145200    0.0187897890    0.0003622139    
0.0618371810    0.0199902480    0.0003699361    
0.0620598420    0.0195855810    0.0003665501    
0.0622825030    0.0192911140    0.0003693475    
0.0625051640    0.0194611070    0.0003657612    
0.0627278250    0.0201546400    0.0003714550    
0.0629504860    0.0196800990    0.0003640719    
0.0631731470    0.0198801630    0.0003704450    
0.0633958080    0.0196348410    0.0003702710    
0.0636184690    0.0196543720    0.0003756146    
0.0638411300    0.0190439940    0.0003683482    
0.0640637910    0.0200642390    0.0003807455    
0.0642864520    0.0192509130    0.0003721416    
0.0645091130    0.0201973900    0.0003845204    
0.0647317740    0.0201025530    0.0003840395    
0.0649544350    0.0197801650    0.0003805285    
0.0651770960    0.0196083970    0.0003768060    
0.0653997570    0.0199055490    0.0003788270    
0.0656224180    0.0192826000    0.0003736629    
0.0658450790    0.0201039570    0.0003760542    
0.0660677400    0.0189133420    0.0003663011    
0.0662904010    0.0194547910    0.0003759424    
0.0665130620    0.0196032530    0.0003757371    
0.0667357230    0.0197843220    0.0003841797    
0.0669583840    0.0192964610    0.0003781440    
0.0671810450    0.0195456770    0.0003784768    
0.0674037060    0.0192888940    0.0003823521    
0.0676263670    0.0191045770    0.0003777349    
0.0678490280    0.0194249290    0.0003785594    
0.0680716890    0.0193113970    0.0003782914    
0.0682943500    0.0197750610    0.0003786131    
0.0685170110    0.0189550810    0.0003669031    
0.0687396720    0.0198717460    0.0003746719    
0.0689623330    0.0199355280    0.0003740835    
0.0691849940    0.0195508360    0.0003730233    
0.0694076550    0.0199636550    0.0003767398    
0.0696303160    0.0190750050    0.0003653438    
0.0698529770    0.0202633340    0.0003757627    
0.0700756380    0.0199637290    0.0003681866    
0.0702982990    0.0194433230    0.0003673131    
0.0705209600    0.0196765310    0.0003668416    
0.0707436210    0.0191912740    0.0003606261    
0.0709662820    0.0195752390    0.0003685577    
0.0711889430    0.0194832060    0.0003631742    
0.0714116040    0.0195288480    0.0003643417    
0.0716342650    0.0202942770    0.0003699051    
0.0718569260    0.0199104260    0.0003649145    
0.0720795870    0.0190537460    0.0003584217    
0.0723022480    0.0189766040    0.0003582405    
0.0725249090    0.0194952760    0.0003587548    
0.0727475700    0.0194335390    0.0003612457    
0.0729702310    0.0194353850    0.0003583815    
0.0731928920    0.0196376780    0.0003616816    
0.0734155530    0.0197451620    0.0003619464    
0.0736382140    0.0195580420    0.0003579155    
0.0738608750    0.0201034940    0.0003652164    
0.0740835360    0.0200566160    0.0003638847    
0.0743061970    0.0191620530    0.0003506688    
0.0745288580    0.0195581450    0.0003579174    
0.0747515190    0.0192211980    0.0003555216    
0.0749741800    0.0193833750    0.0003537136    
0.0751968410    0.0194529200    0.0003571298    
0.0754195020    0.0190442130    0.0003512879    
0.0756421630    0.0205061920    0.0003615426    
0.0758648240    0.0196377470    0.0003546546    
0.0760874850    0.0190877860    0.0003494853    
0.0763101460    0.0196642870    0.0003543834    
0.0765328070    0.0190193800    0.0003520900    
0.0767554680    0.0190064710    0.0003495822    
0.0769781290    0.0198374150    0.0003550898    
0.0772007900    0.0190764170    0.0003454195    
0.0774234510    0.0192624160    0.0003490737    
0.0776461120    0.0200025030    0.0003553790    
0.0778687730    0.0200399140    0.0003545361    
0.0780914340    0.0194620590    0.0003518836    
0.0783140950    0.0192560790    0.0003444632    
0.0785367560    0.0190294810    0.0003479515    
0.0787594170    0.0194211170    0.0003483643    
0.0789820780    0.0197977950    0.0003499242    
0.0792047390    0.0192862470    0.0003465030    
0.0794274000    0.0190419390    0.0003457602    
0.0796500610    0.0200018080    0.0003509089    
0.0798727220    0.0199464650    0.0003500996    
0.0800953830    0.0193043230    0.0003436261    
0.0803180440    0.0194687780    0.0003474906    
0.0805407050    0.0202188030    0.0003537915    
0.0807633660    0.0198228910    0.0003499853    
0.0809860270    0.0192351370    0.0003434846    
0.0812086880    0.0195370750    0.0003431785    
0.0814313490    0.0190282850    0.0003402250    
0.0816540100    0.0195654620    0.0003442085    
0.0818766710    0.0194237500    0.0003437428    
0.0820993320    0.0192742240    0.0003417931    
0.0823219930    0.0196229900    0.0003462940    
0.0825446540    0.0191280890    0.0003394152    
0.0827673150    0.0198345490    0.0003433042    
0.0829899760    0.0191422970    0.0003366597    
0.0832126370    0.0191648080    0.0003383664    
0.0834352980    0.0190494650    0.0003365924    
0.0836579590    0.0192608000    0.0003377010    
0.0838806200    0.0192206650    0.0003384046    
0.0841032810    0.0193005250    0.0003370018    
0.0843259420    0.0190882630    0.0003341114    
0.0845486030    0.0199538150    0.0003416028    
0.0847712640    0.0191625290    0.0003327209    
0.0849939250    0.0191191800    0.0003329231    
0.0852165860    0.0186229360    0.0003290046    
0.0854392470    0.0194979990    0.0003334575    
0.0856619080    0.0188487430    0.0003302733    
0.0858845690    0.0196190070    0.0003339194    
0.0861072300    0.0199657240    0.0003391825    
0.0863298910    0.0190632480    0.0003331636    
0.0865525520    0.0193076970    0.0003323976    
0.0867752130    0.0190818240    0.0003277812    
0.0869978740    0.0192980540    0.0003304733    
0.0872205350    0.0195650920    0.0003323285    
0.0874431960    0.0196497950    0.0003330474    
0.0876658570    0.0196587710    0.0003344025    
0.0878885180    0.0193438170    0.0003322817    
0.0881111790    0.0202221940    0.0003393062    
0.0883338400    0.0194685400    0.0003280490    
0.0885565010    0.0201534580    0.0003382958    
0.0887791620    0.0196175600    0.0003294395    
0.0890018230    0.0198138430    0.0003342948    
0.0892244840    0.0196605540    0.0003335653    
0.0894471450    0.0194386960    0.0003302769    
0.0896698060    0.0198492650    0.0003324877    
0.0898924670    0.0195840160    0.0003317895    
0.0901151280    0.0194162500    0.0003267970    
0.0903377890    0.0196978630    0.0003319131    
0.0905604500    0.0191794440    0.0003260132    
0.0907831110    0.0199388110    0.0003315775    
0.0910057720    0.0197605170    0.0003316065    
0.0912284330    0.0195825800    0.0003253836    
0.0914510940    0.0190488610    0.0003244975    
0.0916737550    0.0192239550    0.0003251765    
0.0918964160    0.0191456970    0.0003258635    
0.0921190770    0.0186757750    0.0003189296    
0.0923417380    0.0193452080    0.0003247285    
0.0925643990    0.0196411870    0.0003264025    
0.0927870600    0.0196713590    0.0003279927    
0.0930097210    0.0194721100    0.0003235481    
0.0932323820    0.0193502820    0.0003249052    
