# Diamond Light Source Ltd.
# Data extracted from: /dls/b21/data/2018/cm19678-3/processed/b21-386631_00413.dat
q(1/A)          Column          Error           
0.0035000000    2.1130116000    0.0247292370    
0.0037226610    1.8688187000    0.0227667830    
0.0039453220    1.6570151000    0.0195023950    
0.0041679830    1.2709316000    0.0140265410    
0.0043906440    0.9591059600    0.0116548880    
0.0046133050    0.7910822500    0.0101613050    
0.0048359660    0.5945327900    0.0083324797    
0.0050586270    0.4560284100    0.0071728830    
0.0052812880    0.4295476500    0.0065819947    
0.0055039490    0.3823399600    0.0059045561    
0.0057266100    0.3185745800    0.0052141332    
0.0059492710    0.2683946300    0.0047858987    
0.0061719320    0.2222805200    0.0041969614    
0.0063945930    0.1998582400    0.0040278941    
0.0066172539    0.1894606000    0.0036824931    
0.0068399149    0.1695335300    0.0034285948    
0.0070625759    0.1399909400    0.0030836207    
0.0072852369    0.1277922500    0.0029021217    
0.0075078979    0.1134873800    0.0027214337    
0.0077305589    0.1004132000    0.0025111148    
0.0079532199    0.0980159590    0.0024465792    
0.0081758809    0.0936891960    0.0024142210    
0.0083985419    0.0821514140    0.0021085270    
0.0086212029    0.0725183870    0.0019810514    
0.0088438639    0.0729024220    0.0019703357    
0.0090665249    0.0649261090    0.0017958977    
0.0092891859    0.0647253970    0.0018715832    
0.0095118469    0.0605595240    0.0017409639    
0.0097345079    0.0572651610    0.0016442206    
0.0099571689    0.0537957530    0.0015607731    
0.0101798300    0.0510335220    0.0015201750    
0.0104024910    0.0469556460    0.0014532408    
0.0106251520    0.0472750810    0.0014631270    
0.0108478130    0.0445344670    0.0013829513    
0.0110704740    0.0449998440    0.0013235248    
0.0112931350    0.0433850610    0.0013033778    
0.0115157960    0.0414873600    0.0012671219    
0.0117384570    0.0391025080    0.0012195737    
0.0119611180    0.0378735130    0.0012036993    
0.0121837790    0.0383861520    0.0011914502    
0.0124064400    0.0380374830    0.0011365872    
0.0126291010    0.0359984180    0.0010918642    
0.0128517620    0.0328834200    0.0010461609    
0.0130744230    0.0334795670    0.0010477724    
0.0132970840    0.0319515160    0.0010185771    
0.0135197450    0.0314215210    0.0009956290    
0.0137424060    0.0314116430    0.0009816138    
0.0139650670    0.0309076010    0.0009520176    
0.0141877280    0.0300134830    0.0009402196    
0.0144103890    0.0287313660    0.0009040565    
0.0146330500    0.0277778620    0.0008832846    
0.0148557110    0.0285202310    0.0008912572    
0.0150783720    0.0276672630    0.0008705736    
0.0153010330    0.0281440240    0.0008656627    
0.0155236940    0.0293889440    0.0008793412    
0.0157463550    0.0275663900    0.0008368836    
0.0159690160    0.0262229170    0.0008131381    
0.0161916770    0.0267011470    0.0008158967    
0.0164143380    0.0255380210    0.0008039734    
0.0166369990    0.0249622210    0.0007703509    
0.0168596600    0.0247111460    0.0007597139    
0.0170823210    0.0248130370    0.0007546873    
0.0173049820    0.0253365330    0.0007639252    
0.0175276430    0.0246035480    0.0007607324    
0.0177503040    0.0231417450    0.0007189790    
0.0179729650    0.0246557130    0.0007347648    
0.0181956260    0.0248358840    0.0007233071    
0.0184182870    0.0233920330    0.0006986588    
0.0186409480    0.0232453090    0.0007008724    
0.0188636090    0.0233503140    0.0006980358    
0.0190862700    0.0233813620    0.0006974076    
0.0193089310    0.0226449420    0.0006852671    
0.0195315920    0.0227563520    0.0006635887    
0.0197542530    0.0213865830    0.0006442443    
0.0199769140    0.0218911740    0.0006518002    
0.0201995750    0.0227904860    0.0006546396    
0.0204222360    0.0221887650    0.0006514846    
0.0206448970    0.0227419210    0.0006548676    
0.0208675580    0.0234248410    0.0006509412    
0.0210902190    0.0214266260    0.0006285658    
0.0213128800    0.0216206210    0.0006228373    
0.0215355410    0.0221245760    0.0006225486    
0.0217582020    0.0225975560    0.0006291680    
0.0219808630    0.0218044500    0.0006172169    
0.0222035240    0.0225262400    0.0006216649    
0.0224261850    0.0212001740    0.0005977218    
0.0226488460    0.0192395590    0.0005651366    
0.0228715070    0.0215721960    0.0005969291    
0.0230941680    0.0217704180    0.0005996655    
0.0233168290    0.0208829980    0.0005887793    
0.0235394900    0.0216909890    0.0005934391    
0.0237621510    0.0211076350    0.0005696450    
0.0239848120    0.0209561880    0.0005682544    
0.0242074730    0.0206675340    0.0005598101    
0.0244301340    0.0215050190    0.0005716913    
0.0246527950    0.0207440730    0.0005666849    
0.0248754560    0.0211386670    0.0005591927    
0.0250981170    0.0212924800    0.0005624749    
0.0253207780    0.0214104850    0.0005471910    
0.0255434390    0.0218413780    0.0005585683    
0.0257661000    0.0211777790    0.0005517966    
0.0259887610    0.0217855570    0.0005537111    
0.0262114220    0.0209657640    0.0005460871    
0.0264340830    0.0205928810    0.0005338456    
0.0266567440    0.0200521350    0.0005235348    
0.0268794050    0.0202819530    0.0005243774    
0.0271020660    0.0201584120    0.0005206616    
0.0273247270    0.0214715660    0.0005341252    
0.0275473880    0.0204730540    0.0005205201    
0.0277700490    0.0204409800    0.0005170377    
0.0279927100    0.0204713630    0.0005129073    
0.0282153710    0.0209044680    0.0005208244    
0.0284380320    0.0197265050    0.0005030046    
0.0286606930    0.0211931340    0.0005169057    
0.0288833540    0.0202486400    0.0005062160    
0.0291060150    0.0209049540    0.0005138664    
0.0293286760    0.0200930600    0.0004967689    
0.0295513370    0.0205109630    0.0004964429    
0.0297739980    0.0205352270    0.0005022054    
0.0299966590    0.0190803320    0.0004758202    
0.0302193200    0.0204832820    0.0005001877    
0.0304419810    0.0200683680    0.0004960069    
0.0306646420    0.0204681160    0.0004867845    
0.0308873030    0.0197292950    0.0004758539    
0.0311099640    0.0203395070    0.0004844113    
0.0313326250    0.0199816210    0.0004748117    
0.0315552860    0.0197966940    0.0004787344    
0.0317779470    0.0202718870    0.0004848679    
0.0320006080    0.0202805050    0.0004739523    
0.0322232690    0.0205623470    0.0004792320    
0.0324459300    0.0210926980    0.0004817493    
0.0326685910    0.0194111030    0.0004613851    
0.0328912520    0.0201801680    0.0004719942    
0.0331139130    0.0206264320    0.0004709771    
0.0333365740    0.0198405520    0.0004634176    
0.0335592350    0.0199704530    0.0004604617    
0.0337818960    0.0199916650    0.0004603394    
0.0340045570    0.0206044600    0.0004665991    
0.0342272170    0.0210397760    0.0004696425    
0.0344498780    0.0195372790    0.0004543553    
0.0346725390    0.0200519430    0.0004517762    
0.0348952000    0.0202125930    0.0004515160    
0.0351178610    0.0199908960    0.0004510883    
0.0353405220    0.0190728850    0.0004386020    
0.0355631830    0.0209515740    0.0004579647    
0.0357858440    0.0200306380    0.0004477868    
0.0360085050    0.0197591000    0.0004460850    
0.0362311660    0.0198034430    0.0004412767    
0.0364538270    0.0208607780    0.0004492687    
0.0366764880    0.0195455150    0.0004345594    
0.0368991490    0.0201714950    0.0004392379    
0.0371218100    0.0207219310    0.0004439168    
0.0373444710    0.0202427740    0.0004435324    
0.0375671320    0.0205036190    0.0004457308    
0.0377897930    0.0202373370    0.0004313634    
0.0380124540    0.0201103630    0.0004327061    
0.0382351150    0.0202500320    0.0004342063    
0.0384577760    0.0201990240    0.0004294749    
0.0386804370    0.0200820060    0.0004314971    
0.0389030980    0.0200712090    0.0004281143    
0.0391257590    0.0198897030    0.0004232810    
0.0393484200    0.0203107940    0.0004262987    
0.0395710810    0.0206705890    0.0004306373    
0.0397937420    0.0196209240    0.0004195610    
0.0400164030    0.0197085340    0.0004222073    
0.0402390640    0.0199444290    0.0004190709    
0.0404617250    0.0200230720    0.0004174192    
0.0406843860    0.0200050130    0.0004131997    
0.0409070470    0.0194045250    0.0004111903    
0.0411297080    0.0195265360    0.0004084906    
0.0413523690    0.0200310460    0.0004148006    
0.0415750300    0.0198923070    0.0004168729    
0.0417976910    0.0196144720    0.0004032452    
0.0420203520    0.0200962510    0.0004097012    
0.0422430130    0.0198447390    0.0004086707    
0.0424656740    0.0194708980    0.0003995344    
0.0426883350    0.0205257580    0.0004122503    
0.0429109960    0.0192461670    0.0004004407    
0.0431336570    0.0191773800    0.0003940927    
0.0433563180    0.0194437650    0.0004002436    
0.0435789790    0.0200508890    0.0004000588    
0.0438016400    0.0206246830    0.0004079499    
0.0440243010    0.0195441640    0.0003930908    
0.0442469620    0.0197790860    0.0003978158    
0.0444696230    0.0199234680    0.0003978333    
0.0446922840    0.0203028150    0.0004004103    
0.0449149450    0.0197636110    0.0003897761    
0.0451376060    0.0198923970    0.0003958735    
0.0453602670    0.0197860620    0.0003906751    
0.0455829280    0.0197711140    0.0003900759    
0.0458055890    0.0199167250    0.0003937927    
0.0460282500    0.0194772820    0.0003847282    
0.0462509110    0.0199787650    0.0003872261    
0.0464735720    0.0195805670    0.0003835642    
0.0466962330    0.0193647240    0.0003831783    
0.0469188940    0.0204462790    0.0003926173    
0.0471415550    0.0198799240    0.0003891298    
0.0473642160    0.0200379880    0.0003852035    
0.0475868770    0.0198540540    0.0003815266    
0.0478095380    0.0195861940    0.0003772860    
0.0480321990    0.0200881860    0.0003829275    
0.0482548600    0.0194431820    0.0003750883    
0.0484775210    0.0194474180    0.0003788538    
0.0487001820    0.0197421360    0.0003761260    
0.0489228430    0.0202792660    0.0003810035    
0.0491455040    0.0202679810    0.0003782630    
0.0493681650    0.0194113480    0.0003733642    
0.0495908260    0.0196730180    0.0003695482    
0.0498134870    0.0197875940    0.0003741509    
0.0500361480    0.0191411620    0.0003670150    
0.0502588090    0.0192887790    0.0003629071    
0.0504814700    0.0195581390    0.0003702096    
0.0507041310    0.0195337200    0.0003655796    
0.0509267920    0.0192058710    0.0003639983    
0.0511494530    0.0191207690    0.0003607692    
0.0513721140    0.0194659590    0.0003672169    
0.0515947750    0.0189464500    0.0003574802    
0.0518174360    0.0198784000    0.0003639610    
0.0520400970    0.0194065380    0.0003571218    
0.0522627580    0.0195907450    0.0003618621    
0.0524854190    0.0199038190    0.0003677076    
0.0527080800    0.0191508230    0.0003634776    
0.0529307410    0.0197002050    0.0003703858    
0.0531534020    0.0201169800    0.0003729205    
0.0533760630    0.0196379180    0.0003696068    
0.0535987240    0.0198753620    0.0003700986    
0.0538213850    0.0201693260    0.0003771450    
0.0540440460    0.0190567670    0.0003648607    
0.0542667070    0.0199223260    0.0003756256    
0.0544893680    0.0192062240    0.0003690095    
0.0547120290    0.0199719400    0.0003737155    
0.0549346900    0.0196359440    0.0003707536    
0.0551573510    0.0206025980    0.0003842404    
0.0553800120    0.0192604750    0.0003683560    
0.0556026730    0.0198325600    0.0003815365    
0.0558253340    0.0189047730    0.0003756245    
0.0560479950    0.0197854730    0.0003842745    
0.0562706560    0.0194242730    0.0003844318    
0.0564933170    0.0194689250    0.0003882156    
0.0567159780    0.0190124290    0.0003790376    
0.0569386390    0.0193874740    0.0003887616    
0.0571613000    0.0199497680    0.0003858676    
0.0573839610    0.0198767590    0.0003819630    
0.0576066220    0.0195441190    0.0003798019    
0.0578292830    0.0201041950    0.0003839308    
0.0580519440    0.0193811280    0.0003784251    
0.0582746050    0.0198843750    0.0003816164    
0.0584972660    0.0196670290    0.0003780723    
0.0587199270    0.0200865930    0.0003787901    
0.0589425880    0.0195275530    0.0003712973    
0.0591652490    0.0190294440    0.0003686880    
0.0593879100    0.0194656670    0.0003701206    
0.0596105710    0.0198459790    0.0003733245    
0.0598332320    0.0198866890    0.0003769015    
0.0600558930    0.0200852680    0.0003763636    
0.0602785540    0.0196557620    0.0003719242    
0.0605012150    0.0197201880    0.0003717483    
0.0607238760    0.0193509430    0.0003655679    
0.0609465370    0.0197831020    0.0003725374    
0.0611691980    0.0192828580    0.0003683801    
0.0613918590    0.0194768590    0.0003661866    
0.0616145200    0.0186801950    0.0003612441    
0.0618371810    0.0197123280    0.0003674451    
0.0620598420    0.0196500420    0.0003672424    
0.0622825030    0.0196330470    0.0003726973    
0.0625051640    0.0191611060    0.0003630196    
0.0627278250    0.0191850160    0.0003624980    
0.0629504860    0.0196762220    0.0003641248    
0.0631731470    0.0196895810    0.0003687549    
0.0633958080    0.0192671790    0.0003668774    
0.0636184690    0.0197429600    0.0003765519    
0.0638411300    0.0204646380    0.0003819333    
0.0640637910    0.0194234460    0.0003747076    
0.0642864520    0.0201815730    0.0003811238    
0.0645091130    0.0197311750    0.0003801493    
0.0647317740    0.0192168450    0.0003755755    
0.0649544350    0.0197751650    0.0003805732    
0.0651770960    0.0200526290    0.0003811433    
0.0653997570    0.0190280520    0.0003704733    
0.0656224180    0.0198498300    0.0003792115    
0.0658450790    0.0188680900    0.0003644010    
0.0660677400    0.0193910180    0.0003709884    
0.0662904010    0.0191808210    0.0003733769    
0.0665130620    0.0197713320    0.0003774365    
0.0667357230    0.0193162900    0.0003797009    
0.0669583840    0.0199583000    0.0003846679    
0.0671810450    0.0198998280    0.0003819833    
0.0674037060    0.0196698620    0.0003862036    
0.0676263670    0.0193305890    0.0003800554    
0.0678490280    0.0199658420    0.0003838875    
0.0680716890    0.0197656560    0.0003828081    
0.0682943500    0.0197702020    0.0003786589    
0.0685170110    0.0194474950    0.0003717289    
0.0687396720    0.0186940660    0.0003634887    
0.0689623330    0.0204649530    0.0003791106    
0.0691849940    0.0196600610    0.0003741551    
0.0694076550    0.0194328030    0.0003717878    
0.0696303160    0.0194763570    0.0003692574    
0.0698529770    0.0195133210    0.0003688330    
0.0700756380    0.0198919430    0.0003676137    
0.0702982990    0.0193903250    0.0003669016    
0.0705209600    0.0191113510    0.0003616229    
0.0707436210    0.0195125110    0.0003637205    
0.0709662820    0.0194875930    0.0003678214    
0.0711889430    0.0197026730    0.0003653030    
0.0714116040    0.0201164330    0.0003698724    
0.0716342650    0.0193665420    0.0003614394    
0.0718569260    0.0196926330    0.0003630017    
0.0720795870    0.0195419770    0.0003630732    
0.0723022480    0.0200143170    0.0003679948    
0.0725249090    0.0193792890    0.0003577732    
0.0727475700    0.0203164100    0.0003694503    
0.0729702310    0.0195704870    0.0003597127    
0.0731928920    0.0189274810    0.0003551678    
0.0734155530    0.0195954810    0.0003606598    
0.0736382140    0.0194037550    0.0003565879    
0.0738608750    0.0204916700    0.0003688154    
0.0740835360    0.0196370660    0.0003601464    
0.0743061970    0.0197107170    0.0003557404    
0.0745288580    0.0200001930    0.0003620278    
0.0747515190    0.0194805780    0.0003579997    
0.0749741800    0.0191216020    0.0003514027    
0.0751968410    0.0193443360    0.0003562185    
0.0754195020    0.0197860800    0.0003581521    
0.0756421630    0.0202866080    0.0003596894    
0.0758648240    0.0202689150    0.0003603968    
0.0760874850    0.0199421580    0.0003573083    
0.0763101460    0.0198847390    0.0003564512    
0.0765328070    0.0196938130    0.0003583656    
0.0767554680    0.0192280290    0.0003516995    
0.0769781290    0.0192175300    0.0003495830    
0.0772007900    0.0193485420    0.0003479593    
0.0774234510    0.0194110500    0.0003505033    
0.0776461120    0.0201449180    0.0003567289    
0.0778687730    0.0198426040    0.0003528724    
0.0780914340    0.0201717390    0.0003583292    
0.0783140950    0.0189510600    0.0003418075    
0.0785367560    0.0190960510    0.0003486446    
0.0787594170    0.0197681880    0.0003515491    
0.0789820780    0.0198074520    0.0003500949    
0.0792047390    0.0192769700    0.0003465042    
0.0794274000    0.0195600140    0.0003505176    
0.0796500610    0.0192786090    0.0003445907    
0.0798727220    0.0198762710    0.0003495683    
0.0800953830    0.0189037210    0.0003401248    
0.0803180440    0.0188143130    0.0003416833    
0.0805407050    0.0194049020    0.0003466820    
0.0807633660    0.0190721480    0.0003433777    
0.0809860270    0.0195206680    0.0003461090    
0.0812086880    0.0194923260    0.0003428688    
0.0814313490    0.0194331680    0.0003439095    
0.0816540100    0.0197022350    0.0003454938    
0.0818766710    0.0194332250    0.0003439105    
0.0820993320    0.0196050190    0.0003447978    
0.0823219930    0.0193085110    0.0003435918    
0.0825446540    0.0194025480    0.0003419250    
0.0827673150    0.0193032340    0.0003387575    
0.0829899760    0.0189324540    0.0003348910    
0.0832126370    0.0194849600    0.0003412642    
0.0834352980    0.0193503220    0.0003393227    
0.0836579590    0.0196907880    0.0003415329    
0.0838806200    0.0189498760    0.0003360943    
0.0841032810    0.0200164010    0.0003432784    
0.0843259420    0.0190624690    0.0003339670    
0.0845486030    0.0198172740    0.0003405151    
0.0847712640    0.0199579410    0.0003396389    
0.0849939250    0.0195113080    0.0003364019    
0.0852165860    0.0190739790    0.0003330461    
0.0854392470    0.0192222300    0.0003311717    
0.0856619080    0.0195527340    0.0003364666    
0.0858845690    0.0192646640    0.0003309708    
0.0861072300    0.0190011900    0.0003309689    
0.0863298910    0.0186531140    0.0003296406    
0.0865525520    0.0198667430    0.0003372577    
0.0867752130    0.0201163860    0.0003366317    
0.0869978740    0.0197094710    0.0003340588    
0.0872205350    0.0189477500    0.0003271232    
0.0874431960    0.0194447710    0.0003313861    
0.0876658570    0.0190537240    0.0003292965    
0.0878885180    0.0191762240    0.0003309198    
0.0881111790    0.0191498250    0.0003302676    
0.0883338400    0.0198319820    0.0003311776    
0.0885565010    0.0200326170    0.0003373623    
0.0887791620    0.0193227040    0.0003270341    
0.0890018230    0.0192084320    0.0003292283    
0.0892244840    0.0193870390    0.0003313177    
0.0894471450    0.0189092000    0.0003258270    
0.0896698060    0.0199035240    0.0003330230    
0.0898924670    0.0192561380    0.0003290806    
0.0901151280    0.0200035400    0.0003317834    
0.0903377890    0.0188457590    0.0003247339    
0.0905604500    0.0192386980    0.0003265961    
0.0907831110    0.0194354810    0.0003274454    
0.0910057720    0.0193692970    0.0003283875    
0.0912284330    0.0197003170    0.0003264399    
0.0914510940    0.0195669610    0.0003289610    
0.0916737550    0.0187985880    0.0003216372    
0.0918964160    0.0195656600    0.0003294984    
0.0921190770    0.0193333250    0.0003245747    
0.0923417380    0.0195291580    0.0003263483    
0.0925643990    0.0196236340    0.0003263362    
0.0927870600    0.0193745500    0.0003255882    
0.0930097210    0.0190835850    0.0003203820    
0.0932323820    0.0193870110    0.0003252928    
