# Diamond Light Source Ltd.
# Data extracted from: /dls/b21/data/2018/cm19678-3/processed/b21-386631_00420.dat
q(1/A)          Column          Error           
0.0035000000    2.0648381000    0.0244449420    
0.0037226610    1.8340331000    0.0225531860    
0.0039453220    1.6325809000    0.0193574580    
0.0041679830    1.2660524000    0.0139991480    
0.0043906440    0.9645683300    0.0116876600    
0.0046133050    0.7708028000    0.0100298990    
0.0048359660    0.5967138200    0.0083474850    
0.0050586270    0.4508100100    0.0071314988    
0.0052812880    0.4359748400    0.0066308439    
0.0055039490    0.3824069100    0.0059048860    
0.0057266100    0.3216264400    0.0052388827    
0.0059492710    0.2697429800    0.0047977532    
0.0061719320    0.2201269700    0.0041764486    
0.0063945930    0.1958681500    0.0039873573    
0.0066172539    0.1823630600    0.0036127438    
0.0068399149    0.1679280900    0.0034122142    
0.0070625759    0.1475211400    0.0031653690    
0.0072852369    0.1258070900    0.0028794010    
0.0075078979    0.1177218200    0.0027716521    
0.0077305589    0.1001556600    0.0025078130    
0.0079532199    0.0995974460    0.0024661598    
0.0081758809    0.0915682320    0.0023866620    
0.0083985419    0.0839861110    0.0021318744    
0.0086212029    0.0739748910    0.0020007834    
0.0088438639    0.0742290260    0.0019881190    
0.0090665249    0.0673062770    0.0018284619    
0.0092891859    0.0619614420    0.0018311283    
0.0095118469    0.0591543990    0.0017205936    
0.0097345079    0.0574975660    0.0016475015    
0.0099571689    0.0528414690    0.0015468189    
0.0101798300    0.0522075620    0.0015375129    
0.0104024910    0.0496511000    0.0014943225    
0.0106251520    0.0462306510    0.0014468288    
0.0108478130    0.0466787830    0.0014158093    
0.0110704740    0.0436346270    0.0013032522    
0.0112931350    0.0408373210    0.0012644891    
0.0115157960    0.0394337140    0.0012353232    
0.0117384570    0.0383012950    0.0012069762    
0.0119611180    0.0366087420    0.0011833926    
0.0121837790    0.0368306210    0.0011670229    
0.0124064400    0.0332806890    0.0010631126    
0.0126291010    0.0351020280    0.0010781502    
0.0128517620    0.0321491610    0.0010343823    
0.0130744230    0.0310838570    0.0010095568    
0.0132970840    0.0338976310    0.0010491053    
0.0135197450    0.0328075420    0.0010173187    
0.0137424060    0.0304894480    0.0009670666    
0.0139650670    0.0297620750    0.0009341792    
0.0141877280    0.0314252770    0.0009620484    
0.0144103890    0.0293553380    0.0009137917    
0.0146330500    0.0282535480    0.0008907873    
0.0148557110    0.0285741240    0.0008920706    
0.0150783720    0.0278024680    0.0008726706    
0.0153010330    0.0284084870    0.0008696928    
0.0155236940    0.0277296190    0.0008541293    
0.0157463550    0.0268278930    0.0008255713    
0.0159690160    0.0260195530    0.0008099533    
0.0161916770    0.0260263590    0.0008054956    
0.0164143380    0.0245999840    0.0007890449    
0.0166369990    0.0262918730    0.0007905766    
0.0168596600    0.0262743650    0.0007833502    
0.0170823210    0.0242835610    0.0007465683    
0.0173049820    0.0243906260    0.0007495057    
0.0175276430    0.0251429500    0.0007690019    
0.0177503040    0.0249941810    0.0007471777    
0.0179729650    0.0238221280    0.0007222143    
0.0181956260    0.0248764380    0.0007238744    
0.0184182870    0.0246424980    0.0007170671    
0.0186409480    0.0233072280    0.0007017830    
0.0188636090    0.0241626010    0.0007100508    
0.0190862700    0.0237958920    0.0007035403    
0.0193089310    0.0223324700    0.0006805012    
0.0195315920    0.0226388140    0.0006618518    
0.0197542530    0.0231899700    0.0006708358    
0.0199769140    0.0233258190    0.0006727980    
0.0201995750    0.0224881970    0.0006502630    
0.0204222360    0.0228950600    0.0006617511    
0.0206448970    0.0232307390    0.0006618471    
0.0208675580    0.0221210540    0.0006325467    
0.0210902190    0.0213146390    0.0006269011    
0.0213128800    0.0221574900    0.0006305029    
0.0215355410    0.0233668360    0.0006397672    
0.0217582020    0.0221757310    0.0006232483    
0.0219808630    0.0222572990    0.0006235736    
0.0222035240    0.0220616210    0.0006152009    
0.0224261850    0.0219402840    0.0006080464    
0.0226488460    0.0219937880    0.0006042158    
0.0228715070    0.0219507140    0.0006021243    
0.0230941680    0.0224462240    0.0006088826    
0.0233168290    0.0208484760    0.0005882738    
0.0235394900    0.0207480000    0.0005803778    
0.0237621510    0.0208910840    0.0005666974    
0.0239848120    0.0230195310    0.0005955540    
0.0242074730    0.0209997950    0.0005642742    
0.0244301340    0.0215188540    0.0005718571    
0.0246527950    0.0209439940    0.0005693910    
0.0248754560    0.0218917040    0.0005690477    
0.0250981170    0.0201619430    0.0005473214    
0.0253207780    0.0205001840    0.0005354153    
0.0255434390    0.0205830160    0.0005422219    
0.0257661000    0.0214927180    0.0005558668    
0.0259887610    0.0207005970    0.0005397300    
0.0262114220    0.0211493320    0.0005484552    
0.0264340830    0.0216848120    0.0005477989    
0.0266567440    0.0201738760    0.0005251050    
0.0268794050    0.0211211770    0.0005350993    
0.0271020660    0.0207891460    0.0005287275    
0.0273247270    0.0212177710    0.0005309423    
0.0275473880    0.0211069500    0.0005285002    
0.0277700490    0.0203873760    0.0005163430    
0.0279927100    0.0202259150    0.0005098070    
0.0282153710    0.0206176880    0.0005172232    
0.0284380320    0.0203023920    0.0005102779    
0.0286606930    0.0210657240    0.0005153333    
0.0288833540    0.0195766630    0.0004977296    
0.0291060150    0.0205752340    0.0005097817    
0.0293286760    0.0202023160    0.0004981019    
0.0295513370    0.0206177980    0.0004977183    
0.0297739980    0.0207918280    0.0005053173    
0.0299966590    0.0207402410    0.0004960701    
0.0302193200    0.0201522200    0.0004961134    
0.0304419810    0.0205451760    0.0005018488    
0.0306646420    0.0206173100    0.0004885399    
0.0308873030    0.0197395210    0.0004759621    
0.0311099640    0.0202920740    0.0004838308    
0.0313326250    0.0206459910    0.0004826254    
0.0315552860    0.0204089830    0.0004860660    
0.0317779470    0.0197255700    0.0004782747    
0.0320006080    0.0203567490    0.0004748273    
0.0322232690    0.0203711810    0.0004769840    
0.0324459300    0.0208713160    0.0004791993    
0.0326685910    0.0209889820    0.0004797560    
0.0328912520    0.0196821440    0.0004661189    
0.0331139130    0.0200551920    0.0004643949    
0.0333365740    0.0192873020    0.0004568963    
0.0335592350    0.0203407570    0.0004646965    
0.0337818960    0.0200857930    0.0004614072    
0.0340045570    0.0204446690    0.0004647716    
0.0342272170    0.0196442660    0.0004537859    
0.0344498780    0.0193458580    0.0004521097    
0.0346725390    0.0203051220    0.0004546049    
0.0348952000    0.0197776360    0.0004466174    
0.0351178610    0.0199896290    0.0004510597    
0.0353405220    0.0200802260    0.0004500212    
0.0355631830    0.0207500530    0.0004557425    
0.0357858440    0.0199492920    0.0004468624    
0.0360085050    0.0201203770    0.0004501304    
0.0362311660    0.0200479940    0.0004439789    
0.0364538270    0.0207917300    0.0004485103    
0.0366764880    0.0203268210    0.0004431458    
0.0368991490    0.0197876620    0.0004350250    
0.0371218100    0.0200169350    0.0004362863    
0.0373444710    0.0202026210    0.0004430783    
0.0375671320    0.0199984820    0.0004401921    
0.0377897930    0.0196752190    0.0004253170    
0.0380124540    0.0200997780    0.0004325785    
0.0382351150    0.0201928900    0.0004335795    
0.0384577760    0.0196772770    0.0004238785    
0.0386804370    0.0198675030    0.0004291728    
0.0389030980    0.0202799500    0.0004303211    
0.0391257590    0.0204198820    0.0004288718    
0.0393484200    0.0202647730    0.0004258019    
0.0395710810    0.0201758720    0.0004254393    
0.0397937420    0.0195120290    0.0004183818    
0.0400164030    0.0198248590    0.0004234380    
0.0402390640    0.0187192800    0.0004059827    
0.0404617250    0.0200479070    0.0004176647    
0.0406843860    0.0199610750    0.0004127327    
0.0409070470    0.0201090280    0.0004185749    
0.0411297080    0.0195680240    0.0004089114    
0.0413523690    0.0202960390    0.0004175221    
0.0415750300    0.0197512770    0.0004153793    
0.0417976910    0.0196712560    0.0004038157    
0.0420203520    0.0195353920    0.0004039308    
0.0422430130    0.0196246810    0.0004063856    
0.0424656740    0.0204697900    0.0004096417    
0.0426883350    0.0199366250    0.0004062781    
0.0429109960    0.0196115180    0.0004042109    
0.0431336570    0.0195972630    0.0003983710    
0.0433563180    0.0202910840    0.0004088585    
0.0435789790    0.0195308190    0.0003948239    
0.0438016400    0.0198649270    0.0004003529    
0.0440243010    0.0196931350    0.0003945736    
0.0442469620    0.0195538120    0.0003955313    
0.0444696230    0.0200175270    0.0003987587    
0.0446922840    0.0201199120    0.0003985900    
0.0449149450    0.0196393720    0.0003885368    
0.0451376060    0.0198281160    0.0003952208    
0.0453602670    0.0197616690    0.0003904218    
0.0455829280    0.0194620400    0.0003870027    
0.0458055890    0.0198843210    0.0003934598    
0.0460282500    0.0200611650    0.0003904399    
0.0462509110    0.0197148350    0.0003846477    
0.0464735720    0.0191435620    0.0003792478    
0.0466962330    0.0200534260    0.0003899202    
0.0469188940    0.0195704930    0.0003841045    
0.0471415550    0.0194978470    0.0003853600    
0.0473642160    0.0190445080    0.0003755210    
0.0475868770    0.0195595490    0.0003786744    
0.0478095380    0.0199337760    0.0003806069    
0.0480321990    0.0200358200    0.0003824159    
0.0482548600    0.0191018780    0.0003717698    
0.0484775210    0.0195937850    0.0003802647    
0.0487001820    0.0198770290    0.0003773968    
0.0489228430    0.0196767280    0.0003752887    
0.0491455040    0.0195960820    0.0003719286    
0.0493681650    0.0202000230    0.0003808614    
0.0495908260    0.0198314230    0.0003710212    
0.0498134870    0.0201046760    0.0003771247    
0.0500361480    0.0203361960    0.0003782865    
0.0502588090    0.0202365740    0.0003717046    
0.0504814700    0.0197881350    0.0003723681    
0.0507041310    0.0200524360    0.0003703900    
0.0509267920    0.0199082730    0.0003705829    
0.0511494530    0.0193850130    0.0003632420    
0.0513721140    0.0193538940    0.0003661467    
0.0515947750    0.0200041330    0.0003673112    
0.0518174360    0.0193840440    0.0003593954    
0.0520400970    0.0194644510    0.0003576429    
0.0522627580    0.0199504160    0.0003651571    
0.0524854190    0.0194949970    0.0003639002    
0.0527080800    0.0197773520    0.0003693638    
0.0529307410    0.0191070830    0.0003647559    
0.0531534020    0.0198530260    0.0003704542    
0.0533760630    0.0195184230    0.0003684689    
0.0535987240    0.0197087150    0.0003685321    
0.0538213850    0.0191949040    0.0003679103    
0.0540440460    0.0198099580    0.0003719893    
0.0542667070    0.0195528110    0.0003721140    
0.0544893680    0.0194389560    0.0003712267    
0.0547120290    0.0196560110    0.0003707362    
0.0549346900    0.0196556990    0.0003709283    
0.0551573510    0.0196984190    0.0003757024    
0.0553800120    0.0192522100    0.0003682653    
0.0556026730    0.0200955250    0.0003840455    
0.0558253340    0.0198886810    0.0003852631    
0.0560479950    0.0191200190    0.0003777450    
0.0562706560    0.0199479890    0.0003895675    
0.0564933170    0.0189258470    0.0003827506    
0.0567159780    0.0186938670    0.0003758368    
0.0569386390    0.0191212140    0.0003860706    
0.0571613000    0.0187768190    0.0003743404    
0.0573839610    0.0197874250    0.0003810916    
0.0576066220    0.0196093020    0.0003804227    
0.0578292830    0.0201029210    0.0003839065    
0.0580519440    0.0202517360    0.0003868189    
0.0582746050    0.0199270550    0.0003820136    
0.0584972660    0.0200146210    0.0003813866    
0.0587199270    0.0194996180    0.0003732027    
0.0589425880    0.0200628300    0.0003763398    
0.0591652490    0.0192425210    0.0003707346    
0.0593879100    0.0196966560    0.0003722983    
0.0596105710    0.0194865900    0.0003699171    
0.0598332320    0.0196497180    0.0003746373    
0.0600558930    0.0196397210    0.0003721540    
0.0602785540    0.0197389620    0.0003726987    
0.0605012150    0.0196979160    0.0003715265    
0.0607238760    0.0189560920    0.0003618076    
0.0609465370    0.0195082700    0.0003699289    
0.0611691980    0.0189579290    0.0003652516    
0.0613918590    0.0192897490    0.0003644119    
0.0616145200    0.0198385920    0.0003722645    
0.0618371810    0.0191905640    0.0003625381    
0.0620598420    0.0195938930    0.0003667057    
0.0622825030    0.0194620150    0.0003710586    
0.0625051640    0.0207210180    0.0003774953    
0.0627278250    0.0199234820    0.0003693970    
0.0629504860    0.0202948720    0.0003697931    
0.0631731470    0.0195364060    0.0003673062    
0.0633958080    0.0193358130    0.0003675187    
0.0636184690    0.0197991600    0.0003770756    
0.0638411300    0.0189522900    0.0003675382    
0.0640637910    0.0196896590    0.0003772547    
0.0642864520    0.0194749920    0.0003743806    
0.0645091130    0.0201107550    0.0003837763    
0.0647317740    0.0196193170    0.0003794761    
0.0649544350    0.0191660470    0.0003746543    
0.0651770960    0.0194718400    0.0003755713    
0.0653997570    0.0195533670    0.0003755405    
0.0656224180    0.0192980280    0.0003738917    
0.0658450790    0.0193454280    0.0003689699    
0.0660677400    0.0192762330    0.0003698770    
0.0662904010    0.0199136490    0.0003804307    
0.0665130620    0.0195395250    0.0003752055    
0.0667357230    0.0196061360    0.0003825269    
0.0669583840    0.0192749960    0.0003780138    
0.0671810450    0.0194879850    0.0003779980    
0.0674037060    0.0196610330    0.0003861047    
0.0676263670    0.0193816670    0.0003805451    
0.0678490280    0.0193003210    0.0003774233    
0.0680716890    0.0196457870    0.0003816335    
0.0682943500    0.0198342180    0.0003792594    
0.0685170110    0.0194746830    0.0003719768    
0.0687396720    0.0194490780    0.0003707446    
0.0689623330    0.0187712260    0.0003630723    
0.0691849940    0.0201857090    0.0003791120    
0.0694076550    0.0201997310    0.0003790412    
0.0696303160    0.0192861130    0.0003674379    
0.0698529770    0.0193099230    0.0003668940    
0.0700756380    0.0192589090    0.0003617055    
0.0702982990    0.0191808350    0.0003649027    
0.0705209600    0.0194727740    0.0003650147    
0.0707436210    0.0202298970    0.0003703346    
0.0709662820    0.0202708110    0.0003751282    
0.0711889430    0.0192815250    0.0003613663    
0.0714116040    0.0191971230    0.0003613106    
0.0716342650    0.0190955090    0.0003588900    
0.0718569260    0.0198318940    0.0003642714    
0.0720795870    0.0189336740    0.0003573664    
0.0723022480    0.0193500070    0.0003618246    
0.0725249090    0.0197611310    0.0003612693    
0.0727475700    0.0197978390    0.0003646933    
0.0729702310    0.0194833010    0.0003588992    
0.0731928920    0.0197193190    0.0003625095    
0.0734155530    0.0195212260    0.0003599644    
0.0736382140    0.0190748910    0.0003535420    
0.0738608750    0.0194416260    0.0003592302    
0.0740835360    0.0196886590    0.0003606078    
0.0743061970    0.0195297070    0.0003540920    
0.0745288580    0.0199923730    0.0003619456    
0.0747515190    0.0189925250    0.0003534755    
0.0749741800    0.0195594940    0.0003553923    
0.0751968410    0.0196645120    0.0003591430    
0.0754195020    0.0191365690    0.0003522134    
0.0756421630    0.0195392100    0.0003529902    
0.0758648240    0.0194794810    0.0003532975    
0.0760874850    0.0193711550    0.0003521446    
0.0763101460    0.0195448470    0.0003533805    
0.0765328070    0.0192817600    0.0003545855    
0.0767554680    0.0194069210    0.0003533206    
0.0769781290    0.0195660460    0.0003527275    
0.0772007900    0.0196101190    0.0003502924    
0.0774234510    0.0189351750    0.0003461693    
0.0776461120    0.0197330620    0.0003530522    
0.0778687730    0.0193581770    0.0003485274    
0.0780914340    0.0196549020    0.0003536977    
0.0783140950    0.0196711130    0.0003482295    
0.0785367560    0.0199795690    0.0003566075    
0.0787594170    0.0193981020    0.0003482317    
0.0789820780    0.0195896340    0.0003481536    
0.0792047390    0.0195560100    0.0003489920    
0.0794274000    0.0197974500    0.0003526275    
0.0796500610    0.0196284450    0.0003476921    
0.0798727220    0.0194569790    0.0003458506    
0.0800953830    0.0192880390    0.0003435540    
0.0803180440    0.0193963780    0.0003469175    
0.0805407050    0.0191869060    0.0003447182    
0.0807633660    0.0193738490    0.0003460720    
0.0809860270    0.0200532860    0.0003507878    
0.0812086880    0.0197865930    0.0003454362    
0.0814313490    0.0198396850    0.0003474769    
0.0816540100    0.0199675440    0.0003478012    
0.0818766710    0.0198884300    0.0003479040    
0.0820993320    0.0197007950    0.0003456280    
0.0823219930    0.0194173360    0.0003445477    
0.0825446540    0.0192506870    0.0003405735    
0.0827673150    0.0196111280    0.0003414377    
0.0829899760    0.0199500830    0.0003437626    
0.0832126370    0.0194359120    0.0003408236    
0.0834352980    0.0197893880    0.0003431399    
0.0836579590    0.0195769950    0.0003405338    
0.0838806200    0.0193122710    0.0003392820    
0.0841032810    0.0190967910    0.0003352895    
0.0843259420    0.0194708030    0.0003375143    
0.0845486030    0.0194181770    0.0003370581    
0.0847712640    0.0193324880    0.0003342641    
0.0849939250    0.0193418820    0.0003349275    
0.0852165860    0.0196949610    0.0003384134    
0.0854392470    0.0195804430    0.0003342327    
0.0856619080    0.0189841140    0.0003315275    
0.0858845690    0.0197865360    0.0003354132    
0.0861072300    0.0199511390    0.0003391305    
0.0863298910    0.0195955960    0.0003378551    
0.0865525520    0.0197967850    0.0003366528    
0.0867752130    0.0195856180    0.0003321505    
0.0869978740    0.0192552890    0.0003301769    
0.0872205350    0.0194830390    0.0003317013    
0.0874431960    0.0194378920    0.0003313170    
0.0876658570    0.0193484340    0.0003318229    
0.0878885180    0.0197688750    0.0003359839    
0.0881111790    0.0200542120    0.0003379657    
0.0883338400    0.0190896990    0.0003249105    
0.0885565010    0.0199915810    0.0003370059    
0.0887791620    0.0196148170    0.0003294863    
0.0890018230    0.0190830790    0.0003281419    
0.0892244840    0.0194537520    0.0003318767    
0.0894471450    0.0194469460    0.0003304171    
0.0896698060    0.0196905370    0.0003312259    
0.0898924670    0.0194292460    0.0003305460    
0.0901151280    0.0193804690    0.0003265650    
0.0903377890    0.0193425360    0.0003289756    
0.0905604500    0.0192541110    0.0003267165    
0.0907831110    0.0198038470    0.0003305235    
0.0910057720    0.0200416930    0.0003340282    
0.0912284330    0.0197802010    0.0003270907    
0.0914510940    0.0192228500    0.0003260453    
0.0916737550    0.0197383670    0.0003295684    
0.0918964160    0.0193979620    0.0003280729    
0.0921190770    0.0203237690    0.0003327743    
0.0923417380    0.0193752310    0.0003250493    
0.0925643990    0.0192425320    0.0003231416    
0.0927870600    0.0202541770    0.0003328867    
0.0930097210    0.0191254030    0.0003207227    
0.0932323820    0.0193148330    0.0003246764    
