# Diamond Light Source Ltd.
# Data extracted from: /dls/b21/data/2018/cm19678-3/processed/b21-386631_00419.dat
q(1/A)          Column          Error           
0.0035000000    2.0986707000    0.0246442390    
0.0037226610    1.9233113000    0.0230954460    
0.0039453220    1.5692133000    0.0189779450    
0.0041679830    1.2750143000    0.0140485180    
0.0043906440    0.9672468300    0.0117038020    
0.0046133050    0.7688353700    0.0100170270    
0.0048359660    0.5769717400    0.0082081846    
0.0050586270    0.4548655900    0.0071634598    
0.0052812880    0.4223547200    0.0065264049    
0.0055039490    0.3810343800    0.0058942423    
0.0057266100    0.3264863800    0.0052782819    
0.0059492710    0.2691422200    0.0047923772    
0.0061719320    0.2204411300    0.0041794013    
0.0063945930    0.1957844900    0.0039864805    
0.0066172539    0.1882295000    0.0036703697    
0.0068399149    0.1718086400    0.0034513926    
0.0070625759    0.1486738800    0.0031776920    
0.0072852369    0.1289028500    0.0029145943    
0.0075078979    0.1168067600    0.0027608414    
0.0077305589    0.1019753800    0.0025304766    
0.0079532199    0.1020998300    0.0024969329    
0.0081758809    0.0887056000    0.0023490447    
0.0083985419    0.0790065500    0.0020676959    
0.0086212029    0.0784654220    0.0020606029    
0.0088438639    0.0725241400    0.0019651424    
0.0090665249    0.0643747810    0.0017881884    
0.0092891859    0.0630429380    0.0018470280    
0.0095118469    0.0605048740    0.0017401120    
0.0097345079    0.0533427140    0.0015868500    
0.0099571689    0.0521616110    0.0015368262    
0.0101798300    0.0488562400    0.0014873368    
0.0104024910    0.0455579040    0.0014313934    
0.0106251520    0.0451886420    0.0014304215    
0.0108478130    0.0444451950    0.0013815119    
0.0110704740    0.0434394520    0.0013003260    
0.0112931350    0.0417764800    0.0012789384    
0.0115157960    0.0419485800    0.0012740974    
0.0117384570    0.0394798810    0.0012253980    
0.0119611180    0.0387887080    0.0012181095    
0.0121837790    0.0347963600    0.0011343289    
0.0124064400    0.0349782400    0.0010898816    
0.0126291010    0.0355651890    0.0010852330    
0.0128517620    0.0352770990    0.0010835275    
0.0130744230    0.0335425980    0.0010487184    
0.0132970840    0.0330854860    0.0010364549    
0.0135197450    0.0320500380    0.0010054991    
0.0137424060    0.0301516570    0.0009616885    
0.0139650670    0.0298789850    0.0009360062    
0.0141877280    0.0286269740    0.0009182106    
0.0144103890    0.0294118550    0.0009146652    
0.0146330500    0.0288710520    0.0009004634    
0.0148557110    0.0288801080    0.0008968286    
0.0150783720    0.0279390710    0.0008748063    
0.0153010330    0.0264379290    0.0008389823    
0.0155236940    0.0273083300    0.0008476108    
0.0157463550    0.0276659140    0.0008383610    
0.0159690160    0.0266999580    0.0008204698    
0.0161916770    0.0267739040    0.0008169765    
0.0164143380    0.0270292690    0.0008270822    
0.0166369990    0.0266718880    0.0007962645    
0.0168596600    0.0256668100    0.0007742354    
0.0170823210    0.0263489360    0.0007776643    
0.0173049820    0.0244594110    0.0007505571    
0.0175276430    0.0241548010    0.0007537342    
0.0177503040    0.0238547340    0.0007299430    
0.0179729650    0.0232744490    0.0007138596    
0.0181956260    0.0246233590    0.0007201783    
0.0184182870    0.0240996820    0.0007091210    
0.0186409480    0.0230956270    0.0006985857    
0.0188636090    0.0234945970    0.0007001624    
0.0190862700    0.0228595750    0.0006895556    
0.0193089310    0.0224151290    0.0006817551    
0.0195315920    0.0230255100    0.0006674762    
0.0197542530    0.0227045360    0.0006637732    
0.0199769140    0.0230538450    0.0006688599    
0.0201995750    0.0222246750    0.0006464377    
0.0204222360    0.0217662880    0.0006452281    
0.0206448970    0.0225327770    0.0006518246    
0.0208675580    0.0224463450    0.0006371765    
0.0210902190    0.0223284610    0.0006416330    
0.0213128800    0.0216907410    0.0006238228    
0.0215355410    0.0216674730    0.0006160606    
0.0217582020    0.0223155790    0.0006252065    
0.0219808630    0.0215057990    0.0006129521    
0.0222035240    0.0220270310    0.0006147145    
0.0224261850    0.0214513270    0.0006012291    
0.0226488460    0.0219769100    0.0006039801    
0.0228715070    0.0225450290    0.0006102172    
0.0230941680    0.0215540480    0.0005966554    
0.0233168290    0.0209312070    0.0005894361    
0.0235394900    0.0225335350    0.0006048318    
0.0237621510    0.0209369360    0.0005673154    
0.0239848120    0.0217557990    0.0005789722    
0.0242074730    0.0209540420    0.0005636556    
0.0244301340    0.0206067760    0.0005596032    
0.0246527950    0.0217177020    0.0005798091    
0.0248754560    0.0210631020    0.0005581711    
0.0250981170    0.0199536820    0.0005444839    
0.0253207780    0.0210313000    0.0005423032    
0.0255434390    0.0206398900    0.0005429670    
0.0257661000    0.0205867440    0.0005440216    
0.0259887610    0.0215165270    0.0005502606    
0.0262114220    0.0205374900    0.0005404603    
0.0264340830    0.0209372720    0.0005382705    
0.0266567440    0.0195722380    0.0005172125    
0.0268794050    0.0208904500    0.0005321652    
0.0271020660    0.0216091420    0.0005390507    
0.0273247270    0.0210182140    0.0005284362    
0.0275473880    0.0209478860    0.0005265017    
0.0277700490    0.0208840450    0.0005225913    
0.0279927100    0.0203927070    0.0005119015    
0.0282153710    0.0200594980    0.0005101705    
0.0284380320    0.0207638380    0.0005160410    
0.0286606930    0.0197291690    0.0004987141    
0.0288833540    0.0210316750    0.0005158915    
0.0291060150    0.0207770600    0.0005122726    
0.0293286760    0.0197845090    0.0004929212    
0.0295513370    0.0205094030    0.0004964051    
0.0297739980    0.0204108560    0.0005006633    
0.0299966590    0.0199094300    0.0004860297    
0.0302193200    0.0202252450    0.0004970083    
0.0304419810    0.0197481260    0.0004920147    
0.0306646420    0.0201077000    0.0004824613    
0.0308873030    0.0208409980    0.0004890582    
0.0311099640    0.0212723760    0.0004953767    
0.0313326250    0.0200929200    0.0004761142    
0.0315552860    0.0196562750    0.0004770154    
0.0317779470    0.0203863090    0.0004862159    
0.0320006080    0.0206222990    0.0004779112    
0.0322232690    0.0210075140    0.0004843734    
0.0324459300    0.0195617970    0.0004639198    
0.0326685910    0.0198811600    0.0004669204    
0.0328912520    0.0195715080    0.0004648041    
0.0331139130    0.0202054840    0.0004661287    
0.0333365740    0.0204559700    0.0004705320    
0.0335592350    0.0198096930    0.0004585872    
0.0337818960    0.0203717170    0.0004646768    
0.0340045570    0.0205500660    0.0004659651    
0.0342272170    0.0204826080    0.0004633647    
0.0344498780    0.0204233030    0.0004645260    
0.0346725390    0.0204880670    0.0004566454    
0.0348952000    0.0206447260    0.0004562997    
0.0351178610    0.0198163520    0.0004490976    
0.0353405220    0.0201505690    0.0004508059    
0.0355631830    0.0200891600    0.0004484232    
0.0357858440    0.0190581880    0.0004367653    
0.0360085050    0.0197878080    0.0004463920    
0.0362311660    0.0207654870    0.0004518509    
0.0364538270    0.0202690190    0.0004428338    
0.0366764880    0.0195536900    0.0004346338    
0.0368991490    0.0207724780    0.0004457162    
0.0371218100    0.0209295560    0.0004461182    
0.0373444710    0.0197164970    0.0004377123    
0.0375671320    0.0194362630    0.0004339576    
0.0377897930    0.0201438590    0.0004303497    
0.0380124540    0.0198388530    0.0004297589    
0.0382351150    0.0195781970    0.0004269264    
0.0384577760    0.0194852790    0.0004218028    
0.0386804370    0.0199228750    0.0004297677    
0.0389030980    0.0197774940    0.0004249541    
0.0391257590    0.0196179710    0.0004203636    
0.0393484200    0.0196919200    0.0004197378    
0.0395710810    0.0195117670    0.0004183762    
0.0397937420    0.0193951590    0.0004171243    
0.0400164030    0.0189382890    0.0004138590    
0.0402390640    0.0192473320    0.0004116664    
0.0404617250    0.0198475240    0.0004155695    
0.0406843860    0.0193805160    0.0004066837    
0.0409070470    0.0197341290    0.0004146521    
0.0411297080    0.0202513660    0.0004159874    
0.0413523690    0.0201669460    0.0004161895    
0.0415750300    0.0196199930    0.0004139939    
0.0417976910    0.0191985040    0.0003989313    
0.0420203520    0.0200780190    0.0004094997    
0.0422430130    0.0200956880    0.0004112309    
0.0424656740    0.0202072060    0.0004070032    
0.0426883350    0.0195720860    0.0004025440    
0.0429109960    0.0199111870    0.0004072848    
0.0431336570    0.0197265810    0.0003996807    
0.0433563180    0.0200931090    0.0004068565    
0.0435789790    0.0202648630    0.0004021725    
0.0438016400    0.0198162640    0.0003998597    
0.0440243010    0.0199695810    0.0003973309    
0.0442469620    0.0204896390    0.0004048830    
0.0444696230    0.0200887630    0.0003994650    
0.0446922840    0.0198038070    0.0003954439    
0.0449149450    0.0190703190    0.0003828640    
0.0451376060    0.0200484360    0.0003974080    
0.0453602670    0.0198771170    0.0003915581    
0.0455829280    0.0190077610    0.0003824569    
0.0458055890    0.0194247260    0.0003888836    
0.0460282500    0.0194454060    0.0003843987    
0.0462509110    0.0192943270    0.0003805210    
0.0464735720    0.0193687120    0.0003814690    
0.0466962330    0.0198181440    0.0003876236    
0.0469188940    0.0195174740    0.0003835814    
0.0471415550    0.0193224260    0.0003836202    
0.0473642160    0.0201179130    0.0003859563    
0.0475868770    0.0193027130    0.0003761776    
0.0478095380    0.0190324090    0.0003718998    
0.0480321990    0.0196852170    0.0003790528    
0.0482548600    0.0190437520    0.0003712014    
0.0484775210    0.0199330100    0.0003835399    
0.0487001820    0.0193393720    0.0003722553    
0.0489228430    0.0198053170    0.0003765106    
0.0491455040    0.0201393780    0.0003770467    
0.0493681650    0.0196396590    0.0003755392    
0.0495908260    0.0203725890    0.0003760470    
0.0498134870    0.0191282030    0.0003678501    
0.0500361480    0.0195548690    0.0003709460    
0.0502588090    0.0192873130    0.0003628796    
0.0504814700    0.0197668630    0.0003721656    
0.0507041310    0.0198332570    0.0003683579    
0.0509267920    0.0195631130    0.0003673541    
0.0511494530    0.0200109600    0.0003690577    
0.0513721140    0.0199077980    0.0003713469    
0.0515947750    0.0193766510    0.0003615022    
0.0518174360    0.0194237780    0.0003597613    
0.0520400970    0.0196219150    0.0003590844    
0.0522627580    0.0196560900    0.0003624513    
0.0524854190    0.0199294760    0.0003679305    
0.0527080800    0.0195287660    0.0003670328    
0.0529307410    0.0200050840    0.0003732266    
0.0531534020    0.0195278860    0.0003674058    
0.0533760630    0.0198103210    0.0003712116    
0.0535987240    0.0200874740    0.0003720541    
0.0538213850    0.0199915000    0.0003754645    
0.0540440460    0.0199144830    0.0003729670    
0.0542667070    0.0194888280    0.0003715023    
0.0544893680    0.0195379580    0.0003721685    
0.0547120290    0.0196417770    0.0003705996    
0.0549346900    0.0196974490    0.0003713197    
0.0551573510    0.0195978510    0.0003747398    
0.0553800120    0.0199352590    0.0003747388    
0.0556026730    0.0199044450    0.0003822128    
0.0558253340    0.0196496180    0.0003829382    
0.0560479950    0.0195600840    0.0003820650    
0.0562706560    0.0187913450    0.0003781024    
0.0564933170    0.0199705790    0.0003931704    
0.0567159780    0.0189354230    0.0003782548    
0.0569386390    0.0196510270    0.0003913802    
0.0571613000    0.0196870510    0.0003833039    
0.0573839610    0.0200000180    0.0003831309    
0.0576066220    0.0200002010    0.0003841932    
0.0578292830    0.0191275920    0.0003744754    
0.0580519440    0.0196382460    0.0003809125    
0.0582746050    0.0196411920    0.0003792612    
0.0584972660    0.0199489610    0.0003807580    
0.0587199270    0.0198707870    0.0003767355    
0.0589425880    0.0200272790    0.0003760038    
0.0591652490    0.0201279640    0.0003791660    
0.0593879100    0.0201749180    0.0003767888    
0.0596105710    0.0191422590    0.0003666319    
0.0598332320    0.0197923220    0.0003759919    
0.0600558930    0.0197240950    0.0003729502    
0.0602785540    0.0194572320    0.0003700271    
0.0605012150    0.0194944530    0.0003696004    
0.0607238760    0.0191423030    0.0003635780    
0.0609465370    0.0194939930    0.0003697912    
0.0611691980    0.0193517610    0.0003690236    
0.0613918590    0.0192619680    0.0003641471    
0.0616145200    0.0192236310    0.0003664470    
0.0618371810    0.0201217570    0.0003712274    
0.0620598420    0.0192436360    0.0003634110    
0.0622825030    0.0196103310    0.0003724674    
0.0625051640    0.0199849030    0.0003707270    
0.0627278250    0.0192725910    0.0003633106    
0.0629504860    0.0189133400    0.0003569826    
0.0631731470    0.0199712160    0.0003713688    
0.0633958080    0.0199852090    0.0003736369    
0.0636184690    0.0193967550    0.0003732216    
0.0638411300    0.0197717140    0.0003753973    
0.0640637910    0.0192990910    0.0003734919    
0.0642864520    0.0197050450    0.0003765830    
0.0645091130    0.0192463190    0.0003754352    
0.0647317740    0.0194135560    0.0003774785    
0.0649544350    0.0195612780    0.0003784951    
0.0651770960    0.0192687630    0.0003736053    
0.0653997570    0.0200940570    0.0003806949    
0.0656224180    0.0191963690    0.0003729032    
0.0658450790    0.0194437020    0.0003699036    
0.0660677400    0.0199715140    0.0003764861    
0.0662904010    0.0192665740    0.0003741964    
0.0665130620    0.0189340780    0.0003693444    
0.0667357230    0.0187700060    0.0003742790    
0.0669583840    0.0197195540    0.0003823458    
0.0671810450    0.0191871370    0.0003750665    
0.0674037060    0.0195697970    0.0003852054    
0.0676263670    0.0197251160    0.0003838996    
0.0678490280    0.0201266950    0.0003854162    
0.0680716890    0.0197048450    0.0003822043    
0.0682943500    0.0199499960    0.0003803624    
0.0685170110    0.0195810090    0.0003729885    
0.0687396720    0.0200919430    0.0003768196    
0.0689623330    0.0200560950    0.0003752902    
0.0691849940    0.0189323170    0.0003671509    
0.0694076550    0.0197016000    0.0003743360    
0.0696303160    0.0193768720    0.0003682991    
0.0698529770    0.0199719240    0.0003731278    
0.0700756380    0.0191363870    0.0003605508    
0.0702982990    0.0195207470    0.0003681195    
0.0705209600    0.0196777900    0.0003669289    
0.0707436210    0.0196805110    0.0003652690    
0.0709662820    0.0195832980    0.0003687095    
0.0711889430    0.0190510150    0.0003591975    
0.0714116040    0.0191288780    0.0003606655    
0.0716342650    0.0196483620    0.0003640459    
0.0718569260    0.0191558680    0.0003580067    
0.0720795870    0.0198912350    0.0003662894    
0.0723022480    0.0192685740    0.0003610602    
0.0725249090    0.0194636750    0.0003585376    
0.0727475700    0.0191996970    0.0003591396    
0.0729702310    0.0192318300    0.0003565732    
0.0731928920    0.0190726510    0.0003565137    
0.0734155530    0.0199059550    0.0003634920    
0.0736382140    0.0188715180    0.0003516500    
0.0738608750    0.0193152650    0.0003580587    
0.0740835360    0.0199856180    0.0003633148    
0.0743061970    0.0195487190    0.0003542621    
0.0745288580    0.0188912750    0.0003518349    
0.0747515190    0.0197619750    0.0003605623    
0.0749741800    0.0199596000    0.0003590065    
0.0751968410    0.0191460910    0.0003543750    
0.0754195020    0.0190001940    0.0003509539    
0.0756421630    0.0193922930    0.0003516584    
0.0758648240    0.0196778700    0.0003550898    
0.0760874850    0.0189740170    0.0003485140    
0.0763101460    0.0193209760    0.0003513486    
0.0765328070    0.0196010270    0.0003575068    
0.0767554680    0.0196768370    0.0003557669    
0.0769781290    0.0195212870    0.0003523216    
0.0772007900    0.0194972420    0.0003492806    
0.0774234510    0.0196500570    0.0003526412    
0.0776461120    0.0195748990    0.0003516323    
0.0778687730    0.0196591240    0.0003512238    
0.0780914340    0.0186235470    0.0003442907    
0.0783140950    0.0191283890    0.0003433899    
0.0785367560    0.0189227480    0.0003470458    
0.0787594170    0.0195353860    0.0003494596    
0.0789820780    0.0199358810    0.0003512147    
0.0792047390    0.0198235640    0.0003513690    
0.0794274000    0.0197218290    0.0003519511    
0.0796500610    0.0198499140    0.0003496459    
0.0798727220    0.0192231280    0.0003437638    
0.0800953830    0.0195386830    0.0003457768    
0.0803180440    0.0193837220    0.0003468021    
0.0805407050    0.0198803060    0.0003508896    
0.0807633660    0.0193550580    0.0003459019    
0.0809860270    0.0198750820    0.0003492235    
0.0812086880    0.0188516020    0.0003371738    
0.0814313490    0.0200646050    0.0003494388    
0.0816540100    0.0195916920    0.0003445101    
0.0818766710    0.0196082330    0.0003454424    
0.0820993320    0.0195974650    0.0003447182    
0.0823219930    0.0198511610    0.0003483732    
0.0825446540    0.0194613240    0.0003424295    
0.0827673150    0.0188202620    0.0003344801    
0.0829899760    0.0195055790    0.0003399092    
0.0832126370    0.0197285150    0.0003433773    
0.0834352980    0.0194797470    0.0003404426    
0.0836579590    0.0192687310    0.0003378400    
0.0838806200    0.0194550780    0.0003405320    
0.0841032810    0.0198912570    0.0003421906    
0.0843259420    0.0194179010    0.0003370534    
0.0845486030    0.0199093750    0.0003412924    
0.0847712640    0.0198466140    0.0003386774    
0.0849939250    0.0195910190    0.0003370755    
0.0852165860    0.0192295280    0.0003343886    
0.0854392470    0.0195516690    0.0003339849    
0.0856619080    0.0194933520    0.0003359425    
0.0858845690    0.0194792560    0.0003327964    
0.0861072300    0.0197030130    0.0003370130    
0.0863298910    0.0198458230    0.0003400032    
0.0865525520    0.0190637530    0.0003303591    
0.0867752130    0.0193713220    0.0003303263    
0.0869978740    0.0191474750    0.0003292492    
0.0872205350    0.0193754950    0.0003307824    
0.0874431960    0.0191383440    0.0003287521    
0.0876658570    0.0189839870    0.0003286809    
0.0878885180    0.0194088830    0.0003329086    
0.0881111790    0.0193363220    0.0003318593    
0.0883338400    0.0191502870    0.0003254236    
0.0885565010    0.0196618310    0.0003342129    
0.0887791620    0.0193821150    0.0003275240    
0.0890018230    0.0193141780    0.0003301207    
0.0892244840    0.0195440920    0.0003326443    
0.0894471450    0.0193512630    0.0003296011    
0.0896698060    0.0188656800    0.0003242119    
0.0898924670    0.0195527160    0.0003315925    
0.0901151280    0.0193802230    0.0003265608    
0.0903377890    0.0201815570    0.0003360327    
0.0905604500    0.0190210240    0.0003247308    
0.0907831110    0.0196932700    0.0003295974    
0.0910057720    0.0196962810    0.0003311352    
0.0912284330    0.0190119020    0.0003206734    
0.0914510940    0.0198585670    0.0003313906    
0.0916737550    0.0187531370    0.0003212359    
0.0918964160    0.0192978420    0.0003272231    
0.0921190770    0.0194244820    0.0003253267    
0.0923417380    0.0198112350    0.0003286842    
0.0925643990    0.0192260090    0.0003230008    
0.0927870600    0.0186837220    0.0003197187    
0.0930097210    0.0199803070    0.0003278104    
0.0932323820    0.0196365880    0.0003273674    
