# Diamond Light Source Ltd.
# Data extracted from: /dls/b21/data/2018/cm19678-3/processed/b21-386631_00428.dat
q(1/A)          Column          Error           
0.0035000000    2.0853936000    0.0245783070    
0.0037226610    1.8355462000    0.0225735000    
0.0039453220    1.6160252000    0.0192684570    
0.0041679830    1.2996720000    0.0141907240    
0.0043906440    0.9687705800    0.0117188080    
0.0046133050    0.7692039200    0.0100243820    
0.0048359660    0.5830361600    0.0082552887    
0.0050586270    0.4749645400    0.0073236327    
0.0052812880    0.4306464600    0.0065934157    
0.0055039490    0.3863397700    0.0059380697    
0.0057266100    0.3163029000    0.0051978808    
0.0059492710    0.2735085000    0.0048334827    
0.0061719320    0.2302565000    0.0042735460    
0.0063945930    0.1965469100    0.0039962098    
0.0066172539    0.1826127600    0.0036169809    
0.0068399149    0.1692025000    0.0034268091    
0.0070625759    0.1392349400    0.0030766866    
0.0072852369    0.1224337100    0.0028419212    
0.0075078979    0.1170529300    0.0027651157    
0.0077305589    0.1039618900    0.0025562682    
0.0079532199    0.0954770770    0.0024157868    
0.0081758809    0.0924671180    0.0023995185    
0.0083985419    0.0843931220    0.0021380769    
0.0086212029    0.0750221390    0.0020158794    
0.0088438639    0.0689181100    0.0019166115    
0.0090665249    0.0619026830    0.0017543846    
0.0092891859    0.0634844680    0.0018544011    
0.0095118469    0.0589616840    0.0017186271    
0.0097345079    0.0621372130    0.0017135189    
0.0099571689    0.0550686150    0.0015798506    
0.0101798300    0.0492218330    0.0014936294    
0.0104024910    0.0502848110    0.0015045625    
0.0106251520    0.0457319030    0.0014397056    
0.0108478130    0.0496903050    0.0014614796    
0.0110704740    0.0435213820    0.0013021952    
0.0112931350    0.0442868940    0.0013174556    
0.0115157960    0.0381939220    0.0012163423    
0.0117384570    0.0378818270    0.0012009346    
0.0119611180    0.0384824560    0.0012138912    
0.0121837790    0.0383841840    0.0011919634    
0.0124064400    0.0348428720    0.0010883085    
0.0126291010    0.0333463400    0.0010513545    
0.0128517620    0.0336463330    0.0010587101    
0.0130744230    0.0331819250    0.0010435806    
0.0132970840    0.0325006980    0.0010277623    
0.0135197450    0.0315765150    0.0009985371    
0.0137424060    0.0319622800    0.0009906321    
0.0139650670    0.0293508720    0.0009281561    
0.0141877280    0.0306894620    0.0009511826    
0.0144103890    0.0295548380    0.0009173391    
0.0146330500    0.0285341470    0.0008956367    
0.0148557110    0.0296056040    0.0009084723    
0.0150783720    0.0292279500    0.0008951993    
0.0153010330    0.0273968510    0.0008544843    
0.0155236940    0.0270719950    0.0008443523    
0.0157463550    0.0279730090    0.0008434179    
0.0159690160    0.0251868890    0.0007972770    
0.0161916770    0.0266756170    0.0008158788    
0.0164143380    0.0255866710    0.0008051061    
0.0166369990    0.0255085070    0.0007790900    
0.0168596600    0.0248505970    0.0007622022    
0.0170823210    0.0256168320    0.0007671636    
0.0173049820    0.0242069540    0.0007470428    
0.0175276430    0.0243434940    0.0007570467    
0.0177503040    0.0240795510    0.0007337372    
0.0179729650    0.0252261410    0.0007435551    
0.0181956260    0.0236356610    0.0007059354    
0.0184182870    0.0242906090    0.0007122764    
0.0186409480    0.0249163400    0.0007259582    
0.0188636090    0.0237475840    0.0007042700    
0.0190862700    0.0234027090    0.0006980443    
0.0193089310    0.0224995690    0.0006833757    
0.0195315920    0.0232613360    0.0006712173    
0.0197542530    0.0235428350    0.0006762502    
0.0199769140    0.0226881520    0.0006638618    
0.0201995750    0.0216632010    0.0006385354    
0.0204222360    0.0223621890    0.0006543241    
0.0206448970    0.0232534220    0.0006624934    
0.0208675580    0.0220340230    0.0006316093    
0.0210902190    0.0235317470    0.0006590207    
0.0213128800    0.0225203420    0.0006359548    
0.0215355410    0.0216889050    0.0006166699    
0.0217582020    0.0212505760    0.0006104069    
0.0219808630    0.0227337060    0.0006305196    
0.0222035240    0.0210356720    0.0006010192    
0.0224261850    0.0217930300    0.0006062983    
0.0226488460    0.0209186540    0.0005895503    
0.0228715070    0.0213934970    0.0005947229    
0.0230941680    0.0221705500    0.0006054274    
0.0233168290    0.0205697580    0.0005846135    
0.0235394900    0.0212720270    0.0005879482    
0.0237621510    0.0209422580    0.0005676680    
0.0239848120    0.0222400090    0.0005856691    
0.0242074730    0.0209595910    0.0005640089    
0.0244301340    0.0210378770    0.0005657060    
0.0246527950    0.0215997310    0.0005785181    
0.0248754560    0.0206101390    0.0005524097    
0.0250981170    0.0205683080    0.0005530794    
0.0253207780    0.0213880400    0.0005471537    
0.0255434390    0.0215753630    0.0005554098    
0.0257661000    0.0201897840    0.0005390175    
0.0259887610    0.0206503790    0.0005393380    
0.0262114220    0.0209279590    0.0005458436    
0.0264340830    0.0209025730    0.0005380903    
0.0266567440    0.0212470330    0.0005391537    
0.0268794050    0.0199612250    0.0005204522    
0.0271020660    0.0204460200    0.0005246019    
0.0273247270    0.0214645720    0.0005342819    
0.0275473880    0.0200678700    0.0005155787    
0.0277700490    0.0209570620    0.0005237629    
0.0279927100    0.0206701290    0.0005156265    
0.0282153710    0.0210794100    0.0005232379    
0.0284380320    0.0210282940    0.0005195736    
0.0286606930    0.0210862940    0.0005158365    
0.0288833540    0.0215338220    0.0005222719    
0.0291060150    0.0203298230    0.0005069797    
0.0293286760    0.0204187300    0.0005010071    
0.0295513370    0.0200125380    0.0004905977    
0.0297739980    0.0209842320    0.0005078978    
0.0299966590    0.0201666570    0.0004894012    
0.0302193200    0.0205386590    0.0005010920    
0.0304419810    0.0199762570    0.0004950931    
0.0306646420    0.0200696510    0.0004822429    
0.0308873030    0.0201149130    0.0004807011    
0.0311099640    0.0200232020    0.0004808493    
0.0313326250    0.0197852980    0.0004726891    
0.0315552860    0.0203014470    0.0004850203    
0.0317779470    0.0200466320    0.0004823866    
0.0320006080    0.0200107770    0.0004710048    
0.0322232690    0.0201115890    0.0004741664    
0.0324459300    0.0205172530    0.0004753492    
0.0326685910    0.0202630580    0.0004716167    
0.0328912520    0.0199776010    0.0004698337    
0.0331139130    0.0198594950    0.0004623491    
0.0333365740    0.0201511840    0.0004672444    
0.0335592350    0.0206900440    0.0004688981    
0.0337818960    0.0199886980    0.0004605153    
0.0340045570    0.0199358300    0.0004591754    
0.0342272170    0.0202720270    0.0004612046    
0.0344498780    0.0199464300    0.0004592978    
0.0346725390    0.0202740090    0.0004544782    
0.0348952000    0.0205238120    0.0004551865    
0.0351178610    0.0199480200    0.0004508099    
0.0353405220    0.0199988790    0.0004493279    
0.0355631830    0.0201290690    0.0004490903    
0.0357858440    0.0191872530    0.0004384584    
0.0360085050    0.0199182610    0.0004480825    
0.0362311660    0.0201463050    0.0004452834    
0.0364538270    0.0203762280    0.0004442229    
0.0366764880    0.0204143620    0.0004443157    
0.0368991490    0.0197878360    0.0004352393    
0.0371218100    0.0204077020    0.0004407392    
0.0373444710    0.0202223470    0.0004435109    
0.0375671320    0.0212303400    0.0004537682    
0.0377897930    0.0198324760    0.0004272217    
0.0380124540    0.0198118820    0.0004296790    
0.0382351150    0.0200355480    0.0004320977    
0.0384577760    0.0197513300    0.0004248826    
0.0386804370    0.0199704220    0.0004304930    
0.0389030980    0.0204551310    0.0004323866    
0.0391257590    0.0194119690    0.0004183575    
0.0393484200    0.0194875060    0.0004177600    
0.0395710810    0.0195849460    0.0004193673    
0.0397937420    0.0196298590    0.0004198480    
0.0400164030    0.0192738770    0.0004177161    
0.0402390640    0.0194073860    0.0004135789    
0.0404617250    0.0193881140    0.0004109349    
0.0406843860    0.0199122270    0.0004124285    
0.0409070470    0.0193263070    0.0004105481    
0.0411297080    0.0188772040    0.0004018246    
0.0413523690    0.0200923220    0.0004156242    
0.0415750300    0.0196743760    0.0004147723    
0.0417976910    0.0195162120    0.0004024175    
0.0420203520    0.0202065610    0.0004110116    
0.0422430130    0.0201829540    0.0004123266    
0.0424656740    0.0204159260    0.0004093020    
0.0426883350    0.0201384150    0.0004085283    
0.0429109960    0.0198391490    0.0004067484    
0.0431336570    0.0200379070    0.0004030214    
0.0433563180    0.0199315620    0.0004054180    
0.0435789790    0.0193741240    0.0003934288    
0.0438016400    0.0196662580    0.0003985403    
0.0440243010    0.0187785780    0.0003854906    
0.0442469620    0.0200534180    0.0004007479    
0.0444696230    0.0196792670    0.0003955682    
0.0446922840    0.0207560750    0.0004050400    
0.0449149450    0.0191122640    0.0003834744    
0.0451376060    0.0203205980    0.0004002942    
0.0453602670    0.0196188250    0.0003891981    
0.0455829280    0.0193269820    0.0003858457    
0.0458055890    0.0195842170    0.0003906699    
0.0460282500    0.0199210200    0.0003892636    
0.0462509110    0.0199594460    0.0003872155    
0.0464735720    0.0196285260    0.0003842089    
0.0466962330    0.0192913360    0.0003826260    
0.0469188940    0.0198763530    0.0003872833    
0.0471415550    0.0199895600    0.0003903794    
0.0473642160    0.0193669870    0.0003788719    
0.0475868770    0.0199162100    0.0003822978    
0.0478095380    0.0194804140    0.0003764375    
0.0480321990    0.0190617470    0.0003731863    
0.0482548600    0.0198737630    0.0003793919    
0.0484775210    0.0195685940    0.0003802057    
0.0487001820    0.0189855330    0.0003690165    
0.0489228430    0.0199467080    0.0003780390    
0.0491455040    0.0190993980    0.0003673640    
0.0493681650    0.0194578220    0.0003739815    
0.0495908260    0.0197882530    0.0003707981    
0.0498134870    0.0202730080    0.0003788851    
0.0500361480    0.0197503010    0.0003729793    
0.0502588090    0.0195114140    0.0003651621    
0.0504814700    0.0199898200    0.0003744436    
0.0507041310    0.0200446240    0.0003704986    
0.0509267920    0.0193684100    0.0003657022    
0.0511494530    0.0204259180    0.0003730489    
0.0513721140    0.0199829580    0.0003722312    
0.0515947750    0.0195848460    0.0003636188    
0.0518174360    0.0199365690    0.0003646595    
0.0520400970    0.0196807910    0.0003598005    
0.0522627580    0.0195149700    0.0003613264    
0.0524854190    0.0201395700    0.0003700477    
0.0527080800    0.0195618930    0.0003675256    
0.0529307410    0.0194951500    0.0003686212    
0.0531534020    0.0195126050    0.0003674436    
0.0533760630    0.0198508040    0.0003717744    
0.0535987240    0.0192313110    0.0003642189    
0.0538213850    0.0199265700    0.0003750396    
0.0540440460    0.0194097810    0.0003683926    
0.0542667070    0.0201177330    0.0003776355    
0.0544893680    0.0198979040    0.0003757667    
0.0547120290    0.0201161630    0.0003752336    
0.0549346900    0.0199411470    0.0003737943    
0.0551573510    0.0204420920    0.0003829155    
0.0553800120    0.0193274180    0.0003691640    
0.0556026730    0.0191380410    0.0003749675    
0.0558253340    0.0193777160    0.0003804675    
0.0560479950    0.0197138950    0.0003837538    
0.0562706560    0.0197390060    0.0003877107    
0.0564933170    0.0195796790    0.0003894959    
0.0567159780    0.0200206070    0.0003891350    
0.0569386390    0.0199279520    0.0003943231    
0.0571613000    0.0198036370    0.0003846273    
0.0573839610    0.0200859210    0.0003841426    
0.0576066220    0.0190448410    0.0003750904    
0.0578292830    0.0195868300    0.0003791315    
0.0580519440    0.0201901580    0.0003864189    
0.0582746050    0.0194626940    0.0003777206    
0.0584972660    0.0198886720    0.0003803703    
0.0587199270    0.0190896760    0.0003694392    
0.0589425880    0.0190436740    0.0003668355    
0.0591652490    0.0197903870    0.0003761588    
0.0593879100    0.0191453320    0.0003672300    
0.0596105710    0.0192947460    0.0003682713    
0.0598332320    0.0195259100    0.0003736375    
0.0600558930    0.0201812530    0.0003774340    
0.0602785540    0.0198004990    0.0003734614    
0.0605012150    0.0191139210    0.0003661563    
0.0607238760    0.0197142310    0.0003691519    
0.0609465370    0.0191481470    0.0003666774    
0.0611691980    0.0195540460    0.0003711307    
0.0613918590    0.0199976840    0.0003712197    
0.0616145200    0.0195013580    0.0003692671    
0.0618371810    0.0202650600    0.0003727311    
0.0620598420    0.0193794550    0.0003648716    
0.0622825030    0.0197005420    0.0003735078    
0.0625051640    0.0189858510    0.0003615205    
0.0627278250    0.0196618560    0.0003671427    
0.0629504860    0.0201056060    0.0003682444    
0.0631731470    0.0196937320    0.0003689621    
0.0633958080    0.0189631240    0.0003641372    
0.0636184690    0.0193009260    0.0003724826    
0.0638411300    0.0199125580    0.0003769182    
0.0640637910    0.0196727080    0.0003772763    
0.0642864520    0.0194723960    0.0003745384    
0.0645091130    0.0195219350    0.0003783008    
0.0647317740    0.0193005130    0.0003765640    
0.0649544350    0.0202110770    0.0003849205    
0.0651770960    0.0198679070    0.0003795569    
0.0653997570    0.0190454250    0.0003708116    
0.0656224180    0.0199694680    0.0003805262    
0.0658450790    0.0202448330    0.0003776338    
0.0660677400    0.0198847050    0.0003758527    
0.0662904010    0.0198239700    0.0003797584    
0.0665130620    0.0193855180    0.0003739063    
0.0667357230    0.0195057500    0.0003817326    
0.0669583840    0.0196500100    0.0003818597    
0.0671810450    0.0195950820    0.0003792202    
0.0674037060    0.0190882300    0.0003806244    
0.0676263670    0.0196100040    0.0003829670    
0.0678490280    0.0201170520    0.0003855143    
0.0680716890    0.0197985430    0.0003833013    
0.0682943500    0.0197737340    0.0003788656    
0.0685170110    0.0193301250    0.0003707746    
0.0687396720    0.0192982890    0.0003694848    
0.0689623330    0.0195487290    0.0003706961    
0.0691849940    0.0195283410    0.0003730698    
0.0694076550    0.0198848360    0.0003762587    
0.0696303160    0.0196903420    0.0003714498    
0.0698529770    0.0198939880    0.0003725832    
0.0700756380    0.0195361100    0.0003644771    
0.0702982990    0.0189841510    0.0003632042    
0.0705209600    0.0201972180    0.0003719240    
0.0707436210    0.0195371120    0.0003641158    
0.0709662820    0.0203600920    0.0003761369    
0.0711889430    0.0201274130    0.0003693881    
0.0714116040    0.0195834400    0.0003651061    
0.0716342650    0.0187833190    0.0003561179    
0.0718569260    0.0192551850    0.0003591110    
0.0720795870    0.0192087280    0.0003601285    
0.0723022480    0.0196804280    0.0003650789    
0.0725249090    0.0191457600    0.0003557733    
0.0727475700    0.0200996000    0.0003676414    
0.0729702310    0.0193435000    0.0003577838    
0.0731928920    0.0196985490    0.0003624954    
0.0734155530    0.0193941170    0.0003589657    
0.0736382140    0.0191787840    0.0003546765    
0.0738608750    0.0187961970    0.0003533894    
0.0740835360    0.0198070510    0.0003618670    
0.0743061970    0.0195423500    0.0003543795    
0.0745288580    0.0192969490    0.0003557684    
0.0747515190    0.0194127580    0.0003575391    
0.0749741800    0.0200698340    0.0003601745    
0.0751968410    0.0189155360    0.0003524090    
0.0754195020    0.0199014780    0.0003593589    
0.0756421630    0.0195136060    0.0003529310    
0.0758648240    0.0188891730    0.0003480730    
0.0760874850    0.0202551250    0.0003602655    
0.0763101460    0.0198261480    0.0003560881    
0.0765328070    0.0197835920    0.0003593455    
0.0767554680    0.0199280970    0.0003582082    
0.0769781290    0.0199224970    0.0003560997    
0.0772007900    0.0196355300    0.0003506904    
0.0774234510    0.0190866940    0.0003477212    
0.0776461120    0.0197523300    0.0003533970    
0.0778687730    0.0196911320    0.0003516834    
0.0780914340    0.0193427940    0.0003510495    
0.0783140950    0.0192398670    0.0003445593    
0.0785367560    0.0196486630    0.0003538147    
0.0787594170    0.0197174040    0.0003512574    
0.0789820780    0.0195406330    0.0003478876    
0.0792047390    0.0191387170    0.0003454169    
0.0794274000    0.0196533180    0.0003515130    
0.0796500610    0.0193763540    0.0003456208    
0.0798727220    0.0192359890    0.0003440488    
0.0800953830    0.0192517450    0.0003433981    
0.0803180440    0.0195581680    0.0003485314    
0.0805407050    0.0201603430    0.0003535270    
0.0807633660    0.0198692320    0.0003506396    
0.0809860270    0.0195692020    0.0003466971    
0.0812086880    0.0201499960    0.0003487641    
0.0814313490    0.0199260660    0.0003484025    
0.0816540100    0.0195443670    0.0003442639    
0.0818766710    0.0190489120    0.0003406483    
0.0820993320    0.0198717710    0.0003472940    
0.0823219930    0.0196076480    0.0003464011    
0.0825446540    0.0199329090    0.0003467248    
0.0827673150    0.0194398650    0.0003401094    
0.0829899760    0.0195663770    0.0003406069    
0.0832126370    0.0202266240    0.0003478571    
0.0834352980    0.0200231170    0.0003453288    
0.0836579590    0.0192403560    0.0003377581    
0.0838806200    0.0193132280    0.0003394560    
0.0841032810    0.0198107590    0.0003416664    
0.0843259420    0.0196420790    0.0003391610    
0.0845486030    0.0195132690    0.0003380474    
0.0847712640    0.0194150020    0.0003351401    
0.0849939250    0.0200051590    0.0003407881    
0.0852165860    0.0200576040    0.0003416815    
0.0854392470    0.0193425740    0.0003323584    
0.0856619080    0.0192518460    0.0003340201    
0.0858845690    0.0196408070    0.0003343389    
0.0861072300    0.0194339920    0.0003348698    
0.0863298910    0.0200228840    0.0003416855    
0.0865525520    0.0188419280    0.0003285938    
0.0867752130    0.0196442110    0.0003328093    
0.0869978740    0.0198238080    0.0003351793    
0.0872205350    0.0190046190    0.0003277633    
0.0874431960    0.0194003430    0.0003311584    
0.0876658570    0.0191736530    0.0003304820    
0.0878885180    0.0194909540    0.0003337766    
0.0881111790    0.0195549890    0.0003338955    
0.0883338400    0.0191803000    0.0003258395    
0.0885565010    0.0192889050    0.0003311919    
0.0887791620    0.0198998920    0.0003320340    
0.0890018230    0.0195196680    0.0003320363    
0.0892244840    0.0196484320    0.0003336960    
0.0894471450    0.0190894280    0.0003275255    
0.0896698060    0.0192914740    0.0003280123    
0.0898924670    0.0190541870    0.0003274998    
0.0901151280    0.0189973040    0.0003234785    
0.0903377890    0.0196974610    0.0003321422    
0.0905604500    0.0195614780    0.0003294747    
0.0907831110    0.0193317460    0.0003267195    
0.0910057720    0.0190414820    0.0003257454    
0.0912284330    0.0191877170    0.0003223120    
0.0914510940    0.0192803690    0.0003266921    
0.0916737550    0.0191242060    0.0003245589    
0.0918964160    0.0193946860    0.0003282053    
0.0921190770    0.0195364140    0.0003264240    
0.0923417380    0.0198253730    0.0003289641    
0.0925643990    0.0194134130    0.0003247316    
0.0927870600    0.0196222520    0.0003278125    
0.0930097210    0.0195855330    0.0003247163    
0.0932323820    0.0194811940    0.0003262307    
