# Diamond Light Source Ltd.
# Data extracted from: /dls/b21/data/2018/cm19678-3/processed/b21-386631_00424.dat
q(1/A)          Column          Error           
0.0035000000    2.0960771000    0.0246358730    
0.0037226610    1.9304888000    0.0231449520    
0.0039453220    1.6339301000    0.0193707310    
0.0041679830    1.2878058000    0.0141227500    
0.0043906440    0.9792637100    0.0117795640    
0.0046133050    0.7713535100    0.0100362150    
0.0048359660    0.5941181300    0.0083315791    
0.0050586270    0.4621176600    0.0072223519    
0.0052812880    0.4244065700    0.0065440630    
0.0055039490    0.3772328200    0.0058664005    
0.0057266100    0.3137759100    0.0051759602    
0.0059492710    0.2704876700    0.0048056805    
0.0061719320    0.2274616700    0.0042466155    
0.0063945930    0.2022285600    0.0040526847    
0.0066172539    0.1861145700    0.0036507092    
0.0068399149    0.1665628100    0.0033992409    
0.0070625759    0.1456987600    0.0031466140    
0.0072852369    0.1256778500    0.0028787058    
0.0075078979    0.1168719100    0.0027623812    
0.0077305589    0.1022207400    0.0025342254    
0.0079532199    0.1001405200    0.0024735481    
0.0081758809    0.0913691790    0.0023847162    
0.0083985419    0.0828407140    0.0021178642    
0.0086212029    0.0760185490    0.0020287850    
0.0088438639    0.0709129730    0.0019437332    
0.0090665249    0.0611305120    0.0017430325    
0.0092891859    0.0617786370    0.0018289233    
0.0095118469    0.0606888400    0.0017432414    
0.0097345079    0.0570565820    0.0016416187    
0.0099571689    0.0545012300    0.0015713520    
0.0101798300    0.0488381850    0.0014874766    
0.0104024910    0.0474282460    0.0014608874    
0.0106251520    0.0501973360    0.0015080328    
0.0108478130    0.0450715110    0.0013915998    
0.0110704740    0.0460341130    0.0013389706    
0.0112931350    0.0419564810    0.0012820481    
0.0115157960    0.0422430140    0.0012789175    
0.0117384570    0.0393116210    0.0012231249    
0.0119611180    0.0390017150    0.0012217901    
0.0121837790    0.0371466850    0.0011723390    
0.0124064400    0.0383616100    0.0011416944    
0.0126291010    0.0350880280    0.0010782289    
0.0128517620    0.0351635790    0.0010820844    
0.0130744230    0.0343486680    0.0010615405    
0.0132970840    0.0328440460    0.0010329542    
0.0135197450    0.0327307350    0.0010164040    
0.0137424060    0.0306595170    0.0009700242    
0.0139650670    0.0312452080    0.0009574335    
0.0141877280    0.0306173000    0.0009498589    
0.0144103890    0.0301113140    0.0009257354    
0.0146330500    0.0287747540    0.0008992111    
0.0148557110    0.0301222850    0.0009161679    
0.0150783720    0.0286398180    0.0008859559    
0.0153010330    0.0291965070    0.0008819127    
0.0155236940    0.0265601860    0.0008361526    
0.0157463550    0.0279863730    0.0008434376    
0.0159690160    0.0269166620    0.0008240224    
0.0161916770    0.0267389500    0.0008166707    
0.0164143380    0.0250438740    0.0007963488    
0.0166369990    0.0246412540    0.0007655665    
0.0168596600    0.0267093050    0.0007900225    
0.0170823210    0.0258813700    0.0007709484    
0.0173049820    0.0250722050    0.0007601129    
0.0175276430    0.0248036610    0.0007640037    
0.0177503040    0.0241138710    0.0007341017    
0.0179729650    0.0237255750    0.0007209456    
0.0181956260    0.0243209620    0.0007159420    
0.0184182870    0.0238834750    0.0007061297    
0.0186409480    0.0239753420    0.0007119644    
0.0188636090    0.0237999820    0.0007048946    
0.0190862700    0.0241626660    0.0007091347    
0.0193089310    0.0224276310    0.0006821354    
0.0195315920    0.0231738720    0.0006698099    
0.0197542530    0.0222317890    0.0006570095    
0.0199769140    0.0225036270    0.0006610142    
0.0201995750    0.0232717900    0.0006616753    
0.0204222360    0.0224099650    0.0006548815    
0.0206448970    0.0219416200    0.0006433967    
0.0208675580    0.0233818320    0.0006505000    
0.0210902190    0.0226914320    0.0006470075    
0.0213128800    0.0215771820    0.0006223612    
0.0215355410    0.0222579130    0.0006245721    
0.0217582020    0.0213115220    0.0006111498    
0.0219808630    0.0221820310    0.0006226880    
0.0222035240    0.0224512670    0.0006207789    
0.0224261850    0.0224917750    0.0006158087    
0.0226488460    0.0223213300    0.0006088642    
0.0228715070    0.0221940380    0.0006056174    
0.0230941680    0.0211198750    0.0005907802    
0.0233168290    0.0216736390    0.0005999659    
0.0235394900    0.0221887440    0.0006003540    
0.0237621510    0.0220560290    0.0005824421    
0.0239848120    0.0220608450    0.0005831796    
0.0242074730    0.0211477760    0.0005664131    
0.0244301340    0.0211808620    0.0005675029    
0.0246527950    0.0215129820    0.0005772308    
0.0248754560    0.0206308570    0.0005525682    
0.0250981170    0.0216149180    0.0005668542    
0.0253207780    0.0210010560    0.0005420643    
0.0255434390    0.0209372340    0.0005470166    
0.0257661000    0.0212886690    0.0005533726    
0.0259887610    0.0209090020    0.0005425879    
0.0262114220    0.0199654920    0.0005330294    
0.0264340830    0.0209074110    0.0005380366    
0.0266567440    0.0203079500    0.0005269906    
0.0268794050    0.0217837610    0.0005435758    
0.0271020660    0.0200335780    0.0005191719    
0.0273247270    0.0214420280    0.0005338862    
0.0275473880    0.0210919740    0.0005284566    
0.0277700490    0.0197311870    0.0005081039    
0.0279927100    0.0210212170    0.0005198751    
0.0282153710    0.0199278800    0.0005086358    
0.0284380320    0.0196461810    0.0005021004    
0.0286606930    0.0207870950    0.0005120533    
0.0288833540    0.0205749300    0.0005104012    
0.0291060150    0.0207633730    0.0005122466    
0.0293286760    0.0201150250    0.0004971601    
0.0295513370    0.0208935110    0.0005011717    
0.0297739980    0.0200781830    0.0004967048    
0.0299966590    0.0207634170    0.0004964825    
0.0302193200    0.0203098460    0.0004981855    
0.0304419810    0.0208262080    0.0005054071    
0.0306646420    0.0201536620    0.0004831471    
0.0308873030    0.0203358990    0.0004832302    
0.0311099640    0.0197260130    0.0004771647    
0.0313326250    0.0205104980    0.0004811702    
0.0315552860    0.0211729750    0.0004952150    
0.0317779470    0.0194926630    0.0004755723    
0.0320006080    0.0202681100    0.0004739215    
0.0322232690    0.0202593650    0.0004758027    
0.0324459300    0.0200020300    0.0004692417    
0.0326685910    0.0206712620    0.0004762407    
0.0328912520    0.0203776500    0.0004744123    
0.0331139130    0.0205825700    0.0004705894    
0.0333365740    0.0204457200    0.0004705453    
0.0335592350    0.0205961510    0.0004677321    
0.0337818960    0.0207542600    0.0004691501    
0.0340045570    0.0199906680    0.0004597074    
0.0342272170    0.0203157320    0.0004616020    
0.0344498780    0.0196206900    0.0004554338    
0.0346725390    0.0205300440    0.0004572404    
0.0348952000    0.0200810550    0.0004501528    
0.0351178610    0.0194200610    0.0004447083    
0.0353405220    0.0208278140    0.0004584467    
0.0355631830    0.0197097740    0.0004442926    
0.0357858440    0.0202506040    0.0004503471    
0.0360085050    0.0198895260    0.0004476626    
0.0362311660    0.0201572980    0.0004453089    
0.0364538270    0.0199705530    0.0004396838    
0.0366764880    0.0204828940    0.0004449650    
0.0368991490    0.0201142270    0.0004387196    
0.0371218100    0.0199041580    0.0004351740    
0.0373444710    0.0199900090    0.0004408607    
0.0375671320    0.0197767150    0.0004378638    
0.0377897930    0.0188120350    0.0004159960    
0.0380124540    0.0203808640    0.0004357114    
0.0382351150    0.0212098990    0.0004444850    
0.0384577760    0.0201630730    0.0004291959    
0.0386804370    0.0186631840    0.0004160751    
0.0389030980    0.0192495030    0.0004193602    
0.0391257590    0.0194847150    0.0004190504    
0.0393484200    0.0192463610    0.0004150777    
0.0395710810    0.0196842170    0.0004203382    
0.0397937420    0.0199265810    0.0004229181    
0.0400164030    0.0194556020    0.0004195903    
0.0402390640    0.0198130800    0.0004177892    
0.0404617250    0.0198760060    0.0004159836    
0.0406843860    0.0199121840    0.0004123392    
0.0409070470    0.0201810110    0.0004194376    
0.0411297080    0.0198522780    0.0004119830    
0.0413523690    0.0208914780    0.0004237178    
0.0415750300    0.0191851760    0.0004094949    
0.0417976910    0.0195575660    0.0004027568    
0.0420203520    0.0203984110    0.0004128692    
0.0422430130    0.0210162530    0.0004206617    
0.0424656740    0.0199888140    0.0004049107    
0.0426883350    0.0190942560    0.0003977107    
0.0429109960    0.0199639710    0.0004079380    
0.0431336570    0.0202804480    0.0004053658    
0.0433563180    0.0206813150    0.0004128838    
0.0435789790    0.0196133370    0.0003957649    
0.0438016400    0.0198757540    0.0004005711    
0.0440243010    0.0197038680    0.0003947886    
0.0442469620    0.0199887400    0.0004000149    
0.0444696230    0.0193926140    0.0003925920    
0.0446922840    0.0198464550    0.0003959799    
0.0449149450    0.0197039120    0.0003892807    
0.0451376060    0.0199177430    0.0003962210    
0.0453602670    0.0196180880    0.0003891069    
0.0455829280    0.0196420420    0.0003888941    
0.0458055890    0.0191005990    0.0003857330    
0.0460282500    0.0199960690    0.0003899121    
0.0462509110    0.0196655100    0.0003842709    
0.0464735720    0.0197403430    0.0003852187    
0.0466962330    0.0200112560    0.0003896161    
0.0469188940    0.0201921280    0.0003902635    
0.0471415550    0.0194551310    0.0003850426    
0.0473642160    0.0200402310    0.0003853178    
0.0475868770    0.0200616660    0.0003836086    
0.0478095380    0.0200246230    0.0003815772    
0.0480321990    0.0194844090    0.0003772197    
0.0482548600    0.0196697320    0.0003773581    
0.0484775210    0.0195675450    0.0003801136    
0.0487001820    0.0199452170    0.0003781466    
0.0489228430    0.0199810820    0.0003782831    
0.0491455040    0.0196632660    0.0003726671    
0.0493681650    0.0196937220    0.0003761606    
0.0495908260    0.0196616590    0.0003695304    
0.0498134870    0.0194856930    0.0003713751    
0.0500361480    0.0196643430    0.0003720866    
0.0502588090    0.0194551870    0.0003645570    
0.0504814700    0.0194273410    0.0003690584    
0.0507041310    0.0189202130    0.0003598794    
0.0509267920    0.0196637500    0.0003684004    
0.0511494530    0.0204784070    0.0003734474    
0.0513721140    0.0196347410    0.0003688943    
0.0515947750    0.0193132280    0.0003610107    
0.0518174360    0.0194746140    0.0003603322    
0.0520400970    0.0195013600    0.0003580794    
0.0522627580    0.0200749720    0.0003663951    
0.0524854190    0.0195396050    0.0003644155    
0.0527080800    0.0191738510    0.0003637837    
0.0529307410    0.0198978030    0.0003723283    
0.0531534020    0.0194834470    0.0003670898    
0.0533760630    0.0196125780    0.0003694572    
0.0535987240    0.0198504610    0.0003699557    
0.0538213850    0.0195017020    0.0003709398    
0.0540440460    0.0195132410    0.0003692935    
0.0542667070    0.0194713550    0.0003714393    
0.0544893680    0.0195985080    0.0003728486    
0.0547120290    0.0193798740    0.0003682231    
0.0549346900    0.0193792610    0.0003684110    
0.0551573510    0.0193506770    0.0003724729    
0.0553800120    0.0193895710    0.0003696774    
0.0556026730    0.0197172730    0.0003805176    
0.0558253340    0.0189138790    0.0003758054    
0.0560479950    0.0191827100    0.0003784669    
0.0562706560    0.0194640770    0.0003849182    
0.0564933170    0.0202063190    0.0003955944    
0.0567159780    0.0200044190    0.0003888938    
0.0569386390    0.0194982030    0.0003899641    
0.0571613000    0.0199295090    0.0003857645    
0.0573839610    0.0189022970    0.0003725721    
0.0576066220    0.0201516570    0.0003857527    
0.0578292830    0.0195783890    0.0003789681    
0.0580519440    0.0196935540    0.0003815549    
0.0582746050    0.0197107660    0.0003800383    
0.0584972660    0.0200837020    0.0003821483    
0.0587199270    0.0191886480    0.0003703158    
0.0589425880    0.0203351060    0.0003789881    
0.0591652490    0.0197246860    0.0003754530    
0.0593879100    0.0194468790    0.0003700310    
0.0596105710    0.0191388840    0.0003667018    
0.0598332320    0.0198390950    0.0003765409    
0.0600558930    0.0189801240    0.0003659510    
0.0602785540    0.0191089990    0.0003668031    
0.0605012150    0.0196876180    0.0003715306    
0.0607238760    0.0190078820    0.0003624002    
0.0609465370    0.0196943700    0.0003717905    
0.0611691980    0.0199258290    0.0003745615    
0.0613918590    0.0195000160    0.0003664924    
0.0616145200    0.0193461800    0.0003677157    
0.0618371810    0.0199890750    0.0003701046    
0.0620598420    0.0197144410    0.0003679323    
0.0622825030    0.0202937150    0.0003790074    
0.0625051640    0.0197552160    0.0003686933    
0.0627278250    0.0200439840    0.0003706134    
0.0629504860    0.0191531060    0.0003593384    
0.0631731470    0.0194295930    0.0003664005    
0.0633958080    0.0194791490    0.0003689789    
0.0636184690    0.0196446890    0.0003757041    
0.0638411300    0.0188984370    0.0003671157    
0.0640637910    0.0195485160    0.0003760025    
0.0642864520    0.0197592400    0.0003772056    
0.0645091130    0.0201143880    0.0003839155    
0.0647317740    0.0188882860    0.0003724406    
0.0649544350    0.0192937370    0.0003760027    
0.0651770960    0.0194389650    0.0003753563    
0.0653997570    0.0197516540    0.0003775427    
0.0656224180    0.0198086550    0.0003789092    
0.0658450790    0.0195531220    0.0003710464    
0.0660677400    0.0200891700    0.0003776987    
0.0662904010    0.0196409060    0.0003779194    
0.0665130620    0.0191969450    0.0003720031    
0.0667357230    0.0188551490    0.0003752315    
0.0669583840    0.0187366080    0.0003727986    
0.0671810450    0.0192932050    0.0003762067    
0.0674037060    0.0192848390    0.0003824972    
0.0676263670    0.0193997060    0.0003808259    
0.0678490280    0.0193994570    0.0003784945    
0.0680716890    0.0195674850    0.0003809760    
0.0682943500    0.0199756350    0.0003807128    
0.0685170110    0.0196985620    0.0003742108    
0.0687396720    0.0193889670    0.0003702721    
0.0689623330    0.0198213590    0.0003731916    
0.0691849940    0.0195911660    0.0003735889    
0.0694076550    0.0202178570    0.0003793145    
0.0696303160    0.0195417720    0.0003699660    
0.0698529770    0.0202481090    0.0003758036    
0.0700756380    0.0198131640    0.0003669734    
0.0702982990    0.0195246890    0.0003682593    
0.0705209600    0.0191547860    0.0003621208    
0.0707436210    0.0194879930    0.0003635794    
0.0709662820    0.0196914630    0.0003698294    
0.0711889430    0.0197731490    0.0003660439    
0.0714116040    0.0189626440    0.0003591951    
0.0716342650    0.0199630170    0.0003670516    
0.0718569260    0.0195883100    0.0003621261    
0.0720795870    0.0198078460    0.0003656227    
0.0723022480    0.0196854860    0.0003650471    
0.0725249090    0.0196595620    0.0003604378    
0.0727475700    0.0197615790    0.0003644584    
0.0729702310    0.0194277720    0.0003584850    
0.0731928920    0.0199567730    0.0003647850    
0.0734155530    0.0198107980    0.0003627232    
0.0736382140    0.0192557510    0.0003553109    
0.0738608750    0.0194389400    0.0003593033    
0.0740835360    0.0192698500    0.0003568491    
0.0743061970    0.0198807980    0.0003573580    
0.0745288580    0.0193673090    0.0003563396    
0.0747515190    0.0202534990    0.0003651206    
0.0749741800    0.0194215540    0.0003542334    
0.0751968410    0.0199705550    0.0003620255    
0.0754195020    0.0200745130    0.0003608400    
0.0756421630    0.0191415080    0.0003494745    
0.0758648240    0.0195349760    0.0003538968    
0.0760874850    0.0190230290    0.0003490611    
0.0763101460    0.0194468230    0.0003525892    
0.0765328070    0.0201665220    0.0003627283    
0.0767554680    0.0194303710    0.0003536304    
0.0769781290    0.0189150350    0.0003469043    
0.0772007900    0.0191700420    0.0003464340    
0.0774234510    0.0195280440    0.0003516427    
0.0776461120    0.0195794960    0.0003517716    
0.0778687730    0.0203983790    0.0003578663    
0.0780914340    0.0192516690    0.0003501461    
0.0783140950    0.0197928570    0.0003494006    
0.0785367560    0.0196593010    0.0003538342    
0.0787594170    0.0196275940    0.0003503810    
0.0789820780    0.0195322120    0.0003477377    
0.0792047390    0.0193049490    0.0003468390    
0.0794274000    0.0190164140    0.0003456958    
0.0796500610    0.0196946040    0.0003483725    
0.0798727220    0.0189878140    0.0003417485    
0.0800953830    0.0192250810    0.0003430863    
0.0803180440    0.0193634920    0.0003467177    
0.0805407050    0.0192159540    0.0003450731    
0.0807633660    0.0191493710    0.0003441550    
0.0809860270    0.0195055120    0.0003460579    
0.0812086880    0.0200206340    0.0003475679    
0.0814313490    0.0199722810    0.0003487312    
0.0816540100    0.0193237940    0.0003422420    
0.0818766710    0.0190163460    0.0003402836    
0.0820993320    0.0195719930    0.0003445902    
0.0823219930    0.0192505230    0.0003431580    
0.0825446540    0.0193335220    0.0003413984    
0.0827673150    0.0197348260    0.0003426061    
0.0829899760    0.0196764780    0.0003414903    
0.0832126370    0.0194465060    0.0003410094    
0.0834352980    0.0199192380    0.0003443577    
0.0836579590    0.0188171970    0.0003339512    
0.0838806200    0.0188993650    0.0003357269    
0.0841032810    0.0193840300    0.0003378937    
0.0843259420    0.0190657960    0.0003340766    
0.0845486030    0.0200375560    0.0003424848    
0.0847712640    0.0196090280    0.0003367380    
0.0849939250    0.0193234100    0.0003348587    
0.0852165860    0.0194962470    0.0003367936    
0.0854392470    0.0195796980    0.0003343174    
0.0856619080    0.0193362340    0.0003346792    
0.0858845690    0.0191999870    0.0003304944    
0.0861072300    0.0196447900    0.0003366085    
0.0863298910    0.0191167030    0.0003337921    
0.0865525520    0.0191889470    0.0003315345    
0.0867752130    0.0193595820    0.0003303183    
0.0869978740    0.0197359580    0.0003343637    
0.0872205350    0.0194823580    0.0003317859    
0.0874431960    0.0196066960    0.0003328432    
0.0876658570    0.0197233840    0.0003351139    
0.0878885180    0.0192540210    0.0003316702    
0.0881111790    0.0198941820    0.0003367062    
0.0883338400    0.0190835050    0.0003249463    
0.0885565010    0.0194113270    0.0003321696    
0.0887791620    0.0197085730    0.0003303628    
0.0890018230    0.0196749790    0.0003332828    
0.0892244840    0.0194756850    0.0003321542    
0.0894471450    0.0195923560    0.0003317404    
0.0896698060    0.0192162630    0.0003273017    
0.0898924670    0.0198168170    0.0003339175    
0.0901151280    0.0204701470    0.0003357115    
0.0903377890    0.0194034630    0.0003295831    
0.0905604500    0.0193699980    0.0003277875    
0.0907831110    0.0191799110    0.0003253638    
0.0910057720    0.0194454680    0.0003291118    
0.0912284330    0.0196123930    0.0003257891    
0.0914510940    0.0193827240    0.0003274875    
0.0916737550    0.0193306880    0.0003262360    
0.0918964160    0.0189699550    0.0003245218    
0.0921190770    0.0190482450    0.0003222504    
0.0923417380    0.0195985820    0.0003270066    
0.0925643990    0.0191715780    0.0003226332    
0.0927870600    0.0201447860    0.0003320770    
0.0930097210    0.0190766330    0.0003204008    
0.0932323820    0.0197895180    0.0003287313    
