# Diamond Light Source Ltd.
# Data extracted from: /dls/b21/data/2018/cm19678-3/processed/b21-386631_00427.dat
q(1/A)          Column          Error           
0.0035000000    2.0946741000    0.0246312950    
0.0037226610    1.8641693000    0.0227473080    
0.0039453220    1.6351060000    0.0193805870    
0.0041679830    1.2756407000    0.0140579810    
0.0043906440    0.9656650800    0.0116992310    
0.0046133050    0.7856904800    0.0101305650    
0.0048359660    0.5973338100    0.0083553406    
0.0050586270    0.4507384700    0.0071339385    
0.0052812880    0.4352321400    0.0066279860    
0.0055039490    0.3772539500    0.0058674387    
0.0057266100    0.3253138900    0.0052710497    
0.0059492710    0.2631378800    0.0047406460    
0.0061719320    0.2221366100    0.0041972380    
0.0063945930    0.1926211900    0.0039558361    
0.0066172539    0.1789352500    0.0035801373    
0.0068399149    0.1659185000    0.0033931654    
0.0070625759    0.1432270300    0.0031202739    
0.0072852369    0.1267046600    0.0028908722    
0.0075078979    0.1142289800    0.0027313753    
0.0077305589    0.0996744880    0.0025028362    
0.0079532199    0.0977256850    0.0024439060    
0.0081758809    0.0887815180    0.0023510551    
0.0083985419    0.0822154700    0.0021101710    
0.0086212029    0.0749579900    0.0020148833    
0.0088438639    0.0709341000    0.0019443123    
0.0090665249    0.0647281620    0.0017938568    
0.0092891859    0.0646675450    0.0018714758    
0.0095118469    0.0601559510    0.0017358296    
0.0097345079    0.0564593790    0.0016332480    
0.0099571689    0.0535204730    0.0015573814    
0.0101798300    0.0532032570    0.0015527594    
0.0104024910    0.0475774120    0.0014634009    
0.0106251520    0.0489433890    0.0014892999    
0.0108478130    0.0474058030    0.0014273936    
0.0110704740    0.0427364360    0.0012903127    
0.0112931350    0.0422432880    0.0012866142    
0.0115157960    0.0424492550    0.0012822266    
0.0117384570    0.0390949310    0.0012199309    
0.0119611180    0.0369458960    0.0011893305    
0.0121837790    0.0363435390    0.0011597689    
0.0124064400    0.0365036710    0.0011138697    
0.0126291010    0.0345681930    0.0010703715    
0.0128517620    0.0361067010    0.0010966630    
0.0130744230    0.0341948190    0.0010593182    
0.0132970840    0.0327238460    0.0010312159    
0.0135197450    0.0308145760    0.0009863505    
0.0137424060    0.0312826390    0.0009799779    
0.0139650670    0.0298752100    0.0009363475    
0.0141877280    0.0295357790    0.0009330707    
0.0144103890    0.0279566350    0.0008921321    
0.0146330500    0.0290644140    0.0009038603    
0.0148557110    0.0287933310    0.0008958633    
0.0150783720    0.0273324450    0.0008656272    
0.0153010330    0.0289387340    0.0008781417    
0.0155236940    0.0280689730    0.0008597020    
0.0157463550    0.0278930040    0.0008421549    
0.0159690160    0.0273031910    0.0008300415    
0.0161916770    0.0252997890    0.0007945073    
0.0164143380    0.0255579340    0.0008046003    
0.0166369990    0.0250768530    0.0007724186    
0.0168596600    0.0262965180    0.0007840107    
0.0170823210    0.0249242710    0.0007566719    
0.0173049820    0.0243650890    0.0007494290    
0.0175276430    0.0250699900    0.0007682089    
0.0177503040    0.0243669600    0.0007380539    
0.0179729650    0.0238202990    0.0007224910    
0.0181956260    0.0250028210    0.0007260168    
0.0184182870    0.0246632760    0.0007176717    
0.0186409480    0.0233903250    0.0007033293    
0.0188636090    0.0240994400    0.0007094210    
0.0190862700    0.0232955020    0.0006963972    
0.0193089310    0.0225173260    0.0006835998    
0.0195315920    0.0237036510    0.0006775238    
0.0197542530    0.0237921880    0.0006797768    
0.0199769140    0.0226462870    0.0006632049    
0.0201995750    0.0219237780    0.0006423215    
0.0204222360    0.0219380620    0.0006480462    
0.0206448970    0.0234767900    0.0006656233    
0.0208675580    0.0227008920    0.0006410533    
0.0210902190    0.0225136540    0.0006445641    
0.0213128800    0.0218709130    0.0006266763    
0.0215355410    0.0224223250    0.0006269680    
0.0217582020    0.0226853010    0.0006306340    
0.0219808630    0.0222935510    0.0006243443    
0.0222035240    0.0220630530    0.0006154801    
0.0224261850    0.0220262440    0.0006094932    
0.0226488460    0.0221618500    0.0006067756    
0.0228715070    0.0220353440    0.0006035382    
0.0230941680    0.0216386170    0.0005980806    
0.0233168290    0.0213976740    0.0005962229    
0.0235394900    0.0221141130    0.0005994327    
0.0237621510    0.0224933900    0.0005882761    
0.0239848120    0.0202631640    0.0005589971    
0.0242074730    0.0227778110    0.0005879246    
0.0244301340    0.0213088510    0.0005692997    
0.0246527950    0.0211010880    0.0005717633    
0.0248754560    0.0206221990    0.0005525345    
0.0250981170    0.0209521960    0.0005581797    
0.0253207780    0.0214131840    0.0005474387    
0.0255434390    0.0209005840    0.0005466190    
0.0257661000    0.0208201910    0.0005473315    
0.0259887610    0.0205912920    0.0005385300    
0.0262114220    0.0217507910    0.0005564336    
0.0264340830    0.0200964850    0.0005275777    
0.0266567440    0.0216545880    0.0005442638    
0.0268794050    0.0212746660    0.0005372664    
0.0271020660    0.0207932160    0.0005290021    
0.0273247270    0.0209697170    0.0005280520    
0.0275473880    0.0207539050    0.0005242824    
0.0277700490    0.0207579480    0.0005212341    
0.0279927100    0.0201786640    0.0005094258    
0.0282153710    0.0201675690    0.0005117617    
0.0284380320    0.0206275760    0.0005145650    
0.0286606930    0.0198974610    0.0005010509    
0.0288833540    0.0210243440    0.0005160222    
0.0291060150    0.0204029630    0.0005078571    
0.0293286760    0.0212641180    0.0005112394    
0.0295513370    0.0215731450    0.0005093335    
0.0297739980    0.0201947880    0.0004982193    
0.0299966590    0.0206746020    0.0004954933    
0.0302193200    0.0204870300    0.0005004284    
0.0304419810    0.0207588000    0.0005046637    
0.0306646420    0.0202986990    0.0004849547    
0.0308873030    0.0192622610    0.0004703712    
0.0311099640    0.0203438210    0.0004846515    
0.0313326250    0.0197149140    0.0004718161    
0.0315552860    0.0200438510    0.0004819013    
0.0317779470    0.0198118390    0.0004795214    
0.0320006080    0.0208727300    0.0004810100    
0.0322232690    0.0192929300    0.0004643846    
0.0324459300    0.0197547240    0.0004664013    
0.0326685910    0.0206664450    0.0004762562    
0.0328912520    0.0202732400    0.0004732658    
0.0331139130    0.0201904890    0.0004661551    
0.0333365740    0.0199968460    0.0004654206    
0.0335592350    0.0205597860    0.0004673886    
0.0337818960    0.0205482770    0.0004668857    
0.0340045570    0.0199226010    0.0004589925    
0.0342272170    0.0196923030    0.0004545319    
0.0344498780    0.0200389460    0.0004603310    
0.0346725390    0.0196091810    0.0004469347    
0.0348952000    0.0205715490    0.0004556852    
0.0351178610    0.0192730480    0.0004430879    
0.0353405220    0.0196126450    0.0004449383    
0.0355631830    0.0202666430    0.0004505924    
0.0357858440    0.0199360580    0.0004469025    
0.0360085050    0.0208730910    0.0004586662    
0.0362311660    0.0191202040    0.0004337666    
0.0364538270    0.0202766830    0.0004431070    
0.0366764880    0.0197154620    0.0004366147    
0.0368991490    0.0196703390    0.0004339163    
0.0371218100    0.0192153290    0.0004276413    
0.0373444710    0.0200932210    0.0004420633    
0.0375671320    0.0199765550    0.0004401361    
0.0377897930    0.0196089920    0.0004247795    
0.0380124540    0.0202005840    0.0004338447    
0.0382351150    0.0193806470    0.0004249488    
0.0384577760    0.0200868320    0.0004284475    
0.0386804370    0.0206451080    0.0004376754    
0.0389030980    0.0198126980    0.0004255141    
0.0391257590    0.0203739940    0.0004285702    
0.0393484200    0.0191804600    0.0004144282    
0.0395710810    0.0197708890    0.0004213253    
0.0397937420    0.0195823520    0.0004193117    
0.0400164030    0.0203756310    0.0004294606    
0.0402390640    0.0195193630    0.0004147427    
0.0404617250    0.0190894370    0.0004077302    
0.0406843860    0.0197472920    0.0004106895    
0.0409070470    0.0193760540    0.0004110487    
0.0411297080    0.0203029070    0.0004166946    
0.0413523690    0.0205882340    0.0004206940    
0.0415750300    0.0204586270    0.0004229301    
0.0417976910    0.0191568590    0.0003986689    
0.0420203520    0.0200868430    0.0004097650    
0.0422430130    0.0194980460    0.0004052431    
0.0424656740    0.0200357930    0.0004054466    
0.0426883350    0.0200694430    0.0004078010    
0.0429109960    0.0198698610    0.0004070360    
0.0431336570    0.0199704010    0.0004023152    
0.0433563180    0.0188735090    0.0003944843    
0.0435789790    0.0199786530    0.0003994932    
0.0438016400    0.0192194920    0.0003939612    
0.0440243010    0.0195277540    0.0003930789    
0.0442469620    0.0202108980    0.0004022916    
0.0444696230    0.0197163980    0.0003959148    
0.0446922840    0.0199630100    0.0003972001    
0.0449149450    0.0203636980    0.0003958035    
0.0451376060    0.0196083040    0.0003931897    
0.0453602670    0.0196779720    0.0003897583    
0.0455829280    0.0188160740    0.0003806863    
0.0458055890    0.0196205700    0.0003910063    
0.0460282500    0.0195609170    0.0003857036    
0.0462509110    0.0197239470    0.0003848987    
0.0464735720    0.0196259130    0.0003841578    
0.0466962330    0.0198123410    0.0003877326    
0.0469188940    0.0203641350    0.0003919806    
0.0471415550    0.0187748780    0.0003783075    
0.0473642160    0.0192828900    0.0003780232    
0.0475868770    0.0201850400    0.0003848437    
0.0478095380    0.0193178080    0.0003748382    
0.0480321990    0.0197605060    0.0003799395    
0.0482548600    0.0202114750    0.0003825763    
0.0484775210    0.0198245050    0.0003826583    
0.0487001820    0.0198220730    0.0003770336    
0.0489228430    0.0201303110    0.0003797496    
0.0491455040    0.0201283540    0.0003771048    
0.0493681650    0.0200373790    0.0003794849    
0.0495908260    0.0194382590    0.0003674798    
0.0498134870    0.0199304640    0.0003756455    
0.0500361480    0.0194941350    0.0003705279    
0.0502588090    0.0199393080    0.0003691199    
0.0504814700    0.0198539110    0.0003731437    
0.0507041310    0.0194736310    0.0003651591    
0.0509267920    0.0203945330    0.0003752395    
0.0511494530    0.0195648520    0.0003650769    
0.0513721140    0.0197376500    0.0003699148    
0.0515947750    0.0200345000    0.0003677448    
0.0518174360    0.0194737470    0.0003603779    
0.0520400970    0.0198952090    0.0003617311    
0.0522627580    0.0193518310    0.0003597890    
0.0524854190    0.0196542010    0.0003655370    
0.0527080800    0.0196283290    0.0003681247    
0.0529307410    0.0195831530    0.0003694277    
0.0531534020    0.0190464710    0.0003630040    
0.0533760630    0.0198412000    0.0003716597    
0.0535987240    0.0199460350    0.0003709005    
0.0538213850    0.0193734160    0.0003697729    
0.0540440460    0.0192254290    0.0003666146    
0.0542667070    0.0202001070    0.0003783827    
0.0544893680    0.0190154360    0.0003673152    
0.0547120290    0.0195116200    0.0003695276    
0.0549346900    0.0198684340    0.0003730874    
0.0551573510    0.0196361380    0.0003752661    
0.0553800120    0.0195222530    0.0003709953    
0.0556026730    0.0193999370    0.0003774993    
0.0558253340    0.0194946430    0.0003815883    
0.0560479950    0.0204357840    0.0003906909    
0.0562706560    0.0192490600    0.0003828432    
0.0564933170    0.0193059210    0.0003867377    
0.0567159780    0.0199120660    0.0003880529    
0.0569386390    0.0192465590    0.0003874972    
0.0571613000    0.0201744630    0.0003881858    
0.0573839610    0.0195323160    0.0003787866    
0.0576066220    0.0193746960    0.0003782995    
0.0578292830    0.0196502610    0.0003797196    
0.0580519440    0.0197216050    0.0003818834    
0.0582746050    0.0197972640    0.0003809280    
0.0584972660    0.0187877100    0.0003696678    
0.0587199270    0.0200307680    0.0003784108    
0.0589425880    0.0193732100    0.0003699712    
0.0591652490    0.0192944880    0.0003713914    
0.0593879100    0.0195512750    0.0003710781    
0.0596105710    0.0200512130    0.0003753961    
0.0598332320    0.0194303760    0.0003726975    
0.0600558930    0.0194727750    0.0003707251    
0.0602785540    0.0195654440    0.0003712134    
0.0605012150    0.0194971100    0.0003697838    
0.0607238760    0.0199120400    0.0003709746    
0.0609465370    0.0195738640    0.0003707065    
0.0611691980    0.0191711180    0.0003674543    
0.0613918590    0.0197883190    0.0003692467    
0.0616145200    0.0202468320    0.0003762338    
0.0618371810    0.0194466580    0.0003651029    
0.0620598420    0.0191433360    0.0003626178    
0.0622825030    0.0197616440    0.0003740616    
0.0625051640    0.0190039720    0.0003616689    
0.0627278250    0.0195221450    0.0003658117    
0.0629504860    0.0198196940    0.0003655924    
0.0631731470    0.0193317080    0.0003655308    
0.0633958080    0.0202120550    0.0003759122    
0.0636184690    0.0195139810    0.0003745079    
0.0638411300    0.0190681400    0.0003688152    
0.0640637910    0.0188815500    0.0003695876    
0.0642864520    0.0189655900    0.0003696076    
0.0645091130    0.0190868750    0.0003740368    
0.0647317740    0.0198635850    0.0003819920    
0.0649544350    0.0190209510    0.0003733907    
0.0651770960    0.0196042590    0.0003770050    
0.0653997570    0.0199452250    0.0003794447    
0.0656224180    0.0198798080    0.0003796457    
0.0658450790    0.0194533000    0.0003701532    
0.0660677400    0.0195553070    0.0003727018    
0.0662904010    0.0200904640    0.0003822770    
0.0665130620    0.0196281080    0.0003762135    
0.0667357230    0.0193014730    0.0003797032    
0.0669583840    0.0189796200    0.0003752643    
0.0671810450    0.0188366580    0.0003717842    
0.0674037060    0.0199887490    0.0003894733    
0.0676263670    0.0196597390    0.0003834268    
0.0678490280    0.0200183440    0.0003845418    
0.0680716890    0.0193581420    0.0003789890    
0.0682943500    0.0197202950    0.0003783281    
0.0685170110    0.0196902090    0.0003741871    
0.0687396720    0.0193593780    0.0003700445    
0.0689623330    0.0188011100    0.0003635144    
0.0691849940    0.0199461860    0.0003770148    
0.0694076550    0.0191988050    0.0003696866    
0.0696303160    0.0192393170    0.0003671465    
0.0698529770    0.0197866840    0.0003715523    
0.0700756380    0.0192547500    0.0003618189    
0.0702982990    0.0194123920    0.0003672534    
0.0705209600    0.0196398480    0.0003667318    
0.0707436210    0.0197584210    0.0003661479    
0.0709662820    0.0206700370    0.0003789638    
0.0711889430    0.0199620540    0.0003678431    
0.0714116040    0.0200708640    0.0003695972    
0.0716342650    0.0203537630    0.0003706816    
0.0718569260    0.0194267320    0.0003606832    
0.0720795870    0.0198137470    0.0003657317    
0.0723022480    0.0198335510    0.0003664720    
0.0725249090    0.0198901670    0.0003625996    
0.0727475700    0.0195119680    0.0003622033    
0.0729702310    0.0196651490    0.0003607222    
0.0731928920    0.0194958320    0.0003606014    
0.0734155530    0.0200292830    0.0003647722    
0.0736382140    0.0196484230    0.0003589689    
0.0738608750    0.0191856450    0.0003570079    
0.0740835360    0.0198705170    0.0003624221    
0.0743061970    0.0195911520    0.0003547981    
0.0745288580    0.0193796380    0.0003565060    
0.0747515190    0.0197393830    0.0003605104    
0.0749741800    0.0191882140    0.0003521514    
0.0751968410    0.0189458410    0.0003526677    
0.0754195020    0.0189969910    0.0003510745    
0.0756421630    0.0198428930    0.0003558727    
0.0758648240    0.0196305800    0.0003548146    
0.0760874850    0.0191952780    0.0003506901    
0.0763101460    0.0194334320    0.0003525203    
0.0765328070    0.0193828580    0.0003556637    
0.0767554680    0.0199511950    0.0003583919    
0.0769781290    0.0193788900    0.0003511844    
0.0772007900    0.0201464400    0.0003551999    
0.0774234510    0.0195211940    0.0003516334    
0.0776461120    0.0188772740    0.0003454573    
0.0778687730    0.0196571090    0.0003513561    
0.0780914340    0.0197351770    0.0003545686    
0.0783140950    0.0193421920    0.0003454514    
0.0785367560    0.0190727190    0.0003485674    
0.0787594170    0.0200839220    0.0003544835    
0.0789820780    0.0194327550    0.0003469029    
0.0792047390    0.0199838950    0.0003529380    
0.0794274000    0.0196569870    0.0003515224    
0.0796500610    0.0192504920    0.0003444735    
0.0798727220    0.0196087440    0.0003473432    
0.0800953830    0.0192063110    0.0003429698    
0.0803180440    0.0192077990    0.0003453724    
0.0805407050    0.0196493790    0.0003489950    
0.0807633660    0.0194829890    0.0003471916    
0.0809860270    0.0199350820    0.0003498999    
0.0812086880    0.0197127400    0.0003449363    
0.0814313490    0.0194970490    0.0003446085    
0.0816540100    0.0188748100    0.0003382930    
0.0818766710    0.0193691950    0.0003434773    
0.0820993320    0.0196506500    0.0003453333    
0.0823219930    0.0198069620    0.0003481341    
0.0825446540    0.0195201920    0.0003430937    
0.0827673150    0.0193896800    0.0003396475    
0.0829899760    0.0200261880    0.0003445629    
0.0832126370    0.0197872720    0.0003440354    
0.0834352980    0.0196512460    0.0003420843    
0.0836579590    0.0189473010    0.0003351536    
0.0838806200    0.0196328000    0.0003422302    
0.0841032810    0.0193898050    0.0003379944    
0.0843259420    0.0195223530    0.0003381033    
0.0845486030    0.0197390370    0.0003399747    
0.0847712640    0.0194586920    0.0003354947    
0.0849939250    0.0191666400    0.0003335473    
0.0852165860    0.0196882880    0.0003384987    
0.0854392470    0.0194313600    0.0003330981    
0.0856619080    0.0191218040    0.0003328679    
0.0858845690    0.0189610130    0.0003284801    
0.0861072300    0.0184448340    0.0003262146    
0.0863298910    0.0202184390    0.0003433271    
0.0865525520    0.0192003940    0.0003316828    
0.0867752130    0.0197036090    0.0003332899    
0.0869978740    0.0199458290    0.0003361869    
0.0872205350    0.0203698770    0.0003393095    
0.0874431960    0.0192677630    0.0003300029    
0.0876658570    0.0188293690    0.0003274797    
0.0878885180    0.0190197240    0.0003296952    
0.0881111790    0.0191932590    0.0003307708    
0.0883338400    0.0192164890    0.0003261251    
0.0885565010    0.0195023980    0.0003329975    
0.0887791620    0.0199360180    0.0003323131    
0.0890018230    0.0188055090    0.0003258840    
0.0892244840    0.0195721510    0.0003330254    
0.0894471450    0.0188565180    0.0003254996    
0.0896698060    0.0187089560    0.0003230006    
0.0898924670    0.0192373820    0.0003290485    
0.0901151280    0.0192536190    0.0003256317    
0.0903377890    0.0197060380    0.0003321924    
0.0905604500    0.0190983380    0.0003255293    
0.0907831110    0.0195720980    0.0003287224    
0.0910057720    0.0196072730    0.0003305275    
0.0912284330    0.0189902790    0.0003206281    
0.0914510940    0.0191394310    0.0003254742    
0.0916737550    0.0188903490    0.0003225469    
0.0918964160    0.0194309770    0.0003284904    
0.0921190770    0.0188576000    0.0003206815    
0.0923417380    0.0195825900    0.0003269218    
0.0925643990    0.0197692820    0.0003276727    
0.0927870600    0.0195320270    0.0003270362    
0.0930097210    0.0193622270    0.0003228383    
0.0932323820    0.0200248310    0.0003307293    
