# Diamond Light Source Ltd.
# Data extracted from: /dls/b21/data/2018/cm19678-3/processed/b21-386631_00433.dat
q(1/A)          Column          Error           
0.0035000000    2.0965237000    0.0246462310    
0.0037226610    1.8686713000    0.0227785130    
0.0039453220    1.6643689000    0.0195564650    
0.0041679830    1.2898541000    0.0141384120    
0.0043906440    0.9525139100    0.0116212090    
0.0046133050    0.7936587900    0.0101834850    
0.0048359660    0.5868919000    0.0082833547    
0.0050586270    0.4596970200    0.0072056719    
0.0052812880    0.4217449300    0.0065255576    
0.0055039490    0.3787476500    0.0058800122    
0.0057266100    0.3178174600    0.0052108225    
0.0059492710    0.2679235700    0.0047843494    
0.0061719320    0.2238758400    0.0042143318    
0.0063945930    0.1969106100    0.0040002986    
0.0066172539    0.1835801700    0.0036269053    
0.0068399149    0.1675003600    0.0034098642    
0.0070625759    0.1429342600    0.0031175971    
0.0072852369    0.1263505600    0.0028873058    
0.0075078979    0.1160306200    0.0027532848    
0.0077305589    0.0995187550    0.0025012925    
0.0079532199    0.0994086060    0.0024652656    
0.0081758809    0.0888107940    0.0023518303    
0.0083985419    0.0877687620    0.0021806324    
0.0086212029    0.0768247680    0.0020401549    
0.0088438639    0.0702111310    0.0019346975    
0.0090665249    0.0663906220    0.0018170468    
0.0092891859    0.0613839940    0.0018236445    
0.0095118469    0.0585724360    0.0017131131    
0.0097345079    0.0589828780    0.0016696240    
0.0099571689    0.0523594670    0.0015406508    
0.0101798300    0.0514528190    0.0015272539    
0.0104024910    0.0484486050    0.0014769818    
0.0106251520    0.0473728770    0.0014654521    
0.0108478130    0.0443689230    0.0013811442    
0.0110704740    0.0442314030    0.0013129034    
0.0112931350    0.0414340250    0.0012744407    
0.0115157960    0.0418046070    0.0012726630    
0.0117384570    0.0391839820    0.0012215208    
0.0119611180    0.0378389450    0.0012038172    
0.0121837790    0.0365036110    0.0011625118    
0.0124064400    0.0367537060    0.0011178622    
0.0126291010    0.0344469760    0.0010686693    
0.0128517620    0.0339195040    0.0010631036    
0.0130744230    0.0340419580    0.0010571221    
0.0132970840    0.0303616190    0.0009934625    
0.0135197450    0.0315511390    0.0009982339    
0.0137424060    0.0311086980    0.0009774107    
0.0139650670    0.0302079840    0.0009417032    
0.0141877280    0.0289852740    0.0009244867    
0.0144103890    0.0291334700    0.0009108658    
0.0146330500    0.0298894190    0.0009167498    
0.0148557110    0.0286076470    0.0008931172    
0.0150783720    0.0293982380    0.0008978916    
0.0153010330    0.0268691190    0.0008462977    
0.0155236940    0.0285260050    0.0008668156    
0.0157463550    0.0259182720    0.0008119307    
0.0159690160    0.0262267750    0.0008136490    
0.0161916770    0.0263813560    0.0008114460    
0.0164143380    0.0260984670    0.0008131981    
0.0166369990    0.0257753200    0.0007832309    
0.0168596600    0.0258375420    0.0007772667    
0.0170823210    0.0244958840    0.0007502647    
0.0173049820    0.0243961820    0.0007500307    
0.0175276430    0.0243482790    0.0007571955    
0.0177503040    0.0240171970    0.0007328586    
0.0179729650    0.0250557310    0.0007411122    
0.0181956260    0.0259811400    0.0007402064    
0.0184182870    0.0245042860    0.0007154727    
0.0186409480    0.0231441720    0.0006997340    
0.0188636090    0.0224779450    0.0006852522    
0.0190862700    0.0229283340    0.0006910013    
0.0193089310    0.0239779610    0.0007055394    
0.0195315920    0.0230915590    0.0006688291    
0.0197542530    0.0241303200    0.0006847031    
0.0199769140    0.0223817540    0.0006594288    
0.0201995750    0.0239076220    0.0006708640    
0.0204222360    0.0233623570    0.0006688624    
0.0206448970    0.0229559410    0.0006583068    
0.0208675580    0.0216761790    0.0006265210    
0.0210902190    0.0228348970    0.0006492534    
0.0213128800    0.0222553340    0.0006322640    
0.0215355410    0.0205181950    0.0005998549    
0.0217582020    0.0222017470    0.0006239795    
0.0219808630    0.0216887200    0.0006159183    
0.0222035240    0.0225168870    0.0006218806    
0.0224261850    0.0221516040    0.0006113259    
0.0226488460    0.0221026830    0.0006060650    
0.0228715070    0.0215134550    0.0005964465    
0.0230941680    0.0213977110    0.0005948400    
0.0233168290    0.0214545860    0.0005971137    
0.0235394900    0.0214062380    0.0005898580    
0.0237621510    0.0213619160    0.0005733839    
0.0239848120    0.0215193560    0.0005761588    
0.0242074730    0.0211306920    0.0005663620    
0.0244301340    0.0214223810    0.0005709084    
0.0246527950    0.0201006870    0.0005581371    
0.0248754560    0.0209547980    0.0005570642    
0.0250981170    0.0219557410    0.0005714851    
0.0253207780    0.0210422400    0.0005427658    
0.0255434390    0.0219657200    0.0005604667    
0.0257661000    0.0207550900    0.0005465652    
0.0259887610    0.0212039080    0.0005465723    
0.0262114220    0.0209178330    0.0005457651    
0.0264340830    0.0197706000    0.0005233688    
0.0266567440    0.0204438550    0.0005289170    
0.0268794050    0.0201823080    0.0005233779    
0.0271020660    0.0210289410    0.0005320799    
0.0273247270    0.0218811410    0.0005394945    
0.0275473880    0.0207210020    0.0005239531    
0.0277700490    0.0207517000    0.0005212416    
0.0279927100    0.0205069460    0.0005136376    
0.0282153710    0.0208627150    0.0005205927    
0.0284380320    0.0205188150    0.0005132913    
0.0286606930    0.0202448010    0.0005054886    
0.0288833540    0.0213606830    0.0005202192    
0.0291060150    0.0207764080    0.0005125682    
0.0293286760    0.0201768350    0.0004980796    
0.0295513370    0.0196315400    0.0004859530    
0.0297739980    0.0211113110    0.0005094834    
0.0299966590    0.0203012900    0.0004910804    
0.0302193200    0.0210929470    0.0005078585    
0.0304419810    0.0204220050    0.0005006356    
0.0306646420    0.0200272360    0.0004817804    
0.0308873030    0.0204865450    0.0004851690    
0.0311099640    0.0201772840    0.0004827433    
0.0313326250    0.0204443080    0.0004805440    
0.0315552860    0.0205604150    0.0004881520    
0.0317779470    0.0205498050    0.0004884511    
0.0320006080    0.0206689310    0.0004787349    
0.0322232690    0.0197689150    0.0004701557    
0.0324459300    0.0203450430    0.0004733966    
0.0326685910    0.0210355630    0.0004805697    
0.0328912520    0.0202799250    0.0004734219    
0.0331139130    0.0194758200    0.0004579062    
0.0333365740    0.0202309980    0.0004682148    
0.0335592350    0.0205240510    0.0004670592    
0.0337818960    0.0202260870    0.0004632873    
0.0340045570    0.0199820610    0.0004597527    
0.0342272170    0.0208427330    0.0004676975    
0.0344498780    0.0202359600    0.0004626647    
0.0346725390    0.0202983740    0.0004547959    
0.0348952000    0.0197301580    0.0004463425    
0.0351178610    0.0190348450    0.0004404138    
0.0353405220    0.0196494040    0.0004454285    
0.0355631830    0.0207543540    0.0004560570    
0.0357858440    0.0201831460    0.0004497375    
0.0360085050    0.0206682500    0.0004564853    
0.0362311660    0.0200813580    0.0004446087    
0.0364538270    0.0199249720    0.0004393196    
0.0366764880    0.0194414650    0.0004336416    
0.0368991490    0.0204236820    0.0004422202    
0.0371218100    0.0193739910    0.0004294740    
0.0373444710    0.0193896390    0.0004343263    
0.0375671320    0.0199734410    0.0004401743    
0.0377897930    0.0196706870    0.0004255173    
0.0380124540    0.0193963460    0.0004251908    
0.0382351150    0.0199183170    0.0004308741    
0.0384577760    0.0201757310    0.0004294653    
0.0386804370    0.0192874970    0.0004231098    
0.0389030980    0.0195815470    0.0004230944    
0.0391257590    0.0207053610    0.0004321125    
0.0393484200    0.0195540390    0.0004185136    
0.0395710810    0.0197235190    0.0004208896    
0.0397937420    0.0204690030    0.0004287701    
0.0400164030    0.0203280220    0.0004290293    
0.0402390640    0.0197814420    0.0004175866    
0.0404617250    0.0200017340    0.0004174281    
0.0406843860    0.0200699330    0.0004140992    
0.0409070470    0.0198534840    0.0004161507    
0.0411297080    0.0193856600    0.0004072402    
0.0413523690    0.0195029280    0.0004095230    
0.0415750300    0.0201417750    0.0004197114    
0.0417976910    0.0202503900    0.0004099572    
0.0420203520    0.0188810020    0.0003973407    
0.0422430130    0.0190326610    0.0004004436    
0.0424656740    0.0200998510    0.0004061612    
0.0426883350    0.0198025230    0.0004051468    
0.0429109960    0.0196845710    0.0004052005    
0.0431336570    0.0197905120    0.0004005651    
0.0433563180    0.0199849680    0.0004060007    
0.0435789790    0.0196975680    0.0003967383    
0.0438016400    0.0195731870    0.0003976352    
0.0440243010    0.0201832230    0.0003996874    
0.0442469620    0.0198010350    0.0003982572    
0.0444696230    0.0199058130    0.0003978776    
0.0446922840    0.0190683520    0.0003882617    
0.0449149450    0.0193853690    0.0003862424    
0.0451376060    0.0195516740    0.0003926862    
0.0453602670    0.0198620770    0.0003916419    
0.0455829280    0.0197545320    0.0003901286    
0.0458055890    0.0194633510    0.0003895008    
0.0460282500    0.0202672890    0.0003926707    
0.0462509110    0.0197905580    0.0003856117    
0.0464735720    0.0198430000    0.0003863402    
0.0466962330    0.0197657400    0.0003873402    
0.0469188940    0.0197217610    0.0003858122    
0.0471415550    0.0198257330    0.0003888146    
0.0473642160    0.0192225290    0.0003774933    
0.0475868770    0.0195384570    0.0003786921    
0.0478095380    0.0199862640    0.0003813312    
0.0480321990    0.0205050880    0.0003870952    
0.0482548600    0.0195227110    0.0003760631    
0.0484775210    0.0198679850    0.0003831408    
0.0487001820    0.0192044810    0.0003711747    
0.0489228430    0.0194489960    0.0003733295    
0.0491455040    0.0195908020    0.0003720965    
0.0493681650    0.0192603440    0.0003721154    
0.0495908260    0.0202855570    0.0003754654    
0.0498134870    0.0193846070    0.0003705268    
0.0500361480    0.0204586840    0.0003796465    
0.0502588090    0.0188111960    0.0003585851    
0.0504814700    0.0195728280    0.0003705540    
0.0507041310    0.0198362280    0.0003686038    
0.0509267920    0.0190821510    0.0003630253    
0.0511494530    0.0191079160    0.0003608480    
0.0513721140    0.0193349890    0.0003661825    
0.0515947750    0.0196157050    0.0003639409    
0.0518174360    0.0199204740    0.0003645480    
0.0520400970    0.0197833460    0.0003607722    
0.0522627580    0.0202481690    0.0003680877    
0.0524854190    0.0193886560    0.0003631191    
0.0527080800    0.0196624270    0.0003685050    
0.0529307410    0.0198754380    0.0003722358    
0.0531534020    0.0200354940    0.0003723709    
0.0533760630    0.0201750560    0.0003748353    
0.0535987240    0.0191798970    0.0003637675    
0.0538213850    0.0197610460    0.0003735154    
0.0540440460    0.0199520860    0.0003735403    
0.0542667070    0.0193417770    0.0003703175    
0.0544893680    0.0199302060    0.0003761086    
0.0547120290    0.0191680170    0.0003663199    
0.0549346900    0.0196787590    0.0003713634    
0.0551573510    0.0195206540    0.0003742227    
0.0553800120    0.0193030060    0.0003689670    
0.0556026730    0.0194210310    0.0003777667    
0.0558253340    0.0201809940    0.0003883115    
0.0560479950    0.0194861480    0.0003815682    
0.0562706560    0.0195905490    0.0003862879    
0.0564933170    0.0189867990    0.0003835913    
0.0567159780    0.0194722970    0.0003838070    
0.0569386390    0.0199552810    0.0003946322    
0.0571613000    0.0200989270    0.0003875223    
0.0573839610    0.0195975420    0.0003794811    
0.0576066220    0.0195879740    0.0003804387    
0.0578292830    0.0196934410    0.0003801993    
0.0580519440    0.0196097550    0.0003808617    
0.0582746050    0.0194665190    0.0003777949    
0.0584972660    0.0190922220    0.0003727130    
0.0587199270    0.0197370270    0.0003756879    
0.0589425880    0.0196340350    0.0003725147    
0.0591652490    0.0197013130    0.0003753482    
0.0593879100    0.0200508920    0.0003758515    
0.0596105710    0.0194039950    0.0003693487    
0.0598332320    0.0196441660    0.0003748040    
0.0600558930    0.0189920390    0.0003661807    
0.0602785540    0.0198396170    0.0003738669    
0.0605012150    0.0193842730    0.0003687730    
0.0607238760    0.0193032790    0.0003653200    
0.0609465370    0.0191238190    0.0003664804    
0.0611691980    0.0188603990    0.0003645245    
0.0613918590    0.0190780390    0.0003626191    
0.0616145200    0.0191904780    0.0003663479    
0.0618371810    0.0196862050    0.0003674053    
0.0620598420    0.0196855910    0.0003677783    
0.0622825030    0.0198744020    0.0003751891    
0.0625051640    0.0197676180    0.0003689247    
0.0627278250    0.0196588640    0.0003671509    
0.0629504860    0.0186659330    0.0003548503    
0.0631731470    0.0202437990    0.0003741162    
0.0633958080    0.0198620420    0.0003727046    
0.0636184690    0.0189092790    0.0003687203    
0.0638411300    0.0192813710    0.0003709328    
0.0640637910    0.0192568470    0.0003733041    
0.0642864520    0.0194546070    0.0003744041    
0.0645091130    0.0198997160    0.0003819812    
0.0647317740    0.0193630940    0.0003772111    
0.0649544350    0.0197384520    0.0003804307    
0.0651770960    0.0191755740    0.0003729217    
0.0653997570    0.0194968750    0.0003752175    
0.0656224180    0.0192626480    0.0003737679    
0.0658450790    0.0201360840    0.0003766551    
0.0660677400    0.0201870490    0.0003787366    
0.0662904010    0.0191802780    0.0003735788    
0.0665130620    0.0198437660    0.0003783370    
0.0667357230    0.0200625170    0.0003871803    
0.0669583840    0.0199433370    0.0003847370    
0.0671810450    0.0193273380    0.0003766575    
0.0674037060    0.0192817630    0.0003825867    
0.0676263670    0.0202571810    0.0003892734    
0.0678490280    0.0192121250    0.0003767808    
0.0680716890    0.0196539910    0.0003819370    
0.0682943500    0.0196614530    0.0003778255    
0.0685170110    0.0195046440    0.0003724812    
0.0687396720    0.0191676470    0.0003682683    
0.0689623330    0.0198408330    0.0003734921    
0.0691849940    0.0196604930    0.0003743668    
0.0694076550    0.0193261920    0.0003709722    
0.0696303160    0.0199815660    0.0003742234    
0.0698529770    0.0195140380    0.0003690444    
0.0700756380    0.0197847950    0.0003668256    
0.0702982990    0.0197315510    0.0003703212    
0.0705209600    0.0200367840    0.0003704803    
0.0707436210    0.0192490930    0.0003614574    
0.0709662820    0.0189949040    0.0003633434    
0.0711889430    0.0199821970    0.0003680893    
0.0714116040    0.0197030290    0.0003662552    
0.0716342650    0.0199552910    0.0003670957    
0.0718569260    0.0193862470    0.0003603666    
0.0720795870    0.0188816030    0.0003570839    
0.0723022480    0.0190069300    0.0003588130    
0.0725249090    0.0195793300    0.0003598145    
0.0727475700    0.0194914990    0.0003620729    
0.0729702310    0.0202342470    0.0003659648    
0.0731928920    0.0190418930    0.0003564373    
0.0734155530    0.0201355690    0.0003657991    
0.0736382140    0.0194974520    0.0003576461    
0.0738608750    0.0197634780    0.0003624039    
0.0740835360    0.0191563110    0.0003559079    
0.0743061970    0.0194562060    0.0003536323    
0.0745288580    0.0194122700    0.0003568649    
0.0747515190    0.0196734420    0.0003599670    
0.0749741800    0.0198669000    0.0003583842    
0.0751968410    0.0195102750    0.0003579415    
0.0754195020    0.0193667050    0.0003545327    
0.0756421630    0.0193450600    0.0003514380    
0.0758648240    0.0193162910    0.0003520208    
0.0760874850    0.0193361990    0.0003520330    
0.0763101460    0.0192671270    0.0003510666    
0.0765328070    0.0201073700    0.0003623097    
0.0767554680    0.0197001720    0.0003561888    
0.0769781290    0.0197035940    0.0003541727    
0.0772007900    0.0198210620    0.0003523779    
0.0774234510    0.0193248780    0.0003499184    
0.0776461120    0.0196487040    0.0003525034    
0.0778687730    0.0192992180    0.0003482003    
0.0780914340    0.0200539320    0.0003574795    
0.0783140950    0.0190831830    0.0003431872    
0.0785367560    0.0205765260    0.0003621079    
0.0787594170    0.0196962440    0.0003511034    
0.0789820780    0.0190860620    0.0003438511    
0.0792047390    0.0189554190    0.0003437927    
0.0794274000    0.0195565680    0.0003506812    
0.0796500610    0.0193308340    0.0003452485    
0.0798727220    0.0195598170    0.0003469667    
0.0800953830    0.0192922880    0.0003437933    
0.0803180440    0.0186985250    0.0003408192    
0.0805407050    0.0197612680    0.0003500449    
0.0807633660    0.0196565190    0.0003487919    
0.0809860270    0.0192904500    0.0003442528    
0.0812086880    0.0196830140    0.0003447330    
0.0814313490    0.0192414820    0.0003423990    
0.0816540100    0.0194511640    0.0003434758    
0.0818766710    0.0189856340    0.0003401155    
0.0820993320    0.0195053610    0.0003441110    
0.0823219930    0.0197951300    0.0003480874    
0.0825446540    0.0194904350    0.0003428886    
0.0827673150    0.0199019550    0.0003441618    
0.0829899760    0.0193745210    0.0003389662    
0.0832126370    0.0190039590    0.0003372126    
0.0834352980    0.0194551920    0.0003404297    
0.0836579590    0.0188112190    0.0003340030    
0.0838806200    0.0195318580    0.0003414055    
0.0841032810    0.0194138800    0.0003382599    
0.0843259420    0.0194877880    0.0003378595    
0.0845486030    0.0192945210    0.0003361802    
0.0847712640    0.0197891410    0.0003383872    
0.0849939250    0.0198290900    0.0003393184    
0.0852165860    0.0195667030    0.0003375075    
0.0854392470    0.0195805660    0.0003344297    
0.0856619080    0.0201250900    0.0003415450    
0.0858845690    0.0197300540    0.0003351305    
0.0861072300    0.0191492460    0.0003324402    
0.0863298910    0.0191228720    0.0003339507    
0.0865525520    0.0197798890    0.0003367064    
0.0867752130    0.0198454550    0.0003345426    
0.0869978740    0.0191815180    0.0003297371    
0.0872205350    0.0199638610    0.0003359663    
0.0874431960    0.0195398500    0.0003323796    
0.0876658570    0.0194338040    0.0003327492    
0.0878885180    0.0190946000    0.0003303979    
0.0881111790    0.0194276800    0.0003328395    
0.0883338400    0.0194332140    0.0003280130    
0.0885565010    0.0190538120    0.0003291997    
0.0887791620    0.0198096040    0.0003313125    
0.0890018230    0.0195630490    0.0003324377    
0.0892244840    0.0201341070    0.0003378282    
0.0894471450    0.0192955220    0.0003293212    
0.0896698060    0.0188266910    0.0003240687    
0.0898924670    0.0198686690    0.0003344590    
0.0901151280    0.0199761570    0.0003317402    
0.0903377890    0.0190795390    0.0003269231    
0.0905604500    0.0190824340    0.0003254474    
0.0907831110    0.0195895980    0.0003289235    
0.0910057720    0.0195022650    0.0003296955    
0.0912284330    0.0195705530    0.0003255435    
0.0914510940    0.0190516200    0.0003247802    
0.0916737550    0.0199433280    0.0003314693    
0.0918964160    0.0190651910    0.0003254374    
0.0921190770    0.0194475170    0.0003257125    
0.0923417380    0.0197637550    0.0003284847    
0.0925643990    0.0194172290    0.0003247955    
0.0927870600    0.0195220350    0.0003270064    
0.0930097210    0.0197778460    0.0003263387    
0.0932323820    0.0191626400    0.0003235843    
