# Diamond Light Source Ltd.
# Data extracted from: /dls/b21/data/2018/cm19678-3/processed/b21-386631_00443.dat
q(1/A)          Column          Error           
0.0035000000    2.1021700000    0.0246904370    
0.0037226610    1.8817380000    0.0228682410    
0.0039453220    1.6325091000    0.0193770480    
0.0041679830    1.3122590000    0.0142670560    
0.0043906440    0.9513796000    0.0116194840    
0.0046133050    0.7733132000    0.0100566070    
0.0048359660    0.5903425300    0.0083113867    
0.0050586270    0.4572822100    0.0071899363    
0.0052812880    0.4171704900    0.0064929751    
0.0055039490    0.3790866100    0.0058852746    
0.0057266100    0.3095507700    0.0051449079    
0.0059492710    0.2752607800    0.0048515873    
0.0061719320    0.2158976600    0.0041404098    
0.0063945930    0.2003404400    0.0040367923    
0.0066172539    0.1887648100    0.0036794093    
0.0068399149    0.1677197400    0.0034136230    
0.0070625759    0.1482347500    0.0031762968    
0.0072852369    0.1277844100    0.0029049415    
0.0075078979    0.1138457800    0.0027284597    
0.0077305589    0.0975942700    0.0024780977    
0.0079532199    0.1020064300    0.0024983872    
0.0081758809    0.0853994940    0.0023072519    
0.0083985419    0.0859493760    0.0021588780    
0.0086212029    0.0739652790    0.0020027222    
0.0088438639    0.0697403760    0.0019290633    
0.0090665249    0.0673957710    0.0018315691    
0.0092891859    0.0653974840    0.0018831607    
0.0095118469    0.0646929540    0.0018012008    
0.0097345079    0.0561974120    0.0016304523    
0.0099571689    0.0538582770    0.0015632452    
0.0101798300    0.0477782440    0.0014723667    
0.0104024910    0.0484919650    0.0014783036    
0.0106251520    0.0468707920    0.0014583176    
0.0108478130    0.0461729270    0.0014095729    
0.0110704740    0.0398633930    0.0012469493    
0.0112931350    0.0417457500    0.0012797981    
0.0115157960    0.0409113360    0.0012595559    
0.0117384570    0.0385711160    0.0012124726    
0.0119611180    0.0385628000    0.0012158208    
0.0121837790    0.0383149230    0.0011915374    
0.0124064400    0.0355615130    0.0011000745    
0.0126291010    0.0341791520    0.0010649830    
0.0128517620    0.0334829670    0.0010567131    
0.0130744230    0.0328238680    0.0010385012    
0.0132970840    0.0321782810    0.0010232098    
0.0135197450    0.0325593170    0.0010145108    
0.0137424060    0.0311365390    0.0009782855    
0.0139650670    0.0307345290    0.0009503000    
0.0141877280    0.0297785510    0.0009374713    
0.0144103890    0.0297296230    0.0009205497    
0.0146330500    0.0280868640    0.0008890741    
0.0148557110    0.0289402330    0.0008986957    
0.0150783720    0.0269816520    0.0008605810    
0.0153010330    0.0287874270    0.0008763793    
0.0155236940    0.0274970000    0.0008514186    
0.0157463550    0.0256614320    0.0008082591    
0.0159690160    0.0255680940    0.0008037261    
0.0161916770    0.0254556870    0.0007974395    
0.0164143380    0.0257667700    0.0008083755    
0.0166369990    0.0249884660    0.0007715283    
0.0168596600    0.0246202900    0.0007590761    
0.0170823210    0.0261277940    0.0007751997    
0.0173049820    0.0243949360    0.0007503471    
0.0175276430    0.0252892500    0.0007720334    
0.0177503040    0.0234567490    0.0007245814    
0.0179729650    0.0241785890    0.0007283501    
0.0181956260    0.0231971000    0.0006997370    
0.0184182870    0.0242962180    0.0007127474    
0.0186409480    0.0232707570    0.0007019589    
0.0188636090    0.0247771410    0.0007197671    
0.0190862700    0.0226361990    0.0006868922    
0.0193089310    0.0234799530    0.0006984865    
0.0195315920    0.0226662680    0.0006629378    
0.0197542530    0.0223239930    0.0006588718    
0.0199769140    0.0227518130    0.0006651553    
0.0201995750    0.0230999810    0.0006597302    
0.0204222360    0.0231341000    0.0006658846    
0.0206448970    0.0226363730    0.0006540010    
0.0208675580    0.0218405780    0.0006291738    
0.0210902190    0.0223195170    0.0006421719    
0.0213128800    0.0220055750    0.0006289875    
0.0215355410    0.0218003460    0.0006185896    
0.0217582020    0.0219934330    0.0006213231    
0.0219808630    0.0211304140    0.0006082112    
0.0222035240    0.0212477350    0.0006043707    
0.0224261850    0.0213777830    0.0006008220    
0.0226488460    0.0208084230    0.0005883158    
0.0228715070    0.0208541220    0.0005874983    
0.0230941680    0.0207217230    0.0005856305    
0.0233168290    0.0219062560    0.0006036362    
0.0235394900    0.0208885410    0.0005829423    
0.0237621510    0.0210421410    0.0005693307    
0.0239848120    0.0216930140    0.0005787376    
0.0242074730    0.0213623140    0.0005697124    
0.0244301340    0.0206801340    0.0005611817    
0.0246527950    0.0200411180    0.0005575588    
0.0248754560    0.0211217750    0.0005595295    
0.0250981170    0.0211863010    0.0005616331    
0.0253207780    0.0217196690    0.0005516801    
0.0255434390    0.0203107110    0.0005391802    
0.0257661000    0.0208168830    0.0005476231    
0.0259887610    0.0210254620    0.0005445111    
0.0262114220    0.0207797790    0.0005442045    
0.0264340830    0.0212998030    0.0005434755    
0.0266567440    0.0199827840    0.0005231525    
0.0268794050    0.0211377120    0.0005358623    
0.0271020660    0.0216271810    0.0005398367    
0.0273247270    0.0205161180    0.0005226294    
0.0275473880    0.0213097510    0.0005315822    
0.0277700490    0.0202854140    0.0005155828    
0.0279927100    0.0213880310    0.0005247905    
0.0282153710    0.0198672210    0.0005082477    
0.0284380320    0.0204343640    0.0005124631    
0.0286606930    0.0205029420    0.0005089287    
0.0288833540    0.0208218450    0.0005138456    
0.0291060150    0.0214531520    0.0005210822    
0.0293286760    0.0200472150    0.0004966993    
0.0295513370    0.0209614580    0.0005023682    
0.0297739980    0.0201456880    0.0004979179    
0.0299966590    0.0202956800    0.0004912322    
0.0302193200    0.0197655630    0.0004918390    
0.0304419810    0.0207842290    0.0005052819    
0.0306646420    0.0195347510    0.0004760328    
0.0308873030    0.0202748750    0.0004828720    
0.0311099640    0.0207849020    0.0004901772    
0.0313326250    0.0204060780    0.0004803092    
0.0315552860    0.0197203980    0.0004782899    
0.0317779470    0.0191388810    0.0004715956    
0.0320006080    0.0205542480    0.0004776185    
0.0322232690    0.0196075430    0.0004684423    
0.0324459300    0.0200766000    0.0004704735    
0.0326685910    0.0209005470    0.0004792393    
0.0328912520    0.0199330410    0.0004695655    
0.0331139130    0.0205923720    0.0004710598    
0.0333365740    0.0204660190    0.0004711372    
0.0335592350    0.0207764600    0.0004701327    
0.0337818960    0.0194475910    0.0004544872    
0.0340045570    0.0192164630    0.0004510609    
0.0342272170    0.0194538200    0.0004520478    
0.0344498780    0.0198199790    0.0004580894    
0.0346725390    0.0198065870    0.0004494538    
0.0348952000    0.0200307940    0.0004499314    
0.0351178610    0.0198270100    0.0004496857    
0.0353405220    0.0202733710    0.0004526479    
0.0355631830    0.0202714090    0.0004509213    
0.0357858440    0.0199504490    0.0004473375    
0.0360085050    0.0201519190    0.0004509490    
0.0362311660    0.0197347830    0.0004409526    
0.0364538270    0.0207281060    0.0004482866    
0.0366764880    0.0200978120    0.0004410980    
0.0368991490    0.0198477730    0.0004361358    
0.0371218100    0.0204299810    0.0004412204    
0.0373444710    0.0199912470    0.0004412101    
0.0375671320    0.0193505070    0.0004334497    
0.0377897930    0.0200476010    0.0004297669    
0.0380124540    0.0203839230    0.0004360759    
0.0382351150    0.0197775500    0.0004295409    
0.0384577760    0.0198277920    0.0004259365    
0.0386804370    0.0196856510    0.0004276459    
0.0389030980    0.0200016670    0.0004278003    
0.0391257590    0.0203809000    0.0004289053    
0.0393484200    0.0197687780    0.0004209936    
0.0395710810    0.0197052120    0.0004208825    
0.0397937420    0.0201007690    0.0004250860    
0.0400164030    0.0202918370    0.0004288390    
0.0402390640    0.0203108880    0.0004233273    
0.0404617250    0.0198626860    0.0004161608    
0.0406843860    0.0196517600    0.0004099458    
0.0409070470    0.0206570220    0.0004246786    
0.0411297080    0.0195143240    0.0004087722    
0.0413523690    0.0194257070    0.0004088943    
0.0415750300    0.0199934810    0.0004183506    
0.0417976910    0.0199611630    0.0004072011    
0.0420203520    0.0194586440    0.0004035535    
0.0422430130    0.0194460360    0.0004049500    
0.0424656740    0.0201589130    0.0004069395    
0.0426883350    0.0198202450    0.0004055094    
0.0429109960    0.0193348600    0.0004017647    
0.0431336570    0.0196783870    0.0003996075    
0.0433563180    0.0202174940    0.0004085385    
0.0435789790    0.0195472380    0.0003953983    
0.0438016400    0.0198413490    0.0004005289    
0.0440243010    0.0202567400    0.0004005938    
0.0442469620    0.0196984970    0.0003974024    
0.0444696230    0.0201783450    0.0004007713    
0.0446922840    0.0200270280    0.0003980801    
0.0449149450    0.0196954150    0.0003894931    
0.0451376060    0.0199796590    0.0003971385    
0.0453602670    0.0199648750    0.0003928298    
0.0455829280    0.0201809200    0.0003944928    
0.0458055890    0.0194105550    0.0003891462    
0.0460282500    0.0192879080    0.0003832371    
0.0462509110    0.0200714780    0.0003885126    
0.0464735720    0.0191003580    0.0003792113    
0.0466962330    0.0195707050    0.0003855969    
0.0469188940    0.0200566920    0.0003892486    
0.0471415550    0.0194695030    0.0003854780    
0.0473642160    0.0197813830    0.0003831127    
0.0475868770    0.0198277580    0.0003816561    
0.0478095380    0.0202153340    0.0003836818    
0.0480321990    0.0194555770    0.0003772274    
0.0482548600    0.0190108940    0.0003712669    
0.0484775210    0.0188282480    0.0003731477    
0.0487001820    0.0197386500    0.0003764697    
0.0489228430    0.0194735750    0.0003737324    
0.0491455040    0.0198276200    0.0003745062    
0.0493681650    0.0195150430    0.0003747354    
0.0495908260    0.0195316280    0.0003685869    
0.0498134870    0.0199903230    0.0003764396    
0.0500361480    0.0192148090    0.0003680890    
0.0502588090    0.0192864170    0.0003632487    
0.0504814700    0.0188671180    0.0003639751    
0.0507041310    0.0194906310    0.0003655422    
0.0509267920    0.0197490040    0.0003694793    
0.0511494530    0.0199434910    0.0003688183    
0.0513721140    0.0196299450    0.0003691300    
0.0515947750    0.0196197440    0.0003641412    
0.0518174360    0.0197847250    0.0003634663    
0.0520400970    0.0195047270    0.0003583830    
0.0522627580    0.0194358140    0.0003607896    
0.0524854190    0.0199233200    0.0003682564    
0.0527080800    0.0197975370    0.0003699344    
0.0529307410    0.0200955770    0.0003744590    
0.0531534020    0.0205244560    0.0003770560    
0.0533760630    0.0198864160    0.0003723108    
0.0535987240    0.0195492390    0.0003674176    
0.0538213850    0.0197433990    0.0003735156    
0.0540440460    0.0198999460    0.0003732188    
0.0542667070    0.0198274520    0.0003751057    
0.0544893680    0.0196070510    0.0003732138    
0.0547120290    0.0190590460    0.0003654405    
0.0549346900    0.0197665140    0.0003723571    
0.0551573510    0.0194806810    0.0003740066    
0.0553800120    0.0203720620    0.0003792161    
0.0556026730    0.0196811160    0.0003804580    
0.0558253340    0.0192268680    0.0003791906    
0.0560479950    0.0192418440    0.0003793384    
0.0562706560    0.0197376840    0.0003879093    
0.0564933170    0.0199656160    0.0003935305    
0.0567159780    0.0190581340    0.0003798733    
0.0569386390    0.0193326250    0.0003886004    
0.0571613000    0.0199823030    0.0003865693    
0.0573839610    0.0203799740    0.0003871554    
0.0576066220    0.0193022890    0.0003778231    
0.0578292830    0.0194245460    0.0003777636    
0.0580519440    0.0195236520    0.0003801946    
0.0582746050    0.0197554690    0.0003807587    
0.0584972660    0.0193059360    0.0003749609    
0.0587199270    0.0194970210    0.0003735637    
0.0589425880    0.0199345680    0.0003755228    
0.0591652490    0.0190890840    0.0003696354    
0.0593879100    0.0191591810    0.0003675633    
0.0596105710    0.0196465360    0.0003718162    
0.0598332320    0.0195901720    0.0003744561    
0.0600558930    0.0197227590    0.0003733256    
0.0602785540    0.0193143980    0.0003690500    
0.0605012150    0.0201670130    0.0003763131    
0.0607238760    0.0194866340    0.0003672151    
0.0609465370    0.0197173410    0.0003722905    
0.0611691980    0.0195330830    0.0003711341    
0.0613918590    0.0194607350    0.0003664019    
0.0616145200    0.0195786470    0.0003702000    
0.0618371810    0.0197381390    0.0003680542    
0.0620598420    0.0196138050    0.0003672714    
0.0622825030    0.0194384830    0.0003712177    
0.0625051640    0.0195027610    0.0003666088    
0.0627278250    0.0201019690    0.0003714317    
0.0629504860    0.0187839170    0.0003561292    
0.0631731470    0.0188779060    0.0003614362    
0.0633958080    0.0197398200    0.0003717223    
0.0636184690    0.0192644270    0.0003723333    
0.0638411300    0.0197557370    0.0003756359    
0.0640637910    0.0192740810    0.0003736382    
0.0642864520    0.0198686700    0.0003785367    
0.0645091130    0.0196973610    0.0003802041    
0.0647317740    0.0192553880    0.0003763288    
0.0649544350    0.0195212750    0.0003785013    
0.0651770960    0.0197807120    0.0003789297    
0.0653997570    0.0193480900    0.0003739503    
0.0656224180    0.0195266930    0.0003764892    
0.0658450790    0.0196040630    0.0003718123    
0.0660677400    0.0195294780    0.0003726837    
0.0662904010    0.0191027670    0.0003729900    
0.0665130620    0.0199553820    0.0003795692    
0.0667357230    0.0194298200    0.0003811968    
0.0669583840    0.0203400540    0.0003887187    
0.0671810450    0.0199985170    0.0003833132    
0.0674037060    0.0195725490    0.0003856332    
0.0676263670    0.0193169500    0.0003803021    
0.0678490280    0.0200206790    0.0003847997    
0.0680716890    0.0195304320    0.0003809049    
0.0682943500    0.0197880540    0.0003792096    
0.0685170110    0.0198353640    0.0003757938    
0.0687396720    0.0192697830    0.0003694133    
0.0689623330    0.0197248860    0.0003725658    
0.0691849940    0.0187933600    0.0003661816    
0.0694076550    0.0196784710    0.0003745055    
0.0696303160    0.0194242280    0.0003691325    
0.0698529770    0.0191961980    0.0003661903    
0.0700756380    0.0187337510    0.0003571088    
0.0702982990    0.0199300760    0.0003723460    
0.0705209600    0.0200067220    0.0003703679    
0.0707436210    0.0198641470    0.0003673510    
0.0709662820    0.0196379820    0.0003696080    
0.0711889430    0.0195928850    0.0003646490    
0.0714116040    0.0206814830    0.0003754070    
0.0716342650    0.0189254890    0.0003576581    
0.0718569260    0.0196181490    0.0003626777    
0.0720795870    0.0200272740    0.0003679222    
0.0723022480    0.0194781820    0.0003633964    
0.0725249090    0.0198946770    0.0003628628    
0.0727475700    0.0195426020    0.0003627095    
0.0729702310    0.0196958630    0.0003612248    
0.0731928920    0.0191991720    0.0003580664    
0.0734155530    0.0202068000    0.0003666094    
0.0736382140    0.0195083360    0.0003579059    
0.0738608750    0.0194086890    0.0003592970    
0.0740835360    0.0188888640    0.0003535728    
0.0743061970    0.0192420190    0.0003518378    
0.0745288580    0.0191275940    0.0003543971    
0.0747515190    0.0194075820    0.0003576865    
0.0749741800    0.0198264430    0.0003581793    
0.0751968410    0.0196460460    0.0003593455    
0.0754195020    0.0186954630    0.0003484904    
0.0756421630    0.0201547600    0.0003588780    
0.0758648240    0.0198215730    0.0003567548    
0.0760874850    0.0202130890    0.0003600879    
0.0763101460    0.0194188230    0.0003526036    
0.0765328070    0.0194980820    0.0003569378    
0.0767554680    0.0196017770    0.0003554571    
0.0769781290    0.0197212280    0.0003544897    
0.0772007900    0.0192431360    0.0003473581    
0.0774234510    0.0194372990    0.0003510918    
0.0776461120    0.0192801790    0.0003493382    
0.0778687730    0.0195554300    0.0003506608    
0.0780914340    0.0196062780    0.0003536252    
0.0783140950    0.0196438650    0.0003483481    
0.0785367560    0.0197976760    0.0003553476    
0.0787594170    0.0202526050    0.0003561870    
0.0789820780    0.0197665760    0.0003500840    
0.0792047390    0.0194092480    0.0003480395    
0.0794274000    0.0195866580    0.0003511079    
0.0796500610    0.0192123570    0.0003443429    
0.0798727220    0.0197682900    0.0003489669    
0.0800953830    0.0185369270    0.0003371465    
0.0803180440    0.0196976560    0.0003499629    
0.0805407050    0.0199775500    0.0003521127    
0.0807633660    0.0193396010    0.0003461235    
0.0809860270    0.0194798850    0.0003460938    
0.0812086880    0.0203714180    0.0003508665    
0.0814313490    0.0198075560    0.0003475545    
0.0816540100    0.0188129420    0.0003379449    
0.0818766710    0.0190453140    0.0003408020    
0.0820993320    0.0195349690    0.0003445262    
0.0823219930    0.0194942720    0.0003455866    
0.0825446540    0.0194897650    0.0003430361    
0.0827673150    0.0200210330    0.0003453443    
0.0829899760    0.0195758660    0.0003408754    
0.0832126370    0.0191527240    0.0003386814    
0.0834352980    0.0195322260    0.0003412556    
0.0836579590    0.0197421530    0.0003423209    
0.0838806200    0.0198300640    0.0003441558    
0.0841032810    0.0196436180    0.0003404077    
0.0843259420    0.0190186240    0.0003339171    
0.0845486030    0.0192883380    0.0003362768    
0.0847712640    0.0193493250    0.0003347554    
0.0849939250    0.0198642720    0.0003397712    
0.0852165860    0.0198813870    0.0003403628    
0.0854392470    0.0196152410    0.0003348754    
0.0856619080    0.0189189670    0.0003313004    
0.0858845690    0.0196337610    0.0003344613    
0.0861072300    0.0199346570    0.0003393409    
0.0863298910    0.0196945150    0.0003390570    
0.0865525520    0.0198721690    0.0003376419    
0.0867752130    0.0195696980    0.0003323588    
0.0869978740    0.0194369670    0.0003320740    
0.0872205350    0.0195063760    0.0003322431    
0.0874431960    0.0189914420    0.0003278287    
0.0876658570    0.0194511970    0.0003330470    
0.0878885180    0.0191860750    0.0003313366    
0.0881111790    0.0192110640    0.0003311268    
0.0883338400    0.0189684970    0.0003242123    
0.0885565010    0.0196401440    0.0003343760    
0.0887791620    0.0193947360    0.0003279715    
0.0890018230    0.0188737800    0.0003266749    
0.0892244840    0.0185919250    0.0003247777    
0.0894471450    0.0195265650    0.0003314351    
0.0896698060    0.0201835250    0.0003356935    
0.0898924670    0.0192045970    0.0003289693    
0.0901151280    0.0191558950    0.0003250031    
0.0903377890    0.0193208850    0.0003291314    
0.0905604500    0.0187050770    0.0003223576    
0.0907831110    0.0197342690    0.0003302835    
0.0910057720    0.0195866630    0.0003305560    
0.0912284330    0.0196802080    0.0003266003    
0.0914510940    0.0194233330    0.0003280800    
0.0916737550    0.0191561120    0.0003250068    
0.0918964160    0.0191878950    0.0003266291    
0.0921190770    0.0190881810    0.0003228337    
0.0923417380    0.0196885460    0.0003280058    
0.0925643990    0.0190158980    0.0003215652    
0.0927870600    0.0192927960    0.0003252262    
0.0930097210    0.0190895240    0.0003207531    
0.0932323820    0.0193438610    0.0003252562    
