# Diamond Light Source Ltd.
# Data extracted from: /dls/b21/data/2018/cm19678-3/processed/b21-386631_00434.dat
q(1/A)          Column          Error           
0.0035000000    2.0871081000    0.0245916820    
0.0037226610    1.8521407000    0.0226783290    
0.0039453220    1.5888789000    0.0191084780    
0.0041679830    1.2976933000    0.0141818060    
0.0043906440    0.9626478100    0.0116832730    
0.0046133050    0.7883565200    0.0101497650    
0.0048359660    0.6087966800    0.0084368142    
0.0050586270    0.4545331300    0.0071653360    
0.0052812880    0.4282367700    0.0065758186    
0.0055039490    0.3888162800    0.0059578645    
0.0057266100    0.3247603300    0.0052676152    
0.0059492710    0.2681985800    0.0047869712    
0.0061719320    0.2235741100    0.0042116378    
0.0063945930    0.1967618000    0.0039989262    
0.0066172539    0.1814431800    0.0036058595    
0.0068399149    0.1718161200    0.0034536341    
0.0070625759    0.1467524500    0.0031590729    
0.0072852369    0.1271511800    0.0028965401    
0.0075078979    0.1138825900    0.0027277756    
0.0077305589    0.0974509350    0.0024752562    
0.0079532199    0.0969698940    0.0024349235    
0.0081758809    0.0928031650    0.0024041948    
0.0083985419    0.0832777760    0.0021241843    
0.0086212029    0.0773719470    0.0020474788    
0.0088438639    0.0733083060    0.0019769780    
0.0090665249    0.0664449880    0.0018178540    
0.0092891859    0.0637181050    0.0018580577    
0.0095118469    0.0613825820    0.0017537881    
0.0097345079    0.0560565490    0.0016277362    
0.0099571689    0.0537232000    0.0015606399    
0.0101798300    0.0505950230    0.0015145224    
0.0104024910    0.0467858850    0.0014514667    
0.0106251520    0.0466961400    0.0014549979    
0.0108478130    0.0454039250    0.0013972092    
0.0110704740    0.0444293550    0.0013158839    
0.0112931350    0.0433578320    0.0013037370    
0.0115157960    0.0395214770    0.0012374654    
0.0117384570    0.0381584920    0.0012054726    
0.0119611180    0.0389140180    0.0012208413    
0.0121837790    0.0373577210    0.0011760744    
0.0124064400    0.0374363120    0.0011282345    
0.0126291010    0.0329905020    0.0010458692    
0.0128517620    0.0342550910    0.0010683869    
0.0130744230    0.0340771620    0.0010577055    
0.0132970840    0.0318266580    0.0010171844    
0.0135197450    0.0319323590    0.0010042814    
0.0137424060    0.0325236020    0.0009994260    
0.0139650670    0.0307972650    0.0009508771    
0.0141877280    0.0300488860    0.0009413287    
0.0144103890    0.0295627100    0.0009175834    
0.0146330500    0.0282324270    0.0008910075    
0.0148557110    0.0282750260    0.0008879409    
0.0150783720    0.0296196940    0.0009012986    
0.0153010330    0.0275640940    0.0008572026    
0.0155236940    0.0274743300    0.0008507167    
0.0157463550    0.0273954130    0.0008347761    
0.0159690160    0.0260266520    0.0008105671    
0.0161916770    0.0265329590    0.0008138026    
0.0164143380    0.0256695060    0.0008065156    
0.0166369990    0.0262293480    0.0007901266    
0.0168596600    0.0266110170    0.0007888426    
0.0170823210    0.0254168270    0.0007642646    
0.0173049820    0.0252741780    0.0007634345    
0.0175276430    0.0237847940    0.0007484085    
0.0177503040    0.0233032260    0.0007219086    
0.0179729650    0.0226021530    0.0007039154    
0.0181956260    0.0237052260    0.0007070676    
0.0184182870    0.0240881610    0.0007093964    
0.0186409480    0.0231881000    0.0007004222    
0.0188636090    0.0228555640    0.0006910083    
0.0190862700    0.0247626620    0.0007181355    
0.0193089310    0.0239381110    0.0007049774    
0.0195315920    0.0240230970    0.0006822101    
0.0197542530    0.0245206020    0.0006902421    
0.0199769140    0.0223833150    0.0006594747    
0.0201995750    0.0219701900    0.0006431294    
0.0204222360    0.0221957880    0.0006519718    
0.0206448970    0.0226932280    0.0006545519    
0.0208675580    0.0225469720    0.0006390039    
0.0210902190    0.0222826540    0.0006413768    
0.0213128800    0.0216820510    0.0006240893    
0.0215355410    0.0214140710    0.0006128320    
0.0217582020    0.0212913130    0.0006110730    
0.0219808630    0.0225298550    0.0006277699    
0.0222035240    0.0203885660    0.0005917814    
0.0224261850    0.0212251810    0.0005984269    
0.0226488460    0.0211735210    0.0005932099    
0.0228715070    0.0195800980    0.0005690350    
0.0230941680    0.0225568110    0.0006107599    
0.0233168290    0.0207912930    0.0005878315    
0.0235394900    0.0218466150    0.0005959153    
0.0237621510    0.0207169630    0.0005646815    
0.0239848120    0.0213974400    0.0005745444    
0.0242074730    0.0223314770    0.0005822522    
0.0244301340    0.0215151700    0.0005721634    
0.0246527950    0.0204275660    0.0005626767    
0.0248754560    0.0210155000    0.0005578899    
0.0250981170    0.0215853670    0.0005666641    
0.0253207780    0.0213097300    0.0005462238    
0.0255434390    0.0198792200    0.0005332022    
0.0257661000    0.0202959210    0.0005405044    
0.0259887610    0.0208249580    0.0005416851    
0.0262114220    0.0212610640    0.0005502437    
0.0264340830    0.0209774190    0.0005391245    
0.0266567440    0.0204726510    0.0005293078    
0.0268794050    0.0215003410    0.0005402164    
0.0271020660    0.0209765530    0.0005314353    
0.0273247270    0.0207519520    0.0005254080    
0.0275473880    0.0202984590    0.0005186014    
0.0277700490    0.0205698400    0.0005189707    
0.0279927100    0.0208686240    0.0005181654    
0.0282153710    0.0216436530    0.0005302651    
0.0284380320    0.0204175170    0.0005120406    
0.0286606930    0.0212307550    0.0005176693    
0.0288833540    0.0201204800    0.0005049090    
0.0291060150    0.0194879360    0.0004964374    
0.0293286760    0.0203872800    0.0005006878    
0.0295513370    0.0202825270    0.0004939617    
0.0297739980    0.0199815230    0.0004956806    
0.0299966590    0.0206234630    0.0004949789    
0.0302193200    0.0194802370    0.0004880748    
0.0304419810    0.0198220190    0.0004932438    
0.0306646420    0.0203879430    0.0004861166    
0.0308873030    0.0208441870    0.0004894027    
0.0311099640    0.0203634990    0.0004849827    
0.0313326250    0.0203666620    0.0004796473    
0.0315552860    0.0204459420    0.0004868081    
0.0317779470    0.0204583520    0.0004873800    
0.0320006080    0.0209586940    0.0004820958    
0.0322232690    0.0205083250    0.0004788842    
0.0324459300    0.0203574780    0.0004735578    
0.0326685910    0.0197853490    0.0004660863    
0.0328912520    0.0202481820    0.0004730677    
0.0331139130    0.0209307000    0.0004747179    
0.0333365740    0.0198422820    0.0004637111    
0.0335592350    0.0199514920    0.0004605144    
0.0337818960    0.0195801330    0.0004558453    
0.0340045570    0.0202902420    0.0004633007    
0.0342272170    0.0199520640    0.0004576113    
0.0344498780    0.0203960550    0.0004645074    
0.0346725390    0.0193112960    0.0004436156    
0.0348952000    0.0203475140    0.0004532876    
0.0351178610    0.0195049430    0.0004458346    
0.0353405220    0.0202162650    0.0004518236    
0.0355631830    0.0201544740    0.0004494335    
0.0357858440    0.0196433590    0.0004436982    
0.0360085050    0.0205789470    0.0004555139    
0.0362311660    0.0194133340    0.0004371663    
0.0364538270    0.0194226330    0.0004337614    
0.0366764880    0.0194041290    0.0004332401    
0.0368991490    0.0195058340    0.0004321843    
0.0371218100    0.0203274480    0.0004399303    
0.0373444710    0.0203834060    0.0004453329    
0.0375671320    0.0209837630    0.0004511855    
0.0377897930    0.0194695390    0.0004233509    
0.0380124540    0.0200408710    0.0004322125    
0.0382351150    0.0197798870    0.0004293892    
0.0384577760    0.0198754410    0.0004262722    
0.0386804370    0.0197343980    0.0004279985    
0.0389030980    0.0194092080    0.0004212431    
0.0391257590    0.0195163450    0.0004195366    
0.0393484200    0.0201735070    0.0004251060    
0.0395710810    0.0196171090    0.0004197674    
0.0397937420    0.0191590300    0.0004148376    
0.0400164030    0.0198947790    0.0004244476    
0.0402390640    0.0200649300    0.0004205828    
0.0404617250    0.0202906310    0.0004204466    
0.0406843860    0.0203020380    0.0004165014    
0.0409070470    0.0202997720    0.0004208167    
0.0411297080    0.0200885730    0.0004145721    
0.0413523690    0.0198482790    0.0004131473    
0.0415750300    0.0199857440    0.0004180971    
0.0417976910    0.0197123070    0.0004044880    
0.0420203520    0.0201283180    0.0004102697    
0.0422430130    0.0200956450    0.0004114886    
0.0424656740    0.0205526900    0.0004107253    
0.0426883350    0.0189832310    0.0003966910    
0.0429109960    0.0194356990    0.0004026449    
0.0431336570    0.0189486490    0.0003919665    
0.0433563180    0.0190790160    0.0003967054    
0.0435789790    0.0191635150    0.0003913367    
0.0438016400    0.0193968220    0.0003958535    
0.0440243010    0.0197017820    0.0003949054    
0.0442469620    0.0200507480    0.0004007746    
0.0444696230    0.0195811150    0.0003946330    
0.0446922840    0.0190696830    0.0003882888    
0.0449149450    0.0193636320    0.0003860393    
0.0451376060    0.0199631870    0.0003968111    
0.0453602670    0.0199715840    0.0003927338    
0.0455829280    0.0197944360    0.0003905360    
0.0458055890    0.0200961230    0.0003957955    
0.0460282500    0.0192415720    0.0003826186    
0.0462509110    0.0195965740    0.0003837305    
0.0464735720    0.0196713660    0.0003846792    
0.0466962330    0.0194558860    0.0003843056    
0.0469188940    0.0197231360    0.0003858391    
0.0471415550    0.0198652450    0.0003892154    
0.0473642160    0.0204471400    0.0003893457    
0.0475868770    0.0196205630    0.0003795002    
0.0478095380    0.0194928780    0.0003766081    
0.0480321990    0.0197391680    0.0003798102    
0.0482548600    0.0187054380    0.0003681203    
0.0484775210    0.0195368600    0.0003799479    
0.0487001820    0.0189331940    0.0003685566    
0.0489228430    0.0198445200    0.0003771196    
0.0491455040    0.0199809020    0.0003757960    
0.0493681650    0.0202323210    0.0003814026    
0.0495908260    0.0196128250    0.0003692000    
0.0498134870    0.0198038520    0.0003745252    
0.0500361480    0.0200232900    0.0003755981    
0.0502588090    0.0201865320    0.0003714753    
0.0504814700    0.0196934630    0.0003717071    
0.0507041310    0.0195704620    0.0003661390    
0.0509267920    0.0195600520    0.0003675559    
0.0511494530    0.0190888040    0.0003606801    
0.0513721140    0.0199397320    0.0003718779    
0.0515947750    0.0197521310    0.0003652170    
0.0518174360    0.0203021540    0.0003680367    
0.0520400970    0.0198505210    0.0003613968    
0.0522627580    0.0197878430    0.0003638922    
0.0524854190    0.0187234980    0.0003568485    
0.0527080800    0.0196361710    0.0003682717    
0.0529307410    0.0190401990    0.0003643432    
0.0531534020    0.0194970380    0.0003673459    
0.0533760630    0.0200441360    0.0003736302    
0.0535987240    0.0198988060    0.0003705351    
0.0538213850    0.0199036350    0.0003748736    
0.0540440460    0.0194359320    0.0003686898    
0.0542667070    0.0195700250    0.0003725091    
0.0544893680    0.0197612400    0.0003745239    
0.0547120290    0.0193233810    0.0003678143    
0.0549346900    0.0191544870    0.0003663960    
0.0551573510    0.0194215720    0.0003732848    
0.0553800120    0.0202071510    0.0003775224    
0.0556026730    0.0193782940    0.0003773640    
0.0558253340    0.0203094290    0.0003895588    
0.0560479950    0.0191363130    0.0003781407    
0.0562706560    0.0201479850    0.0003917588    
0.0564933170    0.0198716530    0.0003924415    
0.0567159780    0.0193450420    0.0003825642    
0.0569386390    0.0197615560    0.0003927257    
0.0571613000    0.0194950770    0.0003816699    
0.0573839610    0.0201427110    0.0003847365    
0.0576066220    0.0187838940    0.0003725614    
0.0578292830    0.0192029950    0.0003754483    
0.0580519440    0.0192560360    0.0003774243    
0.0582746050    0.0200838100    0.0003837515    
0.0584972660    0.0191444890    0.0003732358    
0.0587199270    0.0197097970    0.0003754417    
0.0589425880    0.0189922010    0.0003663882    
0.0591652490    0.0197670520    0.0003759871    
0.0593879100    0.0187065470    0.0003630457    
0.0596105710    0.0192998840    0.0003683694    
0.0598332320    0.0188159470    0.0003668307    
0.0600558930    0.0189863040    0.0003661382    
0.0602785540    0.0197634980    0.0003731620    
0.0605012150    0.0197785300    0.0003725173    
0.0607238760    0.0194290830    0.0003665212    
0.0609465370    0.0198696500    0.0003735715    
0.0611691980    0.0194887950    0.0003705603    
0.0613918590    0.0193757620    0.0003654503    
0.0616145200    0.0191498530    0.0003659727    
0.0618371810    0.0196395770    0.0003669827    
0.0620598420    0.0201679720    0.0003722701    
0.0622825030    0.0189903740    0.0003667627    
0.0625051640    0.0195004530    0.0003664360    
0.0627278250    0.0199482470    0.0003698562    
0.0629504860    0.0191327350    0.0003592725    
0.0631731470    0.0208675020    0.0003798489    
0.0633958080    0.0189401980    0.0003639655    
0.0636184690    0.0197374870    0.0003767217    
0.0638411300    0.0192398970    0.0003705466    
0.0640637910    0.0192437160    0.0003731898    
0.0642864520    0.0186993430    0.0003670774    
0.0645091130    0.0194978030    0.0003781173    
0.0647317740    0.0188720660    0.0003724105    
0.0649544350    0.0195785080    0.0003788995    
0.0651770960    0.0195105490    0.0003761780    
0.0653997570    0.0193465820    0.0003737816    
0.0656224180    0.0196556540    0.0003775747    
0.0658450790    0.0196301760    0.0003719064    
0.0660677400    0.0192717690    0.0003700639    
0.0662904010    0.0196691610    0.0003783231    
0.0665130620    0.0196864470    0.0003768474    
0.0667357230    0.0191074250    0.0003778651    
0.0669583840    0.0193509140    0.0003789928    
0.0671810450    0.0191157990    0.0003746036    
0.0674037060    0.0186757660    0.0003765398    
0.0676263670    0.0193907960    0.0003808712    
0.0678490280    0.0193612610    0.0003782535    
0.0680716890    0.0202640250    0.0003878327    
0.0682943500    0.0197790010    0.0003789665    
0.0685170110    0.0196198250    0.0003735924    
0.0687396720    0.0198058270    0.0003743618    
0.0689623330    0.0198914360    0.0003739811    
0.0691849940    0.0190416390    0.0003684405    
0.0694076550    0.0203031750    0.0003802466    
0.0696303160    0.0194923220    0.0003696265    
0.0698529770    0.0197945900    0.0003717007    
0.0700756380    0.0195141060    0.0003643203    
0.0702982990    0.0194131970    0.0003673344    
0.0705209600    0.0193188620    0.0003637952    
0.0707436210    0.0198817090    0.0003673618    
0.0709662820    0.0195870380    0.0003689761    
0.0711889430    0.0193326160    0.0003620696    
0.0714116040    0.0194116300    0.0003635494    
0.0716342650    0.0191867800    0.0003599701    
0.0718569260    0.0193407040    0.0003599556    
0.0720795870    0.0196393170    0.0003641910    
0.0723022480    0.0196247030    0.0003646102    
0.0725249090    0.0194021490    0.0003581952    
0.0727475700    0.0189749330    0.0003572553    
0.0729702310    0.0199377830    0.0003632866    
0.0731928920    0.0195836910    0.0003614852    
0.0734155530    0.0198312630    0.0003630371    
0.0736382140    0.0194200820    0.0003569482    
0.0738608750    0.0193926870    0.0003590007    
0.0740835360    0.0193031310    0.0003572816    
0.0743061970    0.0203124870    0.0003613429    
0.0745288580    0.0194464280    0.0003571912    
0.0747515190    0.0200041550    0.0003629926    
0.0749741800    0.0193187240    0.0003534176    
0.0751968410    0.0199516500    0.0003619803    
0.0754195020    0.0193226220    0.0003541413    
0.0756421630    0.0199019010    0.0003564726    
0.0758648240    0.0191893250    0.0003508743    
0.0760874850    0.0185812230    0.0003451041    
0.0763101460    0.0190893490    0.0003494554    
0.0765328070    0.0190315170    0.0003524959    
0.0767554680    0.0197015460    0.0003562137    
0.0769781290    0.0194439330    0.0003518436    
0.0772007900    0.0194465450    0.0003490451    
0.0774234510    0.0195036480    0.0003515455    
0.0776461120    0.0188721670    0.0003454796    
0.0778687730    0.0196586790    0.0003514403    
0.0780914340    0.0198386540    0.0003555680    
0.0783140950    0.0196647030    0.0003483891    
0.0785367560    0.0194882020    0.0003524139    
0.0787594170    0.0194785470    0.0003491699    
0.0789820780    0.0195520330    0.0003480354    
0.0792047390    0.0195241970    0.0003489246    
0.0794274000    0.0192686510    0.0003481023    
0.0796500610    0.0196775100    0.0003483427    
0.0798727220    0.0191610950    0.0003434241    
0.0800953830    0.0192997610    0.0003438719    
0.0803180440    0.0200044690    0.0003525325    
0.0805407050    0.0193657820    0.0003465365    
0.0807633660    0.0192246240    0.0003449508    
0.0809860270    0.0195436940    0.0003465172    
0.0812086880    0.0201130960    0.0003484910    
0.0814313490    0.0195170250    0.0003448539    
0.0816540100    0.0197679350    0.0003462734    
0.0818766710    0.0195292680    0.0003449626    
0.0820993320    0.0195735040    0.0003447236    
0.0823219930    0.0194475930    0.0003450303    
0.0825446540    0.0191720600    0.0003400884    
0.0827673150    0.0195045620    0.0003407203    
0.0829899760    0.0191386410    0.0003369082    
0.0832126370    0.0195318800    0.0003418763    
0.0834352980    0.0192599580    0.0003387291    
0.0836579590    0.0197436680    0.0003421929    
0.0838806200    0.0193541800    0.0003398610    
0.0841032810    0.0194682820    0.0003387453    
0.0843259420    0.0194891480    0.0003378831    
0.0845486030    0.0198347920    0.0003408664    
0.0847712640    0.0198888960    0.0003392508    
0.0849939250    0.0198711220    0.0003396897    
0.0852165860    0.0193410060    0.0003355670    
0.0854392470    0.0196162060    0.0003347456    
0.0856619080    0.0190308980    0.0003321420    
0.0858845690    0.0198452870    0.0003361195    
0.0861072300    0.0191101800    0.0003321125    
0.0863298910    0.0198532470    0.0003402803    
0.0865525520    0.0200449420    0.0003389667    
0.0867752130    0.0191531300    0.0003286669    
0.0869978740    0.0192905610    0.0003306845    
0.0872205350    0.0198182420    0.0003347504    
0.0874431960    0.0194337820    0.0003314878    
0.0876658570    0.0201473840    0.0003388149    
0.0878885180    0.0196676660    0.0003353309    
0.0881111790    0.0201988970    0.0003393934    
0.0883338400    0.0191964820    0.0003260204    
0.0885565010    0.0189186270    0.0003280413    
0.0887791620    0.0191626260    0.0003258686    
0.0890018230    0.0192536880    0.0003298102    
0.0892244840    0.0197840470    0.0003348902    
0.0894471450    0.0195273290    0.0003313050    
0.0896698060    0.0194026070    0.0003289995    
0.0898924670    0.0196392040    0.0003325337    
0.0901151280    0.0188260590    0.0003220601    
0.0903377890    0.0200164270    0.0003348652    
0.0905604500    0.0194445690    0.0003285324    
0.0907831110    0.0192429990    0.0003260121    
0.0910057720    0.0197321620    0.0003316447    
0.0912284330    0.0196802300    0.0003264658    
0.0914510940    0.0194848380    0.0003284635    
0.0916737550    0.0185673210    0.0003198411    
0.0918964160    0.0195498500    0.0003295595    
0.0921190770    0.0195579840    0.0003266476    
0.0923417380    0.0192737350    0.0003243983    
0.0925643990    0.0196413480    0.0003266759    
0.0927870600    0.0193042790    0.0003251888    
0.0930097210    0.0197899950    0.0003264503    
0.0932323820    0.0191967640    0.0003238836    
