# Diamond Light Source Ltd.
# Data extracted from: /dls/b21/data/2018/cm19678-3/processed/b21-386631_00436.dat
q(1/A)          Column          Error           
0.0035000000    2.1049394000    0.0246957250    
0.0037226610    1.8684054000    0.0227769650    
0.0039453220    1.6335874000    0.0193748400    
0.0041679830    1.2935817000    0.0141588720    
0.0043906440    0.9611688800    0.0116739250    
0.0046133050    0.7881758400    0.0101482800    
0.0048359660    0.6174095100    0.0084960142    
0.0050586270    0.4660250300    0.0072551206    
0.0052812880    0.4392152300    0.0066593641    
0.0055039490    0.3811235000    0.0058984444    
0.0057266100    0.3161962000    0.0051975311    
0.0059492710    0.2613467400    0.0047252778    
0.0061719320    0.2207039400    0.0041843840    
0.0063945930    0.2062576500    0.0040941547    
0.0066172539    0.1857310000    0.0036481013    
0.0068399149    0.1656271800    0.0033907548    
0.0070625759    0.1478991400    0.0031712904    
0.0072852369    0.1254276400    0.0028767505    
0.0075078979    0.1171420100    0.0027664482    
0.0077305589    0.0963131370    0.0024606857    
0.0079532199    0.1013656300    0.0024894216    
0.0081758809    0.0898701150    0.0023658224    
0.0083985419    0.0783422410    0.0020602117    
0.0086212029    0.0769877890    0.0020423248    
0.0088438639    0.0656267640    0.0018704752    
0.0090665249    0.0646504530    0.0017930809    
0.0092891859    0.0642558490    0.0018658225    
0.0095118469    0.0585227000    0.0017123910    
0.0097345079    0.0552495350    0.0016159257    
0.0099571689    0.0531304610    0.0015519573    
0.0101798300    0.0499571490    0.0015048973    
0.0104024910    0.0502049590    0.0015035199    
0.0106251520    0.0481891730    0.0014780286    
0.0108478130    0.0466048600    0.0014155218    
0.0110704740    0.0448941840    0.0013227076    
0.0112931350    0.0420222850    0.0012834598    
0.0115157960    0.0410299890    0.0012608210    
0.0117384570    0.0390319100    0.0012191520    
0.0119611180    0.0375327940    0.0011989411    
0.0121837790    0.0374664170    0.0011777467    
0.0124064400    0.0339999430    0.0010751726    
0.0126291010    0.0339498810    0.0010609338    
0.0128517620    0.0332199990    0.0010520879    
0.0130744230    0.0315801070    0.0010181835    
0.0132970840    0.0322472340    0.0010238507    
0.0135197450    0.0313934240    0.0009957390    
0.0137424060    0.0312624420    0.0009798261    
0.0139650670    0.0300026770    0.0009385006    
0.0141877280    0.0298700590    0.0009384937    
0.0144103890    0.0305860650    0.0009333004    
0.0146330500    0.0296646630    0.0009132994    
0.0148557110    0.0310336370    0.0009302188    
0.0150783720    0.0293435760    0.0008970593    
0.0153010330    0.0273224410    0.0008534097    
0.0155236940    0.0265506880    0.0008362681    
0.0157463550    0.0269358420    0.0008277183    
0.0159690160    0.0267570330    0.0008218357    
0.0161916770    0.0260071400    0.0008056729    
0.0164143380    0.0266307390    0.0008214514    
0.0166369990    0.0268940860    0.0008000508    
0.0168596600    0.0260013830    0.0007797296    
0.0170823210    0.0257139470    0.0007686944    
0.0173049820    0.0247422200    0.0007553336    
0.0175276430    0.0248193890    0.0007644882    
0.0177503040    0.0242633360    0.0007366067    
0.0179729650    0.0259108150    0.0007536546    
0.0181956260    0.0247581580    0.0007225773    
0.0184182870    0.0245253310    0.0007157821    
0.0186409480    0.0249848620    0.0007270295    
0.0188636090    0.0233137040    0.0006978775    
0.0190862700    0.0232200310    0.0006953851    
0.0193089310    0.0240196330    0.0007061544    
0.0195315920    0.0223361880    0.0006578008    
0.0197542530    0.0224207450    0.0006600049    
0.0199769140    0.0235476190    0.0006763877    
0.0201995750    0.0219499710    0.0006428130    
0.0204222360    0.0222135290    0.0006522117    
0.0206448970    0.0224652490    0.0006512350    
0.0208675580    0.0214771180    0.0006236396    
0.0210902190    0.0232042410    0.0006544851    
0.0213128800    0.0226865730    0.0006383623    
0.0215355410    0.0224824720    0.0006279138    
0.0217582020    0.0213776470    0.0006122912    
0.0219808630    0.0224584620    0.0006267545    
0.0222035240    0.0216067300    0.0006091843    
0.0224261850    0.0215275140    0.0006026547    
0.0226488460    0.0207899490    0.0005877935    
0.0228715070    0.0217120250    0.0005991947    
0.0230941680    0.0219931500    0.0006030615    
0.0233168290    0.0210226350    0.0005910741    
0.0235394900    0.0218939900    0.0005965421    
0.0237621510    0.0215159560    0.0005754493    
0.0239848120    0.0211184120    0.0005707679    
0.0242074730    0.0206754190    0.0005602292    
0.0244301340    0.0217268130    0.0005749524    
0.0246527950    0.0209067060    0.0005692193    
0.0248754560    0.0209845490    0.0005574613    
0.0250981170    0.0203642270    0.0005503845    
0.0253207780    0.0207903690    0.0005395093    
0.0255434390    0.0203069790    0.0005388913    
0.0257661000    0.0205968940    0.0005444800    
0.0259887610    0.0202459850    0.0005340852    
0.0262114220    0.0213166740    0.0005509454    
0.0264340830    0.0202556410    0.0005297516    
0.0266567440    0.0205397720    0.0005301579    
0.0268794050    0.0210646540    0.0005346979    
0.0271020660    0.0199789660    0.0005186281    
0.0273247270    0.0206309200    0.0005238569    
0.0275473880    0.0208403720    0.0005254618    
0.0277700490    0.0200972000    0.0005129575    
0.0279927100    0.0210602770    0.0005205228    
0.0282153710    0.0207849030    0.0005196226    
0.0284380320    0.0201594140    0.0005087777    
0.0286606930    0.0204090090    0.0005075361    
0.0288833540    0.0208413670    0.0005138582    
0.0291060150    0.0200936830    0.0005040778    
0.0293286760    0.0201523710    0.0004977791    
0.0295513370    0.0204737080    0.0004962685    
0.0297739980    0.0197589350    0.0004928963    
0.0299966590    0.0206340340    0.0004950901    
0.0302193200    0.0196746470    0.0004904886    
0.0304419810    0.0203975890    0.0005003378    
0.0306646420    0.0192508390    0.0004723510    
0.0308873030    0.0211990540    0.0004935354    
0.0311099640    0.0201889610    0.0004828845    
0.0313326250    0.0205573900    0.0004818727    
0.0315552860    0.0201664870    0.0004834545    
0.0317779470    0.0199694290    0.0004815057    
0.0320006080    0.0184513510    0.0004523260    
0.0322232690    0.0203057560    0.0004764982    
0.0324459300    0.0204222780    0.0004742958    
0.0326685910    0.0203989160    0.0004732430    
0.0328912520    0.0203574160    0.0004743270    
0.0331139130    0.0211339290    0.0004770019    
0.0333365740    0.0195051020    0.0004597397    
0.0335592350    0.0199608550    0.0004606079    
0.0337818960    0.0201413200    0.0004623169    
0.0340045570    0.0204687840    0.0004653198    
0.0342272170    0.0202551500    0.0004610593    
0.0344498780    0.0194533020    0.0004536307    
0.0346725390    0.0202169820    0.0004538846    
0.0348952000    0.0195586270    0.0004443995    
0.0351178610    0.0202271980    0.0004539996    
0.0353405220    0.0189225160    0.0004371134    
0.0355631830    0.0194516920    0.0004415141    
0.0357858440    0.0202834880    0.0004508555    
0.0360085050    0.0199122200    0.0004480600    
0.0362311660    0.0196385110    0.0004396804    
0.0364538270    0.0200800810    0.0004410276    
0.0366764880    0.0201863650    0.0004418724    
0.0368991490    0.0197152500    0.0004344843    
0.0371218100    0.0202309540    0.0004388710    
0.0373444710    0.0192730150    0.0004330195    
0.0375671320    0.0204488970    0.0004453840    
0.0377897930    0.0207109620    0.0004366254    
0.0380124540    0.0201141660    0.0004329884    
0.0382351150    0.0202167070    0.0004340909    
0.0384577760    0.0199473140    0.0004270287    
0.0386804370    0.0205035370    0.0004362455    
0.0389030980    0.0205872650    0.0004338249    
0.0391257590    0.0197585940    0.0004221190    
0.0393484200    0.0196526940    0.0004195694    
0.0395710810    0.0195979010    0.0004195485    
0.0397937420    0.0205769120    0.0004299002    
0.0400164030    0.0200746140    0.0004263481    
0.0402390640    0.0196934140    0.0004166577    
0.0404617250    0.0193572010    0.0004106488    
0.0406843860    0.0203776470    0.0004172630    
0.0409070470    0.0200193470    0.0004178867    
0.0411297080    0.0199161970    0.0004127765    
0.0413523690    0.0195632460    0.0004101571    
0.0415750300    0.0195121950    0.0004131011    
0.0417976910    0.0188147230    0.0003951592    
0.0420203520    0.0195918810    0.0004047529    
0.0422430130    0.0200269680    0.0004107718    
0.0424656740    0.0199358300    0.0004045019    
0.0426883350    0.0199684290    0.0004068417    
0.0429109960    0.0204270420    0.0004127728    
0.0431336570    0.0205446430    0.0004081270    
0.0433563180    0.0191767820    0.0003977079    
0.0435789790    0.0202330860    0.0004020965    
0.0438016400    0.0193713570    0.0003955810    
0.0440243010    0.0197321930    0.0003951975    
0.0442469620    0.0203138120    0.0004033823    
0.0444696230    0.0191265620    0.0003900133    
0.0446922840    0.0194321340    0.0003919490    
0.0449149450    0.0203166720    0.0003954127    
0.0451376060    0.0197568590    0.0003947426    
0.0453602670    0.0196459730    0.0003895068    
0.0455829280    0.0196313830    0.0003889119    
0.0458055890    0.0190269680    0.0003851108    
0.0460282500    0.0188447410    0.0003786406    
0.0462509110    0.0196704670    0.0003844411    
0.0464735720    0.0210316070    0.0003977442    
0.0466962330    0.0196444160    0.0003861508    
0.0469188940    0.0189822200    0.0003785106    
0.0471415550    0.0194064650    0.0003846826    
0.0473642160    0.0194376360    0.0003796008    
0.0475868770    0.0191128720    0.0003745462    
0.0478095380    0.0202046620    0.0003834102    
0.0480321990    0.0200375290    0.0003826577    
0.0482548600    0.0202037790    0.0003825677    
0.0484775210    0.0193582930    0.0003781955    
0.0487001820    0.0196063420    0.0003750393    
0.0489228430    0.0197286020    0.0003760046    
0.0491455040    0.0194849140    0.0003710907    
0.0493681650    0.0198284300    0.0003775645    
0.0495908260    0.0192919020    0.0003661553    
0.0498134870    0.0193705650    0.0003703937    
0.0500361480    0.0197754430    0.0003732545    
0.0502588090    0.0201647450    0.0003712631    
0.0504814700    0.0195519060    0.0003703570    
0.0507041310    0.0198432030    0.0003686698    
0.0509267920    0.0198557850    0.0003703123    
0.0511494530    0.0190603340    0.0003603996    
0.0513721140    0.0197304130    0.0003699091    
0.0515947750    0.0191836740    0.0003599119    
0.0518174360    0.0202808520    0.0003678319    
0.0520400970    0.0196782040    0.0003598133    
0.0522627580    0.0199337990    0.0003652202    
0.0524854190    0.0193547750    0.0003628028    
0.0527080800    0.0195658610    0.0003676001    
0.0529307410    0.0202799060    0.0003760054    
0.0531534020    0.0201255910    0.0003732084    
0.0533760630    0.0200150080    0.0003733468    
0.0535987240    0.0200079330    0.0003715380    
0.0538213850    0.0195423080    0.0003714436    
0.0540440460    0.0197284230    0.0003714418    
0.0542667070    0.0195262430    0.0003720803    
0.0544893680    0.0194547860    0.0003715968    
0.0547120290    0.0203022650    0.0003770036    
0.0549346900    0.0198821190    0.0003732785    
0.0551573510    0.0196929570    0.0003758718    
0.0553800120    0.0194230240    0.0003701134    
0.0556026730    0.0197959090    0.0003813964    
0.0558253340    0.0195011950    0.0003817165    
0.0560479950    0.0198374420    0.0003849935    
0.0562706560    0.0206037200    0.0003961521    
0.0564933170    0.0195759010    0.0003894979    
0.0567159780    0.0195102460    0.0003841821    
0.0569386390    0.0197993230    0.0003930883    
0.0571613000    0.0198225980    0.0003848504    
0.0573839610    0.0190465510    0.0003741096    
0.0576066220    0.0199871010    0.0003842963    
0.0578292830    0.0197669660    0.0003809095    
0.0580519440    0.0200315170    0.0003849369    
0.0582746050    0.0194666420    0.0003777973    
0.0584972660    0.0197326340    0.0003789136    
0.0587199270    0.0196012800    0.0003743949    
0.0589425880    0.0188991150    0.0003654776    
0.0591652490    0.0194368450    0.0003728216    
0.0593879100    0.0192267140    0.0003680470    
0.0596105710    0.0192986600    0.0003683460    
0.0598332320    0.0195870810    0.0003742602    
0.0600558930    0.0199311770    0.0003751263    
0.0602785540    0.0191774790    0.0003675763    
0.0605012150    0.0194896310    0.0003697750    
0.0607238760    0.0198772490    0.0003707126    
0.0609465370    0.0189413390    0.0003647289    
0.0611691980    0.0197200570    0.0003727406    
0.0613918590    0.0195950890    0.0003675012    
0.0616145200    0.0195962320    0.0003702018    
0.0618371810    0.0198028980    0.0003684938    
0.0620598420    0.0200155280    0.0003708487    
0.0622825030    0.0192441530    0.0003691934    
0.0625051640    0.0195474130    0.0003668653    
0.0627278250    0.0194738500    0.0003654203    
0.0629504860    0.0191922350    0.0003598193    
0.0631731470    0.0200641650    0.0003724538    
0.0633958080    0.0198831490    0.0003729037    
0.0636184690    0.0187224610    0.0003668955    
0.0638411300    0.0198024210    0.0003759125    
0.0640637910    0.0197201200    0.0003777690    
0.0642864520    0.0191304840    0.0003712733    
0.0645091130    0.0198191870    0.0003812087    
0.0647317740    0.0201421540    0.0003847259    
0.0649544350    0.0194012910    0.0003771688    
0.0651770960    0.0196326040    0.0003773408    
0.0653997570    0.0198002840    0.0003781270    
0.0656224180    0.0197849530    0.0003788025    
0.0658450790    0.0196500680    0.0003720830    
0.0660677400    0.0198674220    0.0003757275    
0.0662904010    0.0201044930    0.0003824747    
0.0665130620    0.0198150380    0.0003780642    
0.0667357230    0.0196516770    0.0003831967    
0.0669583840    0.0191567090    0.0003770743    
0.0671810450    0.0194375670    0.0003777312    
0.0674037060    0.0195551710    0.0003852909    
0.0676263670    0.0200478540    0.0003872581    
0.0678490280    0.0198625070    0.0003831064    
0.0680716890    0.0197431820    0.0003828039    
0.0682943500    0.0204820190    0.0003856304    
0.0685170110    0.0195616740    0.0003730265    
0.0687396720    0.0192739020    0.0003692888    
0.0689623330    0.0187089970    0.0003626837    
0.0691849940    0.0198103180    0.0003757917    
0.0694076550    0.0191411690    0.0003691933    
0.0696303160    0.0192177480    0.0003670023    
0.0698529770    0.0197933340    0.0003716771    
0.0700756380    0.0199345480    0.0003682125    
0.0702982990    0.0192312600    0.0003655974    
0.0705209600    0.0189614250    0.0003604026    
0.0707436210    0.0195342880    0.0003641264    
0.0709662820    0.0193772880    0.0003669836    
0.0711889430    0.0191889980    0.0003607107    
0.0714116040    0.0193218900    0.0003626965    
0.0716342650    0.0193611440    0.0003615906    
0.0718569260    0.0202974080    0.0003687392    
0.0720795870    0.0193274280    0.0003612761    
0.0723022480    0.0199079540    0.0003672204    
0.0725249090    0.0195860660    0.0003598775    
0.0727475700    0.0194579930    0.0003617627    
0.0729702310    0.0196121860    0.0003602966    
0.0731928920    0.0190420130    0.0003564395    
0.0734155530    0.0189660980    0.0003550185    
0.0736382140    0.0197927950    0.0003603458    
0.0738608750    0.0193250020    0.0003583623    
0.0740835360    0.0198375200    0.0003621819    
0.0743061970    0.0194241910    0.0003533423    
0.0745288580    0.0196420080    0.0003589715    
0.0747515190    0.0195945290    0.0003592455    
0.0749741800    0.0193756830    0.0003539270    
0.0751968410    0.0195432330    0.0003582448    
0.0754195020    0.0195355730    0.0003560762    
0.0756421630    0.0193451820    0.0003514403    
0.0758648240    0.0195601940    0.0003542374    
0.0760874850    0.0195093670    0.0003536070    
0.0763101460    0.0192352650    0.0003507773    
0.0765328070    0.0197027360    0.0003586468    
0.0767554680    0.0193010090    0.0003525629    
0.0769781290    0.0196655210    0.0003538315    
0.0772007900    0.0196269850    0.0003506496    
0.0774234510    0.0196544760    0.0003528910    
0.0776461120    0.0199460590    0.0003551618    
0.0778687730    0.0197642320    0.0003523713    
0.0780914340    0.0193339730    0.0003510050    
0.0783140950    0.0195461910    0.0003473266    
0.0785367560    0.0190026590    0.0003479850    
0.0787594170    0.0192394780    0.0003470095    
0.0789820780    0.0198357530    0.0003505404    
0.0792047390    0.0191862470    0.0003458807    
0.0794274000    0.0193051580    0.0003484209    
0.0796500610    0.0195221070    0.0003469535    
0.0798727220    0.0202677420    0.0003531909    
0.0800953830    0.0198683030    0.0003488890    
0.0803180440    0.0191769810    0.0003451532    
0.0805407050    0.0189615120    0.0003428895    
0.0807633660    0.0196690220    0.0003489039    
0.0809860270    0.0190079710    0.0003417241    
0.0812086880    0.0192182300    0.0003406395    
0.0814313490    0.0194975080    0.0003446705    
0.0816540100    0.0195422660    0.0003442803    
0.0818766710    0.0190588690    0.0003407719    
0.0820993320    0.0191048110    0.0003405606    
0.0823219930    0.0196055050    0.0003464173    
0.0825446540    0.0198947270    0.0003464277    
0.0827673150    0.0196223570    0.0003417368    
0.0829899760    0.0196296500    0.0003411918    
0.0832126370    0.0198776930    0.0003448785    
0.0834352980    0.0195744530    0.0003414726    
0.0836579590    0.0191730940    0.0003372014    
0.0838806200    0.0203495430    0.0003484797    
0.0841032810    0.0192430840    0.0003367698    
0.0843259420    0.0204075390    0.0003457415    
0.0845486030    0.0193590750    0.0003367432    
0.0847712640    0.0201653780    0.0003415899    
0.0849939250    0.0196724400    0.0003379765    
0.0852165860    0.0198986650    0.0003403595    
0.0854392470    0.0194436020    0.0003332590    
0.0856619080    0.0192673450    0.0003341884    
0.0858845690    0.0190300020    0.0003291324    
0.0861072300    0.0194667920    0.0003351863    
0.0863298910    0.0194670790    0.0003369439    
0.0865525520    0.0196080630    0.0003352418    
0.0867752130    0.0198681380    0.0003347348    
0.0869978740    0.0196237690    0.0003335177    
0.0872205350    0.0198961400    0.0003353970    
0.0874431960    0.0195908590    0.0003328142    
0.0876658570    0.0188015130    0.0003272923    
0.0878885180    0.0191633240    0.0003309930    
0.0881111790    0.0198098580    0.0003360984    
0.0883338400    0.0190291670    0.0003245862    
0.0885565010    0.0190596200    0.0003292509    
0.0887791620    0.0190616690    0.0003249988    
0.0890018230    0.0194897330    0.0003318152    
0.0892244840    0.0193860030    0.0003314937    
0.0894471450    0.0195710550    0.0003316652    
0.0896698060    0.0198030150    0.0003323664    
0.0898924670    0.0194577940    0.0003309838    
0.0901151280    0.0197779520    0.0003300913    
0.0903377890    0.0190516510    0.0003266851    
0.0905604500    0.0195820980    0.0003296818    
0.0907831110    0.0194350800    0.0003276247    
0.0910057720    0.0193073090    0.0003280445    
0.0912284330    0.0187258990    0.0003184419    
0.0914510940    0.0197936560    0.0003310457    
0.0916737550    0.0189517900    0.0003231253    
0.0918964160    0.0191153080    0.0003258659    
0.0921190770    0.0190875990    0.0003226854    
0.0923417380    0.0196874450    0.0003278510    
0.0925643990    0.0190968080    0.0003221055    
0.0927870600    0.0200863510    0.0003317001    
0.0930097210    0.0192556550    0.0003220027    
0.0932323820    0.0194960740    0.0003263884    
