# Diamond Light Source Ltd.
# Data extracted from: /dls/b21/data/2018/cm19678-3/processed/b21-386631_00439.dat
q(1/A)          Column          Error           
0.0035000000    2.0841486000    0.0245807110    
0.0037226610    1.8561723000    0.0227089760    
0.0039453220    1.6136281000    0.0192617960    
0.0041679830    1.3134183000    0.0142712290    
0.0043906440    0.9682621500    0.0117203780    
0.0046133050    0.7869413400    0.0101433210    
0.0048359660    0.5940268400    0.0083360387    
0.0050586270    0.4512690600    0.0071414419    
0.0052812880    0.4230067800    0.0065372613    
0.0055039490    0.3813484300    0.0059019255    
0.0057266100    0.3098858900    0.0051469244    
0.0059492710    0.2701350400    0.0048054866    
0.0061719320    0.2211517100    0.0041898623    
0.0063945930    0.2035333200    0.0040682263    
0.0066172539    0.1815387400    0.0036077586    
0.0068399149    0.1721844500    0.0034582442    
0.0070625759    0.1445164000    0.0031357387    
0.0072852369    0.1319715000    0.0029517105    
0.0075078979    0.1164266900    0.0027588024    
0.0077305589    0.0975022620    0.0024765599    
0.0079532199    0.1014254500    0.0024908907    
0.0081758809    0.0895492530    0.0023622920    
0.0083985419    0.0824542690    0.0021142120    
0.0086212029    0.0818579650    0.0021065534    
0.0088438639    0.0729201710    0.0019722566    
0.0090665249    0.0627977090    0.0017677226    
0.0092891859    0.0621253460    0.0018351709    
0.0095118469    0.0603119500    0.0017388838    
0.0097345079    0.0591126410    0.0016719580    
0.0099571689    0.0568813300    0.0016062790    
0.0101798300    0.0521185490    0.0015375608    
0.0104024910    0.0496488940    0.0014956114    
0.0106251520    0.0442712980    0.0014170897    
0.0108478130    0.0462451960    0.0014104652    
0.0110704740    0.0444917490    0.0013171543    
0.0112931350    0.0412626250    0.0012721812    
0.0115157960    0.0408991360    0.0012591803    
0.0117384570    0.0408838590    0.0012481076    
0.0119611180    0.0359071260    0.0011730347    
0.0121837790    0.0375626170    0.0011796057    
0.0124064400    0.0350746280    0.0010923549    
0.0126291010    0.0346997390    0.0010729028    
0.0128517620    0.0338730570    0.0010626923    
0.0130744230    0.0335038660    0.0010490467    
0.0132970840    0.0316807880    0.0010151179    
0.0135197450    0.0314751540    0.0009973284    
0.0137424060    0.0308507030    0.0009736396    
0.0139650670    0.0307841120    0.0009509244    
0.0141877280    0.0307728120    0.0009528511    
0.0144103890    0.0303476570    0.0009299302    
0.0146330500    0.0301041910    0.0009203120    
0.0148557110    0.0281783210    0.0008866545    
0.0150783720    0.0286200110    0.0008861916    
0.0153010330    0.0269651610    0.0008480617    
0.0155236940    0.0279895550    0.0008588825    
0.0157463550    0.0275879930    0.0008379256    
0.0159690160    0.0260908740    0.0008117802    
0.0161916770    0.0265219600    0.0008138481    
0.0164143380    0.0252520170    0.0008001408    
0.0166369990    0.0254572970    0.0007786162    
0.0168596600    0.0256189900    0.0007742032    
0.0170823210    0.0241656010    0.0007454118    
0.0173049820    0.0243184440    0.0007490580    
0.0175276430    0.0243863640    0.0007580134    
0.0177503040    0.0232707480    0.0007215953    
0.0179729650    0.0241713790    0.0007281329    
0.0181956260    0.0229369680    0.0006956988    
0.0184182870    0.0230975170    0.0006948390    
0.0186409480    0.0235178360    0.0007055703    
0.0188636090    0.0229094070    0.0006920040    
0.0190862700    0.0249007290    0.0007203244    
0.0193089310    0.0227043670    0.0006867510    
0.0195315920    0.0221749170    0.0006556152    
0.0197542530    0.0229783020    0.0006683581    
0.0199769140    0.0229005500    0.0006672265    
0.0201995750    0.0221136140    0.0006453951    
0.0204222360    0.0218434210    0.0006469463    
0.0206448970    0.0218929320    0.0006430759    
0.0208675580    0.0218340650    0.0006289861    
0.0210902190    0.0220727390    0.0006385167    
0.0213128800    0.0225741510    0.0006369665    
0.0215355410    0.0221447920    0.0006233643    
0.0217582020    0.0222149910    0.0006243517    
0.0219808630    0.0216666550    0.0006157884    
0.0222035240    0.0220663070    0.0006158106    
0.0224261850    0.0223336280    0.0006140155    
0.0226488460    0.0225980930    0.0006130022    
0.0228715070    0.0213111900    0.0005938131    
0.0230941680    0.0221715890    0.0006056816    
0.0233168290    0.0207191010    0.0005869646    
0.0235394900    0.0205407790    0.0005779832    
0.0237621510    0.0217442480    0.0005786648    
0.0239848120    0.0193712550    0.0005468093    
0.0242074730    0.0214622680    0.0005709585    
0.0244301340    0.0220593360    0.0005795064    
0.0246527950    0.0210431010    0.0005712416    
0.0248754560    0.0206264870    0.0005528479    
0.0250981170    0.0207483460    0.0005557150    
0.0253207780    0.0212789280    0.0005459726    
0.0255434390    0.0205479100    0.0005422386    
0.0257661000    0.0204074240    0.0005421298    
0.0259887610    0.0210755820    0.0005450784    
0.0262114220    0.0207735820    0.0005440422    
0.0264340830    0.0204478130    0.0005324157    
0.0266567440    0.0208257370    0.0005339933    
0.0268794050    0.0203980560    0.0005263248    
0.0271020660    0.0210280140    0.0005322269    
0.0273247270    0.0212154060    0.0005313824    
0.0275473880    0.0203886900    0.0005198896    
0.0277700490    0.0213404950    0.0005287422    
0.0279927100    0.0217420900    0.0005290375    
0.0282153710    0.0198223020    0.0005075971    
0.0284380320    0.0200942230    0.0005081043    
0.0286606930    0.0209262130    0.0005140784    
0.0288833540    0.0201817860    0.0005058108    
0.0291060150    0.0207508420    0.0005124055    
0.0293286760    0.0201765670    0.0004982248    
0.0295513370    0.0204737550    0.0004964155    
0.0297739980    0.0207425170    0.0005051643    
0.0299966590    0.0203134000    0.0004913733    
0.0302193200    0.0206038900    0.0005020861    
0.0304419810    0.0197342180    0.0004922798    
0.0306646420    0.0210596960    0.0004941903    
0.0308873030    0.0197169840    0.0004761112    
0.0311099640    0.0197501700    0.0004777490    
0.0313326250    0.0197444810    0.0004723885    
0.0315552860    0.0209089850    0.0004924193    
0.0317779470    0.0205969140    0.0004891565    
0.0320006080    0.0198269370    0.0004690222    
0.0322232690    0.0201499170    0.0004748062    
0.0324459300    0.0195415680    0.0004640930    
0.0326685910    0.0197628140    0.0004659434    
0.0328912520    0.0199270970    0.0004694255    
0.0331139130    0.0203707820    0.0004684486    
0.0333365740    0.0205466570    0.0004719941    
0.0335592350    0.0191856410    0.0004517083    
0.0337818960    0.0199726980    0.0004605135    
0.0340045570    0.0202268370    0.0004626980    
0.0342272170    0.0193430080    0.0004506913    
0.0344498780    0.0198669910    0.0004585640    
0.0346725390    0.0200249930    0.0004518576    
0.0348952000    0.0203481270    0.0004534138    
0.0351178610    0.0193316880    0.0004439669    
0.0353405220    0.0199339150    0.0004487754    
0.0355631830    0.0198442130    0.0004460782    
0.0357858440    0.0194631840    0.0004417750    
0.0360085050    0.0199138840    0.0004482109    
0.0362311660    0.0199751400    0.0004435636    
0.0364538270    0.0198883960    0.0004390471    
0.0366764880    0.0206531510    0.0004470840    
0.0368991490    0.0197364660    0.0004348463    
0.0371218100    0.0201285810    0.0004378884    
0.0373444710    0.0202578560    0.0004440762    
0.0375671320    0.0194612130    0.0004346230    
0.0377897930    0.0202995110    0.0004323941    
0.0380124540    0.0198835540    0.0004306262    
0.0382351150    0.0190255520    0.0004212328    
0.0384577760    0.0191907260    0.0004189755    
0.0386804370    0.0192432780    0.0004227505    
0.0389030980    0.0198036120    0.0004256136    
0.0391257590    0.0191295940    0.0004154682    
0.0393484200    0.0200765790    0.0004241952    
0.0395710810    0.0191601210    0.0004149585    
0.0397937420    0.0195106240    0.0004187369    
0.0400164030    0.0194341270    0.0004196154    
0.0402390640    0.0203842160    0.0004240275    
0.0404617250    0.0203797690    0.0004214800    
0.0406843860    0.0195946050    0.0004092882    
0.0409070470    0.0189401400    0.0004065868    
0.0411297080    0.0199022710    0.0004127539    
0.0413523690    0.0200910500    0.0004157758    
0.0415750300    0.0194537010    0.0004126031    
0.0417976910    0.0195233870    0.0004026511    
0.0420203520    0.0201891210    0.0004109971    
0.0422430130    0.0201568110    0.0004122228    
0.0424656740    0.0195534060    0.0004007216    
0.0426883350    0.0200714480    0.0004080102    
0.0429109960    0.0199466900    0.0004080110    
0.0431336570    0.0198347660    0.0004011323    
0.0433563180    0.0198565890    0.0004048152    
0.0435789790    0.0192615600    0.0003924398    
0.0438016400    0.0203608200    0.0004056777    
0.0440243010    0.0198784730    0.0003967767    
0.0442469620    0.0199170400    0.0003995412    
0.0444696230    0.0207213970    0.0004060678    
0.0446922840    0.0197362840    0.0003951210    
0.0449149450    0.0197511430    0.0003899856    
0.0451376060    0.0203130410    0.0004003784    
0.0453602670    0.0200593730    0.0003936996    
0.0455829280    0.0198511160    0.0003911977    
0.0458055890    0.0193189740    0.0003881692    
0.0460282500    0.0196627750    0.0003868856    
0.0462509110    0.0204413920    0.0003920179    
0.0464735720    0.0198849420    0.0003868636    
0.0466962330    0.0194509430    0.0003843579    
0.0469188940    0.0196882120    0.0003855989    
0.0471415550    0.0193492500    0.0003842284    
0.0473642160    0.0199238370    0.0003844324    
0.0475868770    0.0194032290    0.0003774919    
0.0478095380    0.0193211450    0.0003750441    
0.0480321990    0.0202614010    0.0003849029    
0.0482548600    0.0191719380    0.0003727805    
0.0484775210    0.0197837270    0.0003824415    
0.0487001820    0.0197901890    0.0003769047    
0.0489228430    0.0200629150    0.0003792889    
0.0491455040    0.0200055690    0.0003761269    
0.0493681650    0.0194876430    0.0003744163    
0.0495908260    0.0192198440    0.0003655786    
0.0498134870    0.0197150690    0.0003737832    
0.0500361480    0.0198364580    0.0003739401    
0.0502588090    0.0197047180    0.0003671120    
0.0504814700    0.0194721910    0.0003697103    
0.0507041310    0.0200331080    0.0003705390    
0.0509267920    0.0200333530    0.0003720742    
0.0511494530    0.0194534240    0.0003642044    
0.0513721140    0.0196379690    0.0003691504    
0.0515947750    0.0197692910    0.0003654718    
0.0518174360    0.0195585410    0.0003613289    
0.0520400970    0.0189130210    0.0003528524    
0.0522627580    0.0196509660    0.0003627270    
0.0524854190    0.0193525880    0.0003628894    
0.0527080800    0.0196465140    0.0003684657    
0.0529307410    0.0195454910    0.0003692432    
0.0531534020    0.0199297230    0.0003714975    
0.0533760630    0.0192254680    0.0003660169    
0.0535987240    0.0192879850    0.0003648998    
0.0538213850    0.0201189810    0.0003769953    
0.0540440460    0.0206847340    0.0003804501    
0.0542667070    0.0194526350    0.0003714879    
0.0544893680    0.0199136870    0.0003760648    
0.0547120290    0.0199780110    0.0003740912    
0.0549346900    0.0195783010    0.0003705248    
0.0551573510    0.0194246230    0.0003734124    
0.0553800120    0.0197449860    0.0003732785    
0.0556026730    0.0197561240    0.0003811254    
0.0558253340    0.0197893210    0.0003846395    
0.0560479950    0.0192585340    0.0003794463    
0.0562706560    0.0197089340    0.0003875689    
0.0564933170    0.0200372050    0.0003941766    
0.0567159780    0.0198321100    0.0003874523    
0.0569386390    0.0190223160    0.0003854116    
0.0571613000    0.0193408690    0.0003802575    
0.0573839610    0.0196974620    0.0003805607    
0.0576066220    0.0194443990    0.0003791549    
0.0578292830    0.0196904990    0.0003802842    
0.0580519440    0.0193549970    0.0003784925    
0.0582746050    0.0199036420    0.0003821269    
0.0584972660    0.0198316440    0.0003799751    
0.0587199270    0.0200493250    0.0003787614    
0.0589425880    0.0193840870    0.0003702464    
0.0591652490    0.0193266740    0.0003718732    
0.0593879100    0.0198513670    0.0003740883    
0.0596105710    0.0194155690    0.0003695690    
0.0598332320    0.0198133030    0.0003765264    
0.0600558930    0.0194554920    0.0003707322    
0.0602785540    0.0196188170    0.0003718915    
0.0605012150    0.0194730540    0.0003697267    
0.0607238760    0.0195845920    0.0003680820    
0.0609465370    0.0200276870    0.0003751530    
0.0611691980    0.0191606810    0.0003675244    
0.0613918590    0.0187583890    0.0003596757    
0.0616145200    0.0193908660    0.0003683655    
0.0618371810    0.0202193840    0.0003724585    
0.0620598420    0.0199792150    0.0003706215    
0.0622825030    0.0191775520    0.0003686628    
0.0625051640    0.0196347320    0.0003677922    
0.0627278250    0.0189021540    0.0003601227    
0.0629504860    0.0200945530    0.0003682892    
0.0631731470    0.0198546300    0.0003706132    
0.0633958080    0.0195169990    0.0003695633    
0.0636184690    0.0193234290    0.0003728475    
0.0638411300    0.0202282400    0.0003800448    
0.0640637910    0.0197245170    0.0003779226    
0.0642864520    0.0193869050    0.0003738635    
0.0645091130    0.0197428440    0.0003805860    
0.0647317740    0.0186467160    0.0003702778    
0.0649544350    0.0196621860    0.0003798083    
0.0651770960    0.0196949890    0.0003780514    
0.0653997570    0.0197397160    0.0003776596    
0.0656224180    0.0199272530    0.0003802745    
0.0658450790    0.0193162280    0.0003690176    
0.0660677400    0.0198720370    0.0003758820    
0.0662904010    0.0192499640    0.0003743684    
0.0665130620    0.0199422140    0.0003793874    
0.0667357230    0.0189679580    0.0003765827    
0.0669583840    0.0199700860    0.0003851098    
0.0671810450    0.0193241760    0.0003767390    
0.0674037060    0.0193844140    0.0003837181    
0.0676263670    0.0192288550    0.0003793773    
0.0678490280    0.0202660940    0.0003870932    
0.0680716890    0.0192646760    0.0003782481    
0.0682943500    0.0192372900    0.0003738393    
0.0685170110    0.0189611100    0.0003673640    
0.0687396720    0.0195543070    0.0003720751    
0.0689623330    0.0194587100    0.0003699883    
0.0691849940    0.0193797760    0.0003717953    
0.0694076550    0.0197652300    0.0003752741    
0.0696303160    0.0198392030    0.0003729991    
0.0698529770    0.0199865850    0.0003735973    
0.0700756380    0.0205179570    0.0003736719    
0.0702982990    0.0196946410    0.0003700850    
0.0705209600    0.0192742030    0.0003634702    
0.0707436210    0.0198582230    0.0003672415    
0.0709662820    0.0194930390    0.0003681866    
0.0711889430    0.0193631520    0.0003624508    
0.0714116040    0.0197352190    0.0003666635    
0.0716342650    0.0194266270    0.0003623085    
0.0718569260    0.0194313240    0.0003608928    
0.0720795870    0.0196834470    0.0003646959    
0.0723022480    0.0198248150    0.0003665610    
0.0725249090    0.0193660530    0.0003579561    
0.0727475700    0.0193617980    0.0003609739    
0.0729702310    0.0194913020    0.0003592905    
0.0731928920    0.0192668830    0.0003586438    
0.0734155530    0.0196954220    0.0003618868    
0.0736382140    0.0198176040    0.0003606780    
0.0738608750    0.0193231080    0.0003584505    
0.0740835360    0.0191611210    0.0003560587    
0.0743061970    0.0197829490    0.0003566957    
0.0745288580    0.0192400480    0.0003553843    
0.0747515190    0.0198894750    0.0003620460    
0.0749741800    0.0192059910    0.0003524777    
0.0751968410    0.0193576420    0.0003566450    
0.0754195020    0.0201835200    0.0003620399    
0.0756421630    0.0191841140    0.0003500774    
0.0758648240    0.0194369370    0.0003532237    
0.0760874850    0.0192643650    0.0003514833    
0.0763101460    0.0197970690    0.0003559680    
0.0765328070    0.0193942830    0.0003559333    
0.0767554680    0.0200534500    0.0003594755    
0.0769781290    0.0187152470    0.0003452786    
0.0772007900    0.0196448360    0.0003509126    
0.0774234510    0.0193237260    0.0003500124    
0.0776461120    0.0193440350    0.0003498641    
0.0778687730    0.0201656310    0.0003560366    
0.0780914340    0.0201105270    0.0003580903    
0.0783140950    0.0202432040    0.0003535695    
0.0785367560    0.0189947460    0.0003480152    
0.0787594170    0.0198958670    0.0003529834    
0.0789820780    0.0198722540    0.0003509663    
0.0792047390    0.0196218260    0.0003498880    
0.0794274000    0.0198639590    0.0003535318    
0.0796500610    0.0193423640    0.0003454544    
0.0798727220    0.0195283750    0.0003467911    
0.0800953830    0.0190524600    0.0003417516    
0.0803180440    0.0195239540    0.0003483644    
0.0805407050    0.0189602940    0.0003429797    
0.0807633660    0.0191480510    0.0003443538    
0.0809860270    0.0195908710    0.0003470266    
0.0812086880    0.0194893490    0.0003431351    
0.0814313490    0.0197223940    0.0003467548    
0.0816540100    0.0197480020    0.0003461899    
0.0818766710    0.0196614860    0.0003462195    
0.0820993320    0.0196931520    0.0003458667    
0.0823219930    0.0199539280    0.0003495851    
0.0825446540    0.0193451270    0.0003417099    
0.0827673150    0.0195505660    0.0003412117    
0.0829899760    0.0191309190    0.0003369289    
0.0832126370    0.0193445900    0.0003403228    
0.0834352980    0.0193237460    0.0003393789    
0.0836579590    0.0195879170    0.0003409302    
0.0838806200    0.0193106340    0.0003395678    
0.0841032810    0.0196849380    0.0003407147    
0.0843259420    0.0192298080    0.0003357158    
0.0845486030    0.0194232490    0.0003374004    
0.0847712640    0.0196446220    0.0003372498    
0.0849939250    0.0197131000    0.0003384254    
0.0852165860    0.0195550740    0.0003375078    
0.0854392470    0.0197294140    0.0003357985    
0.0856619080    0.0191975180    0.0003336807    
0.0858845690    0.0192918510    0.0003314868    
0.0861072300    0.0196688470    0.0003370207    
0.0863298910    0.0193735300    0.0003362325    
0.0865525520    0.0201644660    0.0003400653    
0.0867752130    0.0194905050    0.0003316362    
0.0869978740    0.0188810170    0.0003272416    
0.0872205350    0.0199983980    0.0003363570    
0.0874431960    0.0190310370    0.0003281213    
0.0876658570    0.0195708140    0.0003340196    
0.0878885180    0.0196379820    0.0003351660    
0.0881111790    0.0192738030    0.0003316176    
0.0883338400    0.0199156910    0.0003321589    
0.0885565010    0.0191391610    0.0003300346    
0.0887791620    0.0191505410    0.0003258516    
0.0890018230    0.0194164470    0.0003312885    
0.0892244840    0.0192499780    0.0003304261    
0.0894471450    0.0186996450    0.0003242930    
0.0896698060    0.0201272720    0.0003351753    
0.0898924670    0.0189453640    0.0003266928    
0.0901151280    0.0204070170    0.0003353986    
0.0903377890    0.0188499010    0.0003250466    
0.0905604500    0.0195714390    0.0003296893    
0.0907831110    0.0197946980    0.0003307395    
0.0910057720    0.0191458160    0.0003267661    
0.0912284330    0.0192571200    0.0003230224    
0.0914510940    0.0197887180    0.0003311021    
0.0916737550    0.0196354990    0.0003289993    
0.0918964160    0.0195156800    0.0003293580    
0.0921190770    0.0189569460    0.0003216740    
0.0923417380    0.0190162060    0.0003223086    
0.0925643990    0.0195429700    0.0003259426    
0.0927870600    0.0194459860    0.0003264662    
0.0930097210    0.0190353410    0.0003202498    
0.0932323820    0.0193708960    0.0003254349    
