# Diamond Light Source Ltd.
# Data extracted from: /dls/b21/data/2018/cm19678-3/processed/b21-386631_00442.dat
q(1/A)          Column          Error           
0.0035000000    2.1024867000    0.0246924540    
0.0037226610    1.8931564000    0.0229376640    
0.0039453220    1.6003301000    0.0191852450    
0.0041679830    1.2792361000    0.0140864870    
0.0043906440    0.9651573500    0.0117033920    
0.0046133050    0.7733230300    0.0100567350    
0.0048359660    0.5812227200    0.0082469907    
0.0050586270    0.4510702600    0.0071409789    
0.0052812880    0.4152556600    0.0064780976    
0.0055039490    0.3810101900    0.0059002248    
0.0057266100    0.3211843800    0.0052407281    
0.0059492710    0.2660289500    0.0047695663    
0.0061719320    0.2218557300    0.0041971786    
0.0063945930    0.2039219900    0.0040727419    
0.0066172539    0.1739211600    0.0035318036    
0.0068399149    0.1673050000    0.0034094214    
0.0070625759    0.1425875800    0.0031152268    
0.0072852369    0.1227670500    0.0028473583    
0.0075078979    0.1122778200    0.0027096227    
0.0077305589    0.1014338900    0.0025263910    
0.0079532199    0.0981526050    0.0024507536    
0.0081758809    0.0918835430    0.0023932551    
0.0083985419    0.0834017790    0.0021266555    
0.0086212029    0.0757557240    0.0020268297    
0.0088438639    0.0735831680    0.0019815104    
0.0090665249    0.0627674650    0.0017675717    
0.0092891859    0.0642053120    0.0018659290    
0.0095118469    0.0595784550    0.0017285463    
0.0097345079    0.0585633680    0.0016644307    
0.0099571689    0.0523616190    0.0015413816    
0.0101798300    0.0497299350    0.0015021476    
0.0104024910    0.0481320420    0.0014728166    
0.0106251520    0.0438313270    0.0014102498    
0.0108478130    0.0453989350    0.0013977176    
0.0110704740    0.0438424880    0.0013077118    
0.0112931350    0.0425309850    0.0012917867    
0.0115157960    0.0418813310    0.0012744083    
0.0117384570    0.0381142350    0.0012052779    
0.0119611180    0.0377582910    0.0012030792    
0.0121837790    0.0370925770    0.0011723842    
0.0124064400    0.0374336480    0.0011286669    
0.0126291010    0.0357724210    0.0010895294    
0.0128517620    0.0347506920    0.0010765386    
0.0130744230    0.0352557140    0.0010762909    
0.0132970840    0.0328294220    0.0010335171    
0.0135197450    0.0322752280    0.0010100816    
0.0137424060    0.0327352770    0.0010030930    
0.0139650670    0.0306173860    0.0009484933    
0.0141877280    0.0305757890    0.0009499436    
0.0144103890    0.0309271820    0.0009389133    
0.0146330500    0.0287626660    0.0008997124    
0.0148557110    0.0286615210    0.0008943634    
0.0150783720    0.0287936040    0.0008890134    
0.0153010330    0.0267601070    0.0008449624    
0.0155236940    0.0261000730    0.0008295148    
0.0157463550    0.0248216410    0.0007949287    
0.0159690160    0.0260231930    0.0008108527    
0.0161916770    0.0266051530    0.0008152503    
0.0164143380    0.0252345100    0.0007999877    
0.0166369990    0.0244647100    0.0007634048    
0.0168596600    0.0247610240    0.0007612473    
0.0170823210    0.0253001220    0.0007628274    
0.0173049820    0.0254569130    0.0007665103    
0.0175276430    0.0250538820    0.0007684372    
0.0177503040    0.0247552430    0.0007443713    
0.0179729650    0.0240253100    0.0007260423    
0.0181956260    0.0247171510    0.0007223039    
0.0184182870    0.0237737960    0.0007050474    
0.0186409480    0.0247109360    0.0007233588    
0.0188636090    0.0232092620    0.0006966263    
0.0190862700    0.0237412140    0.0007034627    
0.0193089310    0.0237295990    0.0007021944    
0.0195315920    0.0237329900    0.0006783624    
0.0197542530    0.0234327120    0.0006750393    
0.0199769140    0.0218186820    0.0006513765    
0.0201995750    0.0239670060    0.0006720015    
0.0204222360    0.0227702240    0.0006606312    
0.0206448970    0.0225799750    0.0006531900    
0.0208675580    0.0224933620    0.0006385111    
0.0210902190    0.0222274170    0.0006408497    
0.0213128800    0.0219698980    0.0006284814    
0.0215355410    0.0215899890    0.0006156018    
0.0217582020    0.0220112650    0.0006215789    
0.0219808630    0.0215858590    0.0006147348    
0.0222035240    0.0218840700    0.0006133578    
0.0224261850    0.0233368660    0.0006277526    
0.0226488460    0.0211912620    0.0005937069    
0.0228715070    0.0218143510    0.0006008756    
0.0230941680    0.0218474620    0.0006013316    
0.0233168290    0.0212910890    0.0005951040    
0.0235394900    0.0213605940    0.0005894961    
0.0237621510    0.0215661580    0.0005763798    
0.0239848120    0.0219094510    0.0005816213    
0.0242074730    0.0209371580    0.0005640182    
0.0244301340    0.0210001970    0.0005655112    
0.0246527950    0.0207238960    0.0005669806    
0.0248754560    0.0216704760    0.0005667542    
0.0250981170    0.0200401430    0.0005462334    
0.0253207780    0.0208091080    0.0005399956    
0.0255434390    0.0217995820    0.0005585965    
0.0257661000    0.0209035860    0.0005487659    
0.0259887610    0.0204616590    0.0005371643    
0.0262114220    0.0202812080    0.0005376397    
0.0264340830    0.0214387460    0.0005452487    
0.0266567440    0.0212157130    0.0005390536    
0.0268794050    0.0210021320    0.0005341443    
0.0271020660    0.0204551260    0.0005250084    
0.0273247270    0.0211154950    0.0005302121    
0.0275473880    0.0205806810    0.0005224129    
0.0277700490    0.0199580610    0.0005114090    
0.0279927100    0.0210921370    0.0005211511    
0.0282153710    0.0205565940    0.0005169937    
0.0284380320    0.0205374390    0.0005137572    
0.0286606930    0.0204274050    0.0005079935    
0.0288833540    0.0203021910    0.0005073962    
0.0291060150    0.0202510200    0.0005062755    
0.0293286760    0.0204166680    0.0005012584    
0.0295513370    0.0201550410    0.0004926131    
0.0297739980    0.0206997420    0.0005047216    
0.0299966590    0.0203672770    0.0004921010    
0.0302193200    0.0206347760    0.0005025404    
0.0304419810    0.0199983190    0.0004956399    
0.0306646420    0.0208922410    0.0004922981    
0.0308873030    0.0203671360    0.0004839725    
0.0311099640    0.0204152420    0.0004858019    
0.0313326250    0.0202480620    0.0004784490    
0.0315552860    0.0203934710    0.0004863867    
0.0317779470    0.0199874280    0.0004819397    
0.0320006080    0.0203214400    0.0004749089    
0.0322232690    0.0201561840    0.0004749539    
0.0324459300    0.0202201820    0.0004721559    
0.0326685910    0.0200766490    0.0004697015    
0.0328912520    0.0204863820    0.0004760415    
0.0331139130    0.0200538420    0.0004648624    
0.0333365740    0.0205205100    0.0004717670    
0.0335592350    0.0200107620    0.0004613911    
0.0337818960    0.0203081740    0.0004644371    
0.0340045570    0.0204025320    0.0004647755    
0.0342272170    0.0200948330    0.0004594380    
0.0344498780    0.0203919690    0.0004646554    
0.0346725390    0.0200108230    0.0004517680    
0.0348952000    0.0194751920    0.0004436504    
0.0351178610    0.0200822420    0.0004525737    
0.0353405220    0.0195560680    0.0004445709    
0.0355631830    0.0201111780    0.0004491385    
0.0357858440    0.0197902140    0.0004455403    
0.0360085050    0.0198797120    0.0004478958    
0.0362311660    0.0196562120    0.0004400767    
0.0364538270    0.0196328110    0.0004362847    
0.0366764880    0.0191589960    0.0004306752    
0.0368991490    0.0197042690    0.0004345590    
0.0371218100    0.0200776670    0.0004374022    
0.0373444710    0.0210918610    0.0004531956    
0.0375671320    0.0197682560    0.0004381063    
0.0377897930    0.0195411310    0.0004243062    
0.0380124540    0.0201416250    0.0004334791    
0.0382351150    0.0199177390    0.0004310633    
0.0384577760    0.0200750940    0.0004285873    
0.0386804370    0.0194443560    0.0004250196    
0.0389030980    0.0196999710    0.0004245644    
0.0391257590    0.0191806750    0.0004160873    
0.0393484200    0.0196704080    0.0004199476    
0.0395710810    0.0199661650    0.0004236628    
0.0397937420    0.0203707160    0.0004279336    
0.0400164030    0.0194673600    0.0004200393    
0.0402390640    0.0190670670    0.0004101630    
0.0404617250    0.0198629390    0.0004161661    
0.0406843860    0.0195750430    0.0004091474    
0.0409070470    0.0202294710    0.0004202633    
0.0411297080    0.0199427110    0.0004132372    
0.0413523690    0.0202608310    0.0004175938    
0.0415750300    0.0195035210    0.0004131954    
0.0417976910    0.0198118930    0.0004056783    
0.0420203520    0.0200865970    0.0004100160    
0.0422430130    0.0196318070    0.0004068823    
0.0424656740    0.0195348430    0.0004005936    
0.0426883350    0.0193973720    0.0004011628    
0.0429109960    0.0200029840    0.0004086499    
0.0431336570    0.0200356930    0.0004032216    
0.0433563180    0.0193591780    0.0003997749    
0.0435789790    0.0194195160    0.0003941069    
0.0438016400    0.0196556370    0.0003986526    
0.0440243010    0.0193934810    0.0003919675    
0.0442469620    0.0193620170    0.0003939962    
0.0444696230    0.0196612020    0.0003956048    
0.0446922840    0.0200984980    0.0003987923    
0.0449149450    0.0202810660    0.0003952441    
0.0451376060    0.0194983750    0.0003923286    
0.0453602670    0.0200037760    0.0003932148    
0.0455829280    0.0190784220    0.0003835682    
0.0458055890    0.0192937750    0.0003879763    
0.0460282500    0.0198135710    0.0003884267    
0.0462509110    0.0203800660    0.0003914903    
0.0464735720    0.0192511770    0.0003807079    
0.0466962330    0.0198748500    0.0003885841    
0.0469188940    0.0195432470    0.0003842364    
0.0471415550    0.0200269010    0.0003909596    
0.0473642160    0.0203974920    0.0003890356    
0.0475868770    0.0195341530    0.0003788222    
0.0478095380    0.0197932200    0.0003796573    
0.0480321990    0.0200921610    0.0003833516    
0.0482548600    0.0192286550    0.0003733895    
0.0484775210    0.0194644850    0.0003794023    
0.0487001820    0.0200979210    0.0003798829    
0.0489228430    0.0200189460    0.0003789320    
0.0491455040    0.0197925030    0.0003741768    
0.0493681650    0.0200765720    0.0003800909    
0.0495908260    0.0205822010    0.0003783723    
0.0498134870    0.0192746030    0.0003696416    
0.0500361480    0.0196310860    0.0003720572    
0.0502588090    0.0193756040    0.0003640899    
0.0504814700    0.0202506360    0.0003770865    
0.0507041310    0.0195868590    0.0003664458    
0.0509267920    0.0201156220    0.0003728954    
0.0511494530    0.0201279040    0.0003705220    
0.0513721140    0.0197204320    0.0003699822    
0.0515947750    0.0194307550    0.0003623854    
0.0518174360    0.0190504680    0.0003566603    
0.0520400970    0.0195181450    0.0003585085    
0.0522627580    0.0201593880    0.0003674465    
0.0524854190    0.0201686190    0.0003705189    
0.0527080800    0.0186433790    0.0003589915    
0.0529307410    0.0199004560    0.0003726390    
0.0531534020    0.0194441040    0.0003670006    
0.0533760630    0.0195102650    0.0003687752    
0.0535987240    0.0197221250    0.0003690410    
0.0538213850    0.0192913980    0.0003692176    
0.0540440460    0.0198162030    0.0003724350    
0.0542667070    0.0199625380    0.0003763838    
0.0544893680    0.0199198800    0.0003761817    
0.0547120290    0.0195848200    0.0003704492    
0.0549346900    0.0196334910    0.0003711044    
0.0551573510    0.0200194720    0.0003791458    
0.0553800120    0.0197864230    0.0003737281    
0.0556026730    0.0199829120    0.0003833663    
0.0558253340    0.0196085140    0.0003829379    
0.0560479950    0.0199151510    0.0003859206    
0.0562706560    0.0197074400    0.0003876144    
0.0564933170    0.0201908160    0.0003957462    
0.0567159780    0.0194445410    0.0003837074    
0.0569386390    0.0196296990    0.0003915772    
0.0571613000    0.0193244490    0.0003801551    
0.0573839610    0.0191666860    0.0003754567    
0.0576066220    0.0193543030    0.0003783343    
0.0578292830    0.0197333560    0.0003807570    
0.0580519440    0.0194498620    0.0003794779    
0.0582746050    0.0195355600    0.0003786359    
0.0584972660    0.0193353120    0.0003752485    
0.0587199270    0.0199124090    0.0003775246    
0.0589425880    0.0190293360    0.0003668998    
0.0591652490    0.0199410810    0.0003777967    
0.0593879100    0.0200902470    0.0003763908    
0.0596105710    0.0197382640    0.0003726855    
0.0598332320    0.0198480960    0.0003769154    
0.0600558930    0.0192990110    0.0003692957    
0.0602785540    0.0203089350    0.0003784347    
0.0605012150    0.0196406170    0.0003713718    
0.0607238760    0.0200474070    0.0003724637    
0.0609465370    0.0186631750    0.0003622040    
0.0611691980    0.0199070730    0.0003746726    
0.0613918590    0.0192471250    0.0003643878    
0.0616145200    0.0195158960    0.0003696086    
0.0618371810    0.0196628950    0.0003673543    
0.0620598420    0.0193871030    0.0003651450    
0.0622825030    0.0193040340    0.0003699340    
0.0625051640    0.0194547680    0.0003661598    
0.0627278250    0.0192168760    0.0003631648    
0.0629504860    0.0198847380    0.0003664183    
0.0631731470    0.0201445310    0.0003733671    
0.0633958080    0.0200270710    0.0003744195    
0.0636184690    0.0196820610    0.0003763500    
0.0638411300    0.0195345730    0.0003735298    
0.0640637910    0.0204984370    0.0003853253    
0.0642864520    0.0195011140    0.0003750214    
0.0645091130    0.0199764900    0.0003828910    
0.0647317740    0.0205280640    0.0003885689    
0.0649544350    0.0194334560    0.0003776514    
0.0651770960    0.0192437930    0.0003737540    
0.0653997570    0.0195073440    0.0003754886    
0.0656224180    0.0192148010    0.0003734727    
0.0658450790    0.0197665060    0.0003733519    
0.0660677400    0.0193874860    0.0003713287    
0.0662904010    0.0196929240    0.0003787101    
0.0665130620    0.0196740620    0.0003768867    
0.0667357230    0.0194898980    0.0003817881    
0.0669583840    0.0197385730    0.0003829305    
0.0671810450    0.0194110040    0.0003776431    
0.0674037060    0.0199527050    0.0003893628    
0.0676263670    0.0192348360    0.0003794953    
0.0678490280    0.0199617660    0.0003842355    
0.0680716890    0.0191889490    0.0003775626    
0.0682943500    0.0195993610    0.0003773996    
0.0685170110    0.0204763940    0.0003818203    
0.0687396720    0.0199003230    0.0003754110    
0.0689623330    0.0200136590    0.0003752854    
0.0691849940    0.0195641790    0.0003736181    
0.0694076550    0.0196644660    0.0003743745    
0.0696303160    0.0189755160    0.0003648463    
0.0698529770    0.0192523270    0.0003667276    
0.0700756380    0.0197551010    0.0003667166    
0.0702982990    0.0194364190    0.0003677080    
0.0705209600    0.0193281930    0.0003640355    
0.0707436210    0.0194907530    0.0003638843    
0.0709662820    0.0197008400    0.0003702015    
0.0711889430    0.0194370410    0.0003631982    
0.0714116040    0.0198776450    0.0003680414    
0.0716342650    0.0196557220    0.0003644952    
0.0718569260    0.0198865920    0.0003651529    
0.0720795870    0.0195949400    0.0003639317    
0.0723022480    0.0194513110    0.0003631480    
0.0725249090    0.0193786940    0.0003581286    
0.0727475700    0.0196774900    0.0003639614    
0.0729702310    0.0198551140    0.0003626845    
0.0731928920    0.0194798950    0.0003606769    
0.0734155530    0.0191760850    0.0003571393    
0.0736382140    0.0195676810    0.0003584522    
0.0738608750    0.0196084790    0.0003611438    
0.0740835360    0.0195244770    0.0003594748    
0.0743061970    0.0202458720    0.0003609010    
0.0745288580    0.0195546510    0.0003583338    
0.0747515190    0.0195924140    0.0003593880    
0.0749741800    0.0195484490    0.0003556616    
0.0751968410    0.0199420750    0.0003620450    
0.0754195020    0.0197870410    0.0003585221    
0.0756421630    0.0194648640    0.0003526845    
0.0758648240    0.0197832990    0.0003564125    
0.0760874850    0.0199182610    0.0003574544    
0.0763101460    0.0196879790    0.0003550411    
0.0765328070    0.0192761640    0.0003549029    
0.0767554680    0.0199114300    0.0003582560    
0.0769781290    0.0197023620    0.0003543224    
0.0772007900    0.0197324590    0.0003517490    
0.0774234510    0.0190760650    0.0003478163    
0.0776461120    0.0195715930    0.0003519706    
0.0778687730    0.0196248470    0.0003512848    
0.0780914340    0.0192684840    0.0003505679    
0.0783140950    0.0197367760    0.0003491731    
0.0785367560    0.0191409740    0.0003494065    
0.0787594170    0.0201526310    0.0003553090    
0.0789820780    0.0196490200    0.0003490437    
0.0792047390    0.0195530370    0.0003493285    
0.0794274000    0.0201533670    0.0003561533    
0.0796500610    0.0189101870    0.0003416264    
0.0798727220    0.0190293000    0.0003423843    
0.0800953830    0.0193956480    0.0003448694    
0.0803180440    0.0197165600    0.0003501330    
0.0805407050    0.0196923180    0.0003495923    
0.0807633660    0.0202938310    0.0003545619    
0.0809860270    0.0190005080    0.0003418110    
0.0812086880    0.0199667810    0.0003473666    
0.0814313490    0.0196736420    0.0003463798    
0.0816540100    0.0190013740    0.0003396353    
0.0818766710    0.0195822220    0.0003455746    
0.0820993320    0.0194683790    0.0003439407    
0.0823219930    0.0189798940    0.0003409990    
0.0825446540    0.0195081260    0.0003431998    
0.0827673150    0.0195209050    0.0003410058    
0.0829899760    0.0196710870    0.0003417056    
0.0832126370    0.0196021460    0.0003426341    
0.0834352980    0.0187871870    0.0003346860    
0.0836579590    0.0196711740    0.0003417071    
0.0838806200    0.0196391810    0.0003424976    
0.0841032810    0.0200450040    0.0003438701    
0.0843259420    0.0191243960    0.0003348465    
0.0845486030    0.0195758600    0.0003387760    
0.0847712640    0.0191989910    0.0003334545    
0.0849939250    0.0200795590    0.0003416097    
0.0852165860    0.0193047690    0.0003353929    
0.0854392470    0.0192610280    0.0003318402    
0.0856619080    0.0194645630    0.0003360457    
0.0858845690    0.0192693620    0.0003313451    
0.0861072300    0.0202121850    0.0003416971    
0.0863298910    0.0197006030    0.0003391116    
0.0865525520    0.0193274210    0.0003329840    
0.0867752130    0.0195247910    0.0003319794    
0.0869978740    0.0192897040    0.0003308157    
0.0872205350    0.0190765390    0.0003285642    
0.0874431960    0.0192406800    0.0003299750    
0.0876658570    0.0193944190    0.0003325626    
0.0878885180    0.0193465390    0.0003327214    
0.0881111790    0.0195765850    0.0003342642    
0.0883338400    0.0199385100    0.0003324008    
0.0885565010    0.0198054870    0.0003357827    
0.0887791620    0.0192285980    0.0003265658    
0.0890018230    0.0196430030    0.0003332675    
0.0892244840    0.0190687380    0.0003289181    
0.0894471450    0.0190711310    0.0003275492    
0.0896698060    0.0193071970    0.0003283271    
0.0898924670    0.0190188790    0.0003273769    
0.0901151280    0.0194428740    0.0003274306    
0.0903377890    0.0195454040    0.0003310404    
0.0905604500    0.0190330890    0.0003251738    
0.0907831110    0.0196847690    0.0003298712    
0.0910057720    0.0189565160    0.0003251972    
0.0912284330    0.0191926480    0.0003225313    
0.0914510940    0.0192573290    0.0003266771    
0.0916737550    0.0195864630    0.0003286393    
0.0918964160    0.0192826620    0.0003274368    
0.0921190770    0.0193887280    0.0003253674    
0.0923417380    0.0201587480    0.0003319015    
0.0925643990    0.0191357720    0.0003225792    
0.0927870600    0.0190901870    0.0003235160    
0.0930097210    0.0192622330    0.0003222028    
0.0932323820    0.0197925700    0.0003290091    
