# Diamond Light Source Ltd.
# Data extracted from: /dls/b21/data/2018/cm19678-3/processed/b21-386631_00450.dat
q(1/A)          Column          Error           
0.0035000000    2.1196085000    0.0247962560    
0.0037226610    1.8636621000    0.0227614630    
0.0039453220    1.6033078000    0.0192057680    
0.0041679830    1.2685772000    0.0140296380    
0.0043906440    0.9810418700    0.0118009530    
0.0046133050    0.7884525500    0.0101560530    
0.0048359660    0.5846624700    0.0082725133    
0.0050586270    0.4514224300    0.0071447637    
0.0052812880    0.4257837500    0.0065606202    
0.0055039490    0.3860519400    0.0059399637    
0.0057266100    0.3199910600    0.0052317140    
0.0059492710    0.2696957800    0.0048029954    
0.0061719320    0.2146104600    0.0041286514    
0.0063945930    0.2038162300    0.0040722543    
0.0066172539    0.1755480200    0.0035487791    
0.0068399149    0.1663787600    0.0034004455    
0.0070625759    0.1409254100    0.0030974488    
0.0072852369    0.1283501900    0.0029117905    
0.0075078979    0.1127670600    0.0027158990    
0.0077305589    0.1012104600    0.0025239594    
0.0079532199    0.0967722050    0.0024337990    
0.0081758809    0.0908491990    0.0023800787    
0.0083985419    0.0807671910    0.0020930887    
0.0086212029    0.0751259750    0.0020186696    
0.0088438639    0.0712018610    0.0019494560    
0.0090665249    0.0643284830    0.0017896663    
0.0092891859    0.0621620280    0.0018362545    
0.0095118469    0.0583409920    0.0017107398    
0.0097345079    0.0595734060    0.0016789570    
0.0099571689    0.0529662730    0.0015504722    
0.0101798300    0.0491991860    0.0014943189    
0.0104024910    0.0468832460    0.0014537877    
0.0106251520    0.0478829890    0.0014741953    
0.0108478130    0.0448520430    0.0013894674    
0.0110704740    0.0435035850    0.0013028296    
0.0112931350    0.0408160340    0.0012656515    
0.0115157960    0.0413887630    0.0012670689    
0.0117384570    0.0393830040    0.0012253458    
0.0119611180    0.0384590310    0.0012143612    
0.0121837790    0.0351013820    0.0011406417    
0.0124064400    0.0370696630    0.0011233231    
0.0126291010    0.0351849340    0.0010806967    
0.0128517620    0.0339264170    0.0010638429    
0.0130744230    0.0315845350    0.0010188560    
0.0132970840    0.0327084100    0.0010317546    
0.0135197450    0.0317783210    0.0010024158    
0.0137424060    0.0306536970    0.0009708123    
0.0139650670    0.0312137690    0.0009578201    
0.0141877280    0.0302595930    0.0009451509    
0.0144103890    0.0289399620    0.0009083745    
0.0146330500    0.0282921270    0.0008924473    
0.0148557110    0.0275249800    0.0008765739    
0.0150783720    0.0281152400    0.0008786012    
0.0153010330    0.0279151460    0.0008631257    
0.0155236940    0.0258700240    0.0008259663    
0.0157463550    0.0280371910    0.0008449691    
0.0159690160    0.0268139040    0.0008231943    
0.0161916770    0.0257379930    0.0008019662    
0.0164143380    0.0260026110    0.0008121851    
0.0166369990    0.0260680330    0.0007881332    
0.0168596600    0.0259150390    0.0007788934    
0.0170823210    0.0252381700    0.0007619993    
0.0173049820    0.0231092360    0.0007304131    
0.0175276430    0.0257445730    0.0007790662    
0.0177503040    0.0238889900    0.0007313337    
0.0179729650    0.0238564450    0.0007235873    
0.0181956260    0.0250618740    0.0007274249    
0.0184182870    0.0238222670    0.0007058643    
0.0186409480    0.0244001290    0.0007188957    
0.0188636090    0.0239896040    0.0007083393    
0.0190862700    0.0228304580    0.0006899340    
0.0193089310    0.0227801270    0.0006880989    
0.0195315920    0.0222849860    0.0006574343    
0.0197542530    0.0229918700    0.0006687527    
0.0199769140    0.0234003630    0.0006746675    
0.0201995750    0.0226166990    0.0006528879    
0.0204222360    0.0228149290    0.0006613717    
0.0206448970    0.0217168520    0.0006406737    
0.0208675580    0.0236237210    0.0006544495    
0.0210902190    0.0218824720    0.0006359464    
0.0213128800    0.0219760350    0.0006286570    
0.0215355410    0.0232640050    0.0006391114    
0.0217582020    0.0208761610    0.0006054241    
0.0219808630    0.0223624030    0.0006257819    
0.0222035240    0.0212023530    0.0006038131    
0.0224261850    0.0206914950    0.0005911856    
0.0226488460    0.0214966710    0.0005980534    
0.0228715070    0.0220191140    0.0006037734    
0.0230941680    0.0219197880    0.0006024103    
0.0233168290    0.0219958460    0.0006049576    
0.0235394900    0.0221476700    0.0006003423    
0.0237621510    0.0222963920    0.0005861386    
0.0239848120    0.0208962420    0.0005680928    
0.0242074730    0.0207910250    0.0005621249    
0.0244301340    0.0210517620    0.0005662842    
0.0246527950    0.0213658500    0.0005757755    
0.0248754560    0.0210538110    0.0005587101    
0.0250981170    0.0199563850    0.0005451669    
0.0253207780    0.0215017440    0.0005489857    
0.0255434390    0.0197296230    0.0005314889    
0.0257661000    0.0205491660    0.0005441698    
0.0259887610    0.0204391640    0.0005369439    
0.0262114220    0.0209996940    0.0005471565    
0.0264340830    0.0212921530    0.0005434572    
0.0266567440    0.0208654340    0.0005346597    
0.0268794050    0.0210759420    0.0005351569    
0.0271020660    0.0202990950    0.0005230753    
0.0273247270    0.0208816800    0.0005273420    
0.0275473880    0.0208782480    0.0005262495    
0.0277700490    0.0205272850    0.0005187231    
0.0279927100    0.0204926520    0.0005137633    
0.0282153710    0.0198730240    0.0005083962    
0.0284380320    0.0199389660    0.0005062869    
0.0286606930    0.0207111130    0.0005115805    
0.0288833540    0.0201810170    0.0005059504    
0.0291060150    0.0201427340    0.0005049906    
0.0293286760    0.0195114280    0.0004900884    
0.0295513370    0.0212204910    0.0005055365    
0.0297739980    0.0212102370    0.0005109788    
0.0299966590    0.0199685990    0.0004873290    
0.0302193200    0.0201753320    0.0004969836    
0.0304419810    0.0205691260    0.0005027338    
0.0306646420    0.0203062940    0.0004854133    
0.0308873030    0.0206259040    0.0004871053    
0.0311099640    0.0205365780    0.0004873114    
0.0313326250    0.0203894210    0.0004801833    
0.0315552860    0.0210837820    0.0004946193    
0.0317779470    0.0203184790    0.0004859823    
0.0320006080    0.0210820290    0.0004837822    
0.0322232690    0.0202177880    0.0004757456    
0.0324459300    0.0206338760    0.0004770281    
0.0326685910    0.0204669740    0.0004743117    
0.0328912520    0.0202708080    0.0004735963    
0.0331139130    0.0202103480    0.0004667380    
0.0333365740    0.0205262420    0.0004718988    
0.0335592350    0.0202823850    0.0004645769    
0.0337818960    0.0202394760    0.0004637157    
0.0340045570    0.0205353190    0.0004663506    
0.0342272170    0.0203105930    0.0004619624    
0.0344498780    0.0197516330    0.0004573657    
0.0346725390    0.0205469190    0.0004578434    
0.0348952000    0.0203702510    0.0004537941    
0.0351178610    0.0204143180    0.0004563639    
0.0353405220    0.0199659040    0.0004492679    
0.0355631830    0.0200064300    0.0004480299    
0.0357858440    0.0200967420    0.0004490402    
0.0360085050    0.0203596850    0.0004533338    
0.0362311660    0.0203023100    0.0004473133    
0.0364538270    0.0199874200    0.0004402686    
0.0366764880    0.0205297710    0.0004458781    
0.0368991490    0.0201219910    0.0004392024    
0.0371218100    0.0192635500    0.0004285023    
0.0373444710    0.0197438350    0.0004385354    
0.0375671320    0.0203759260    0.0004448510    
0.0377897930    0.0200903190    0.0004302874    
0.0380124540    0.0202219050    0.0004344028    
0.0382351150    0.0192140890    0.0004234397    
0.0384577760    0.0193484980    0.0004208184    
0.0386804370    0.0196542290    0.0004273669    
0.0389030980    0.0193302190    0.0004206199    
0.0391257590    0.0196464970    0.0004211683    
0.0393484200    0.0193530530    0.0004166043    
0.0395710810    0.0200796490    0.0004249245    
0.0397937420    0.0191444710    0.0004149115    
0.0400164030    0.0195906510    0.0004214262    
0.0402390640    0.0199373140    0.0004194774    
0.0404617250    0.0202696950    0.0004204643    
0.0406843860    0.0198627990    0.0004122013    
0.0409070470    0.0195451890    0.0004131520    
0.0411297080    0.0193572860    0.0004071836    
0.0413523690    0.0205419910    0.0004205400    
0.0415750300    0.0190186180    0.0004080835    
0.0417976910    0.0196678610    0.0004042574    
0.0420203520    0.0197489670    0.0004066122    
0.0422430130    0.0198566080    0.0004092624    
0.0424656740    0.0198607680    0.0004039780    
0.0426883350    0.0198509300    0.0004058824    
0.0429109960    0.0196578380    0.0004051655    
0.0431336570    0.0196029630    0.0003988992    
0.0433563180    0.0200169540    0.0004065666    
0.0435789790    0.0206730010    0.0004066842    
0.0438016400    0.0197500920    0.0003996651    
0.0440243010    0.0200170000    0.0003982743    
0.0442469620    0.0195759360    0.0003962221    
0.0444696230    0.0200807300    0.0003998591    
0.0446922840    0.0198191720    0.0003960667    
0.0449149450    0.0204870560    0.0003973017    
0.0451376060    0.0198512580    0.0003959181    
0.0453602670    0.0195763950    0.0003890459    
0.0455829280    0.0203333740    0.0003960379    
0.0458055890    0.0199312850    0.0003943890    
0.0460282500    0.0201694820    0.0003919546    
0.0462509110    0.0199569810    0.0003874594    
0.0464735720    0.0196858170    0.0003850354    
0.0466962330    0.0194700270    0.0003846600    
0.0469188940    0.0195562630    0.0003844180    
0.0471415550    0.0196965850    0.0003877761    
0.0473642160    0.0188965150    0.0003745006    
0.0475868770    0.0194587760    0.0003781434    
0.0478095380    0.0203086500    0.0003846225    
0.0480321990    0.0195051570    0.0003777630    
0.0482548600    0.0198940170    0.0003798478    
0.0484775210    0.0196326650    0.0003810911    
0.0487001820    0.0197803270    0.0003769220    
0.0489228430    0.0194218650    0.0003732904    
0.0491455040    0.0197060470    0.0003734108    
0.0493681650    0.0199598160    0.0003790370    
0.0495908260    0.0204140070    0.0003768758    
0.0498134870    0.0198968900    0.0003756137    
0.0500361480    0.0200245050    0.0003758193    
0.0502588090    0.0196547600    0.0003667546    
0.0504814700    0.0194485700    0.0003695951    
0.0507041310    0.0200860820    0.0003711381    
0.0509267920    0.0191532090    0.0003639164    
0.0511494530    0.0194649100    0.0003644194    
0.0513721140    0.0195106980    0.0003680609    
0.0515947750    0.0195578700    0.0003636196    
0.0518174360    0.0193229580    0.0003592522    
0.0520400970    0.0200044410    0.0003629978    
0.0522627580    0.0197362620    0.0003636206    
0.0524854190    0.0191461360    0.0003610551    
0.0527080800    0.0193123850    0.0003654268    
0.0529307410    0.0193616010    0.0003676106    
0.0531534020    0.0198444850    0.0003708116    
0.0533760630    0.0190137040    0.0003641029    
0.0535987240    0.0189194640    0.0003615038    
0.0538213850    0.0199965600    0.0003759576    
0.0540440460    0.0190655570    0.0003653639    
0.0542667070    0.0196060900    0.0003730604    
0.0544893680    0.0198614900    0.0003756825    
0.0547120290    0.0187772410    0.0003627817    
0.0549346900    0.0198775340    0.0003734558    
0.0551573510    0.0193570830    0.0003728727    
0.0553800120    0.0195024490    0.0003710884    
0.0556026730    0.0196868640    0.0003805691    
0.0558253340    0.0194120170    0.0003810676    
0.0560479950    0.0191352560    0.0003783415    
0.0562706560    0.0199035920    0.0003895931    
0.0564933170    0.0193972880    0.0003879457    
0.0567159780    0.0202149440    0.0003912896    
0.0569386390    0.0202758850    0.0003980257    
0.0571613000    0.0204668970    0.0003912857    
0.0573839610    0.0196649510    0.0003803587    
0.0576066220    0.0199071370    0.0003837532    
0.0578292830    0.0193346850    0.0003769439    
0.0580519440    0.0196774720    0.0003817452    
0.0582746050    0.0192914320    0.0003763152    
0.0584972660    0.0194281290    0.0003762006    
0.0587199270    0.0199108120    0.0003775622    
0.0589425880    0.0191195640    0.0003678200    
0.0591652490    0.0194311600    0.0003729871    
0.0593879100    0.0197220150    0.0003729776    
0.0596105710    0.0199197470    0.0003744472    
0.0598332320    0.0197748840    0.0003762722    
0.0600558930    0.0194881860    0.0003711531    
0.0602785540    0.0194963810    0.0003708387    
0.0605012150    0.0195618160    0.0003706778    
0.0607238760    0.0195546230    0.0003679088    
0.0609465370    0.0195262200    0.0003705359    
0.0611691980    0.0190732430    0.0003667931    
0.0613918590    0.0195216230    0.0003670282    
0.0616145200    0.0195003420    0.0003695129    
0.0618371810    0.0194830310    0.0003657214    
0.0620598420    0.0193581230    0.0003649230    
0.0622825030    0.0196356230    0.0003731498    
0.0625051640    0.0194188420    0.0003658726    
0.0627278250    0.0198881570    0.0003695050    
0.0629504860    0.0197281980    0.0003650242    
0.0631731470    0.0194233410    0.0003666740    
0.0633958080    0.0194234940    0.0003687857    
0.0636184690    0.0189965150    0.0003697892    
0.0638411300    0.0201544510    0.0003794630    
0.0640637910    0.0192579740    0.0003735366    
0.0642864520    0.0200043240    0.0003798822    
0.0645091130    0.0196810920    0.0003801025    
0.0647317740    0.0197318700    0.0003810122    
0.0649544350    0.0201803230    0.0003848936    
0.0651770960    0.0197066170    0.0003782746    
0.0653997570    0.0190934740    0.0003715359    
0.0656224180    0.0193290850    0.0003746341    
0.0658450790    0.0203998240    0.0003793388    
0.0660677400    0.0201185340    0.0003783177    
0.0662904010    0.0200845250    0.0003825103    
0.0665130620    0.0199684320    0.0003797488    
0.0667357230    0.0192409900    0.0003793953    
0.0669583840    0.0193948310    0.0003796346    
0.0671810450    0.0196001550    0.0003795317    
0.0674037060    0.0194794620    0.0003847713    
0.0676263670    0.0196371460    0.0003834970    
0.0678490280    0.0194716720    0.0003795424    
0.0680716890    0.0197590670    0.0003831839    
0.0682943500    0.0191759580    0.0003733530    
0.0685170110    0.0190720100    0.0003685455    
0.0687396720    0.0197287840    0.0003738417    
0.0689623330    0.0189774610    0.0003654922    
0.0691849940    0.0197480690    0.0003754223    
0.0694076550    0.0199551350    0.0003771840    
0.0696303160    0.0192895620    0.0003679044    
0.0698529770    0.0195581690    0.0003696807    
0.0700756380    0.0198763780    0.0003678919    
0.0702982990    0.0200263570    0.0003732988    
0.0705209600    0.0192307170    0.0003631671    
0.0707436210    0.0192311750    0.0003615036    
0.0709662820    0.0197828870    0.0003710234    
0.0711889430    0.0192184480    0.0003612005    
0.0714116040    0.0192629130    0.0003623564    
0.0716342650    0.0203373200    0.0003708129    
0.0718569260    0.0198720270    0.0003650702    
0.0720795870    0.0194043420    0.0003622079    
0.0723022480    0.0189752420    0.0003587265    
0.0725249090    0.0194767920    0.0003590840    
0.0727475700    0.0199725420    0.0003667311    
0.0729702310    0.0194696760    0.0003591971    
0.0731928920    0.0193717780    0.0003597249    
0.0734155530    0.0191548280    0.0003569911    
0.0736382140    0.0196388280    0.0003591534    
0.0738608750    0.0192014510    0.0003574258    
0.0740835360    0.0194240060    0.0003585987    
0.0743061970    0.0193119910    0.0003525284    
0.0745288580    0.0200724340    0.0003630976    
0.0747515190    0.0195978870    0.0003594884    
0.0749741800    0.0187448270    0.0003483230    
0.0751968410    0.0195071400    0.0003581252    
0.0754195020    0.0190648050    0.0003519673    
0.0756421630    0.0187799560    0.0003464724    
0.0758648240    0.0199815110    0.0003582435    
0.0760874850    0.0195644900    0.0003543152    
0.0763101460    0.0201545950    0.0003592739    
0.0765328070    0.0200005210    0.0003615602    
0.0767554680    0.0195946070    0.0003554440    
0.0769781290    0.0196632490    0.0003540199    
0.0772007900    0.0189288840    0.0003445604    
0.0774234510    0.0194176020    0.0003509651    
0.0776461120    0.0196593700    0.0003528083    
0.0778687730    0.0196806470    0.0003518330    
0.0780914340    0.0193312860    0.0003511878    
0.0783140950    0.0201624690    0.0003529679    
0.0785367560    0.0195354990    0.0003530384    
0.0787594170    0.0193373930    0.0003480967    
0.0789820780    0.0196421050    0.0003490310    
0.0792047390    0.0189030120    0.0003435208    
0.0794274000    0.0196112660    0.0003513796    
0.0796500610    0.0196130700    0.0003479661    
0.0798727220    0.0199404400    0.0003505343    
0.0800953830    0.0194501360    0.0003454017    
0.0803180440    0.0194795060    0.0003480704    
0.0805407050    0.0197164430    0.0003498552    
0.0807633660    0.0198719460    0.0003509061    
0.0809860270    0.0193810110    0.0003452647    
0.0812086880    0.0197063830    0.0003451422    
0.0814313490    0.0197218390    0.0003468523    
0.0816540100    0.0193406650    0.0003427020    
0.0818766710    0.0194229870    0.0003442148    
0.0820993320    0.0197230140    0.0003462310    
0.0823219930    0.0200331200    0.0003503815    
0.0825446540    0.0195316940    0.0003434551    
0.0827673150    0.0195263580    0.0003411010    
0.0829899760    0.0197656430    0.0003425737    
0.0832126370    0.0197933340    0.0003443491    
0.0834352980    0.0193232280    0.0003394745    
0.0836579590    0.0194866710    0.0003401483    
0.0838806200    0.0195908950    0.0003421240    
0.0841032810    0.0198263770    0.0003420375    
0.0843259420    0.0194288240    0.0003375482    
0.0845486030    0.0193936660    0.0003372429    
0.0847712640    0.0196446350    0.0003373495    
0.0849939250    0.0197014860    0.0003384256    
0.0852165860    0.0196423920    0.0003383603    
0.0854392470    0.0193464710    0.0003326218    
0.0856619080    0.0196847220    0.0003379881    
0.0858845690    0.0198674640    0.0003364951    
0.0861072300    0.0191604250    0.0003327345    
0.0863298910    0.0192915480    0.0003356194    
0.0865525520    0.0195967890    0.0003353432    
0.0867752130    0.0190333780    0.0003278208    
0.0869978740    0.0187332650    0.0003260549    
0.0872205350    0.0193932010    0.0003313262    
0.0874431960    0.0194951220    0.0003321960    
0.0876658570    0.0192629360    0.0003314797    
0.0878885180    0.0200387910    0.0003386690    
0.0881111790    0.0193594010    0.0003324513    
0.0883338400    0.0193565110    0.0003275593    
0.0885565010    0.0196401860    0.0003344252    
0.0887791620    0.0198553140    0.0003318913    
0.0890018230    0.0191620860    0.0003292085    
0.0892244840    0.0195791500    0.0003333376    
0.0894471450    0.0203819870    0.0003386665    
0.0896698060    0.0193851940    0.0003290356    
0.0898924670    0.0197062440    0.0003332868    
0.0901151280    0.0192993820    0.0003262657    
0.0903377890    0.0196854650    0.0003322708    
0.0905604500    0.0194662970    0.0003288995    
0.0907831110    0.0192534440    0.0003262827    
0.0910057720    0.0195700620    0.0003304641    
0.0912284330    0.0193227070    0.0003236675    
0.0914510940    0.0193292270    0.0003273320    
0.0916737550    0.0190458760    0.0003241176    
0.0918964160    0.0193603510    0.0003281415    
0.0921190770    0.0196016850    0.0003271950    
0.0923417380    0.0196287030    0.0003275548    
0.0925643990    0.0200658090    0.0003303713    
0.0927870600    0.0197042510    0.0003287239    
0.0930097210    0.0193808250    0.0003232383    
0.0932323820    0.0196230400    0.0003276428    
