# Diamond Light Source Ltd.
# Data extracted from: /dls/b21/data/2018/cm19678-3/processed/b21-386631_00453.dat
q(1/A)          Column          Error           
0.0035000000    2.0870047000    0.0246092620    
0.0037226610    1.9032698000    0.0230062250    
0.0039453220    1.6112529000    0.0192567800    
0.0041679830    1.2960438000    0.0141832730    
0.0043906440    0.9694686100    0.0117332630    
0.0046133050    0.7695004800    0.0100350660    
0.0048359660    0.5839374000    0.0082688785    
0.0050586270    0.4621062700    0.0072301254    
0.0052812880    0.4316008800    0.0066064799    
0.0055039490    0.3756774900    0.0058606678    
0.0057266100    0.3145450400    0.0051879417    
0.0059492710    0.2704779600    0.0048108258    
0.0061719320    0.2245406100    0.0042238533    
0.0063945930    0.1980297000    0.0040147571    
0.0066172539    0.1840082100    0.0036339436    
0.0068399149    0.1649790100    0.0033867241    
0.0070625759    0.1443816600    0.0031357692    
0.0072852369    0.1276036800    0.0029038358    
0.0075078979    0.1161450000    0.0027567752    
0.0077305589    0.0977210800    0.0024805181    
0.0079532199    0.0996238960    0.0024698453    
0.0081758809    0.0845197190    0.0022960873    
0.0083985419    0.0885016650    0.0021914141    
0.0086212029    0.0767267780    0.0020404326    
0.0088438639    0.0703733340    0.0019384313    
0.0090665249    0.0664437030    0.0018191810    
0.0092891859    0.0629984660    0.0018489019    
0.0095118469    0.0598675850    0.0017332911    
0.0097345079    0.0564708520    0.0016349487    
0.0099571689    0.0537573010    0.0015622898    
0.0101798300    0.0486721600    0.0014865627    
0.0104024910    0.0509588920    0.0015159356    
0.0106251520    0.0479911300    0.0014761262    
0.0108478130    0.0456864160    0.0014025857    
0.0110704740    0.0430509650    0.0012962690    
0.0112931350    0.0405167270    0.0012612306    
0.0115157960    0.0405888650    0.0012549923    
0.0117384570    0.0370326630    0.0011884347    
0.0119611180    0.0372838600    0.0011958804    
0.0121837790    0.0359298340    0.0011542326    
0.0124064400    0.0348015720    0.0010886127    
0.0126291010    0.0349984400    0.0010780239    
0.0128517620    0.0336717280    0.0010600341    
0.0130744230    0.0336015410    0.0010510751    
0.0132970840    0.0312226080    0.0010082306    
0.0135197450    0.0302715050    0.0009785388    
0.0137424060    0.0317412920    0.0009880633    
0.0139650670    0.0303724070    0.0009449940    
0.0141877280    0.0283509520    0.0009150230    
0.0144103890    0.0306617950    0.0009351760    
0.0146330500    0.0286684700    0.0008985259    
0.0148557110    0.0287636850    0.0008962433    
0.0150783720    0.0297733920    0.0009043024    
0.0153010330    0.0273112170    0.0008538926    
0.0155236940    0.0287284970    0.0008705605    
0.0157463550    0.0266207730    0.0008234979    
0.0159690160    0.0246494070    0.0007894128    
0.0161916770    0.0252973580    0.0007952156    
0.0164143380    0.0271286380    0.0008297345    
0.0166369990    0.0259582860    0.0007866147    
0.0168596600    0.0255028850    0.0007728147    
0.0170823210    0.0244187720    0.0007496631    
0.0173049820    0.0241337610    0.0007465637    
0.0175276430    0.0218389240    0.0007176716    
0.0177503040    0.0238080500    0.0007302258    
0.0179729650    0.0250506510    0.0007416111    
0.0181956260    0.0251554320    0.0007289133    
0.0184182870    0.0231195220    0.0006955009    
0.0186409480    0.0232647920    0.0007020984    
0.0188636090    0.0240819790    0.0007098303    
0.0190862700    0.0229430100    0.0006917578    
0.0193089310    0.0228507510    0.0006892895    
0.0195315920    0.0236900070    0.0006779651    
0.0197542530    0.0225721020    0.0006627397    
0.0199769140    0.0226499440    0.0006638816    
0.0201995750    0.0237372780    0.0006689876    
0.0204222360    0.0221327390    0.0006515268    
0.0206448970    0.0220272340    0.0006453525    
0.0208675580    0.0219818230    0.0006314114    
0.0210902190    0.0213172500    0.0006277931    
0.0213128800    0.0227575680    0.0006398536    
0.0215355410    0.0224469150    0.0006279011    
0.0217582020    0.0216038470    0.0006159969    
0.0219808630    0.0220551740    0.0006215809    
0.0222035240    0.0206079600    0.0005953969    
0.0224261850    0.0210369290    0.0005962078    
0.0226488460    0.0207221700    0.0005872872    
0.0228715070    0.0217952210    0.0006008047    
0.0230941680    0.0205862240    0.0005839036    
0.0233168290    0.0216875670    0.0006008120    
0.0235394900    0.0220417350    0.0005990133    
0.0237621510    0.0211021500    0.0005703284    
0.0239848120    0.0222479540    0.0005862851    
0.0242074730    0.0196126700    0.0005460619    
0.0244301340    0.0210136680    0.0005658740    
0.0246527950    0.0210941920    0.0005722070    
0.0248754560    0.0211207610    0.0005596990    
0.0250981170    0.0209468910    0.0005586334    
0.0253207780    0.0214534410    0.0005484679    
0.0255434390    0.0210687820    0.0005493297    
0.0257661000    0.0205421900    0.0005441759    
0.0259887610    0.0214060980    0.0005495975    
0.0262114220    0.0204368340    0.0005398716    
0.0264340830    0.0217855260    0.0005498171    
0.0266567440    0.0210100390    0.0005366063    
0.0268794050    0.0205262370    0.0005282273    
0.0271020660    0.0198749650    0.0005176755    
0.0273247270    0.0205028950    0.0005226319    
0.0275473880    0.0207796530    0.0005251005    
0.0277700490    0.0211772450    0.0005269667    
0.0279927100    0.0205644960    0.0005147562    
0.0282153710    0.0211032160    0.0005239903    
0.0284380320    0.0200490660    0.0005077747    
0.0286606930    0.0206301240    0.0005106717    
0.0288833540    0.0210258030    0.0005165250    
0.0291060150    0.0203906610    0.0005081809    
0.0293286760    0.0209223450    0.0005075907    
0.0295513370    0.0208305970    0.0005009614    
0.0297739980    0.0197648020    0.0004933498    
0.0299966590    0.0208324450    0.0004978485    
0.0302193200    0.0206602590    0.0005030119    
0.0304419810    0.0204044870    0.0005008084    
0.0306646420    0.0209172500    0.0004927506    
0.0308873030    0.0211051880    0.0004928214    
0.0311099640    0.0207406620    0.0004898154    
0.0313326250    0.0200234830    0.0004759409    
0.0315552860    0.0206271010    0.0004893217    
0.0317779470    0.0213723600    0.0004985167    
0.0320006080    0.0206676460    0.0004790908    
0.0322232690    0.0213001960    0.0004884030    
0.0324459300    0.0199904430    0.0004696165    
0.0326685910    0.0202654620    0.0004720563    
0.0328912520    0.0199682190    0.0004701333    
0.0331139130    0.0198726160    0.0004629055    
0.0333365740    0.0205770840    0.0004725684    
0.0335592350    0.0192890810    0.0004531400    
0.0337818960    0.0207994720    0.0004701722    
0.0340045570    0.0206381040    0.0004676009    
0.0342272170    0.0198239240    0.0004564769    
0.0344498780    0.0206381290    0.0004676014    
0.0346725390    0.0199216020    0.0004509043    
0.0348952000    0.0201450270    0.0004513601    
0.0351178610    0.0203196510    0.0004553870    
0.0353405220    0.0201855050    0.0004518136    
0.0355631830    0.0202545590    0.0004508813    
0.0357858440    0.0198029090    0.0004458261    
0.0360085050    0.0200035390    0.0004494326    
0.0362311660    0.0201321970    0.0004455160    
0.0364538270    0.0197327170    0.0004375336    
0.0366764880    0.0205372040    0.0004460396    
0.0368991490    0.0198607580    0.0004364211    
0.0371218100    0.0201668270    0.0004385129    
0.0373444710    0.0192735290    0.0004333593    
0.0375671320    0.0191105610    0.0004308948    
0.0377897930    0.0203188500    0.0004328061    
0.0380124540    0.0200611940    0.0004327515    
0.0382351150    0.0198464990    0.0004304298    
0.0384577760    0.0198773870    0.0004266084    
0.0386804370    0.0189083570    0.0004192551    
0.0389030980    0.0198133230    0.0004259206    
0.0391257590    0.0202858500    0.0004280439    
0.0393484200    0.0196471410    0.0004198337    
0.0395710810    0.0201858690    0.0004261240    
0.0397937420    0.0194482520    0.0004182662    
0.0400164030    0.0196975000    0.0004226503    
0.0402390640    0.0193529940    0.0004133595    
0.0404617250    0.0194830530    0.0004122993    
0.0406843860    0.0200069070    0.0004137687    
0.0409070470    0.0202337120    0.0004204422    
0.0411297080    0.0188244920    0.0004016134    
0.0413523690    0.0188699900    0.0004031350    
0.0415750300    0.0200941550    0.0004195397    
0.0417976910    0.0195336740    0.0004029489    
0.0420203520    0.0196137450    0.0004052911    
0.0422430130    0.0200747540    0.0004115788    
0.0424656740    0.0197117760    0.0004025327    
0.0426883350    0.0201403810    0.0004089049    
0.0429109960    0.0194143390    0.0004027213    
0.0431336570    0.0200647850    0.0004036437    
0.0433563180    0.0194789870    0.0004011386    
0.0435789790    0.0198241340    0.0003983192    
0.0438016400    0.0201941340    0.0004042062    
0.0440243010    0.0197467930    0.0003956487    
0.0442469620    0.0192460760    0.0003929408    
0.0444696230    0.0197136390    0.0003962591    
0.0446922840    0.0202064050    0.0003999896    
0.0449149450    0.0200936790    0.0003935401    
0.0451376060    0.0194081930    0.0003915458    
0.0453602670    0.0192044970    0.0003854025    
0.0455829280    0.0184501890    0.0003773211    
0.0458055890    0.0192905380    0.0003880681    
0.0460282500    0.0196357900    0.0003868042    
0.0462509110    0.0205361170    0.0003931123    
0.0464735720    0.0204086400    0.0003921115    
0.0466962330    0.0207390560    0.0003970698    
0.0469188940    0.0196313760    0.0003852253    
0.0471415550    0.0201313930    0.0003921039    
0.0473642160    0.0193636900    0.0003791703    
0.0475868770    0.0195540350    0.0003791365    
0.0478095380    0.0197403340    0.0003792713    
0.0480321990    0.0197903370    0.0003805834    
0.0482548600    0.0203873230    0.0003845980    
0.0484775210    0.0197211740    0.0003820183    
0.0487001820    0.0201898480    0.0003808727    
0.0489228430    0.0193140600    0.0003723203    
0.0491455040    0.0202511350    0.0003786086    
0.0493681650    0.0192901920    0.0003726921    
0.0495908260    0.0196975310    0.0003702700    
0.0498134870    0.0191947530    0.0003689934    
0.0500361480    0.0194320010    0.0003702845    
0.0502588090    0.0192579580    0.0003630993    
0.0504814700    0.0189005390    0.0003644165    
0.0507041310    0.0194965220    0.0003657170    
0.0509267920    0.0197480900    0.0003695915    
0.0511494530    0.0192330790    0.0003623083    
0.0513721140    0.0199345110    0.0003721043    
0.0515947750    0.0200654020    0.0003683741    
0.0518174360    0.0203656070    0.0003688840    
0.0520400970    0.0194450040    0.0003579509    
0.0522627580    0.0197367050    0.0003636905    
0.0524854190    0.0192075560    0.0003616992    
0.0527080800    0.0202324300    0.0003740978    
0.0529307410    0.0193755920    0.0003678100    
0.0531534020    0.0195466850    0.0003680854    
0.0533760630    0.0190833610    0.0003648353    
0.0535987240    0.0200249940    0.0003719831    
0.0538213850    0.0197633870    0.0003738268    
0.0540440460    0.0200670570    0.0003749051    
0.0542667070    0.0195918850    0.0003729927    
0.0544893680    0.0193355310    0.0003707419    
0.0547120290    0.0194781860    0.0003695578    
0.0549346900    0.0195548390    0.0003704791    
0.0551573510    0.0199532770    0.0003786398    
0.0553800120    0.0200322120    0.0003761628    
0.0556026730    0.0201723580    0.0003853028    
0.0558253340    0.0193516950    0.0003805439    
0.0560479950    0.0194340300    0.0003813528    
0.0562706560    0.0202159440    0.0003927092    
0.0564933170    0.0194431180    0.0003884741    
0.0567159780    0.0196009720    0.0003853713    
0.0569386390    0.0202050630    0.0003974019    
0.0571613000    0.0192096290    0.0003791456    
0.0573839610    0.0200989250    0.0003846024    
0.0576066220    0.0197885380    0.0003826776    
0.0578292830    0.0198048260    0.0003815683    
0.0580519440    0.0198920360    0.0003838903    
0.0582746050    0.0193057590    0.0003765231    
0.0584972660    0.0197193660    0.0003790784    
0.0587199270    0.0195742350    0.0003744251    
0.0589425880    0.0194733400    0.0003712745    
0.0591652490    0.0198321160    0.0003768839    
0.0593879100    0.0196515370    0.0003723779    
0.0596105710    0.0200818680    0.0003760359    
0.0598332320    0.0193093370    0.0003718839    
0.0600558930    0.0195023130    0.0003713547    
0.0602785540    0.0197221830    0.0003730474    
0.0605012150    0.0197656410    0.0003726714    
0.0607238760    0.0193885900    0.0003664099    
0.0609465370    0.0196528660    0.0003718028    
0.0611691980    0.0197434370    0.0003732492    
0.0613918590    0.0195217880    0.0003670962    
0.0616145200    0.0202778910    0.0003768760    
0.0618371810    0.0190642970    0.0003618354    
0.0620598420    0.0193582500    0.0003649902    
0.0622825030    0.0195717940    0.0003726102    
0.0625051640    0.0189914280    0.0003618892    
0.0627278250    0.0193253490    0.0003643051    
0.0629504860    0.0196339950    0.0003642176    
0.0631731470    0.0196034870    0.0003684371    
0.0633958080    0.0198858190    0.0003732164    
0.0636184690    0.0193850440    0.0003736193    
0.0638411300    0.0190825470    0.0003693012    
0.0640637910    0.0196925730    0.0003777963    
0.0642864520    0.0191455780    0.0003717062    
0.0645091130    0.0195854060    0.0003792461    
0.0647317740    0.0194887790    0.0003787265    
0.0649544350    0.0196442000    0.0003798153    
0.0651770960    0.0192924560    0.0003743462    
0.0653997570    0.0193824440    0.0003744046    
0.0656224180    0.0193288190    0.0003746993    
0.0658450790    0.0197791860    0.0003735914    
0.0660677400    0.0198909690    0.0003762401    
0.0662904010    0.0200407840    0.0003821628    
0.0665130620    0.0197300290    0.0003775434    
0.0667357230    0.0199589030    0.0003864784    
0.0669583840    0.0190078680    0.0003758963    
0.0671810450    0.0196293060    0.0003798825    
0.0674037060    0.0194256900    0.0003843094    
0.0676263670    0.0196067950    0.0003832699    
0.0678490280    0.0200411770    0.0003851225    
0.0680716890    0.0194019690    0.0003797743    
0.0682943500    0.0194228680    0.0003758170    
0.0685170110    0.0198839620    0.0003763769    
0.0687396720    0.0195729360    0.0003724296    
0.0689623330    0.0199067890    0.0003744021    
0.0691849940    0.0193839600    0.0003720125    
0.0694076550    0.0201620540    0.0003792031    
0.0696303160    0.0198159870    0.0003729583    
0.0698529770    0.0190060430    0.0003644913    
0.0700756380    0.0199244440    0.0003684031    
0.0702982990    0.0185161200    0.0003590122    
0.0705209600    0.0196561880    0.0003672290    
0.0707436210    0.0188710490    0.0003581676    
0.0709662820    0.0196995550    0.0003703081    
0.0711889430    0.0193272710    0.0003622873    
0.0714116040    0.0197472020    0.0003669495    
0.0716342650    0.0193436810    0.0003617063    
0.0718569260    0.0192888160    0.0003597383    
0.0720795870    0.0190934800    0.0003593599    
0.0723022480    0.0191585000    0.0003605198    
0.0725249090    0.0195765600    0.0003600677    
0.0727475700    0.0194004530    0.0003615061    
0.0729702310    0.0199938060    0.0003640657    
0.0731928920    0.0197062260    0.0003628825    
0.0734155530    0.0194146790    0.0003594695    
0.0736382140    0.0186800680    0.0003503402    
0.0738608750    0.0195478450    0.0003607006    
0.0740835360    0.0198350240    0.0003624385    
0.0743061970    0.0194284200    0.0003536534    
0.0745288580    0.0197643130    0.0003603652    
0.0747515190    0.0192421710    0.0003562754    
0.0749741800    0.0195933630    0.0003561841    
0.0751968410    0.0196194360    0.0003592195    
0.0754195020    0.0195137230    0.0003561515    
0.0756421630    0.0194901390    0.0003530266    
0.0758648240    0.0196546350    0.0003553655    
0.0760874850    0.0196806960    0.0003554302    
0.0763101460    0.0199889100    0.0003578589    
0.0765328070    0.0199227610    0.0003609220    
0.0767554680    0.0196791020    0.0003562740    
0.0769781290    0.0196448640    0.0003539184    
0.0772007900    0.0191867070    0.0003469618    
0.0774234510    0.0198434570    0.0003548570    
0.0776461120    0.0195208090    0.0003516264    
0.0778687730    0.0196248520    0.0003513975    
0.0780914340    0.0196318690    0.0003539717    
0.0783140950    0.0200832300    0.0003523374    
0.0785367560    0.0195617190    0.0003533392    
0.0787594170    0.0192503670    0.0003473754    
0.0789820780    0.0196926460    0.0003495430    
0.0792047390    0.0197279500    0.0003510000    
0.0794274000    0.0194231270    0.0003497534    
0.0796500610    0.0193299130    0.0003455077    
0.0798727220    0.0198367010    0.0003496845    
0.0800953830    0.0195492170    0.0003463431    
0.0803180440    0.0194554500    0.0003479184    
0.0805407050    0.0194875930    0.0003478818    
0.0807633660    0.0187509820    0.0003409270    
0.0809860270    0.0189880840    0.0003418088    
0.0812086880    0.0191329970    0.0003401455    
0.0814313490    0.0196008290    0.0003458491    
0.0816540100    0.0199551290    0.0003481664    
0.0818766710    0.0188808040    0.0003394379    
0.0820993320    0.0190917360    0.0003407066    
0.0823219930    0.0194886340    0.0003456497    
0.0825446540    0.0195508490    0.0003436856    
0.0827673150    0.0194142120    0.0003401817    
0.0829899760    0.0200757170    0.0003453128    
0.0832126370    0.0193570260    0.0003405943    
0.0834352980    0.0199924630    0.0003453656    
0.0836579590    0.0202421140    0.0003467417    
0.0838806200    0.0187731870    0.0003349686    
0.0841032810    0.0191960480    0.0003366174    
0.0843259420    0.0192891940    0.0003363939    
0.0845486030    0.0196060170    0.0003391456    
0.0847712640    0.0191359680    0.0003330135    
0.0849939250    0.0190107620    0.0003325003    
0.0852165860    0.0196261800    0.0003382819    
0.0854392470    0.0193878000    0.0003330372    
0.0856619080    0.0193899680    0.0003355088    
0.0858845690    0.0197093190    0.0003352138    
0.0861072300    0.0191558010    0.0003327546    
0.0863298910    0.0189655970    0.0003328322    
0.0865525520    0.0195694400    0.0003351698    
0.0867752130    0.0191249920    0.0003286683    
0.0869978740    0.0200117130    0.0003370581    
0.0872205350    0.0197343180    0.0003342880    
0.0874431960    0.0195474810    0.0003327020    
0.0876658570    0.0194468030    0.0003331183    
0.0878885180    0.0190154010    0.0003299674    
0.0881111790    0.0189494980    0.0003289724    
0.0883338400    0.0195076910    0.0003288955    
0.0885565010    0.0195618480    0.0003338180    
0.0887791620    0.0189911940    0.0003246477    
0.0890018230    0.0192934970    0.0003303952    
0.0892244840    0.0196657190    0.0003341342    
0.0894471450    0.0195562270    0.0003317952    
0.0896698060    0.0196603840    0.0003314228    
0.0898924670    0.0197866830    0.0003340268    
0.0901151280    0.0197477830    0.0003300939    
0.0903377890    0.0191315490    0.0003276219    
0.0905604500    0.0193955180    0.0003283605    
0.0907831110    0.0197803680    0.0003307772    
0.0910057720    0.0187509660    0.0003235330    
0.0912284330    0.0189663220    0.0003207268    
0.0914510940    0.0193639510    0.0003276852    
0.0916737550    0.0197259360    0.0003299131    
0.0918964160    0.0199237330    0.0003329420    
0.0921190770    0.0193683840    0.0003253009    
0.0923417380    0.0193405340    0.0003252003    
0.0925643990    0.0194636440    0.0003254353    
0.0927870600    0.0198485360    0.0003299850    
0.0930097210    0.0190588690    0.0003206002    
0.0932323820    0.0187162230    0.0003200407    
