# Diamond Light Source Ltd.
# Data extracted from: /dls/b21/data/2018/cm19678-3/processed/b21-386631_00460.dat
q(1/A)          Column          Error           
0.0035000000    2.0494867000    0.0243951940    
0.0037226610    1.8575108000    0.0227355630    
0.0039453220    1.6351278000    0.0194053960    
0.0041679830    1.2785811000    0.0140920960    
0.0043906440    0.9905779000    0.0118642720    
0.0046133050    0.7900500400    0.0101715690    
0.0048359660    0.5886623500    0.0083050346    
0.0050586270    0.4637730100    0.0072455689    
0.0052812880    0.4185315000    0.0065078552    
0.0055039490    0.3867238800    0.0059481904    
0.0057266100    0.3242592300    0.0052692001    
0.0059492710    0.2620103900    0.0047365028    
0.0061719320    0.2218281500    0.0041996641    
0.0063945930    0.1947410500    0.0039826094    
0.0066172539    0.1861417900    0.0036561700    
0.0068399149    0.1665500600    0.0034039465    
0.0070625759    0.1480218000    0.0031761118    
0.0072852369    0.1290113400    0.0029207828    
0.0075078979    0.1127522000    0.0027171177    
0.0077305589    0.1015036800    0.0025289137    
0.0079532199    0.0979134710    0.0024493681    
0.0081758809    0.0864486520    0.0023229151    
0.0083985419    0.0794385870    0.0020768702    
0.0086212029    0.0759092020    0.0020302094    
0.0088438639    0.0696722780    0.0019293953    
0.0090665249    0.0626502750    0.0017670765    
0.0092891859    0.0624432210    0.0018413501    
0.0095118469    0.0588530010    0.0017191145    
0.0097345079    0.0580716380    0.0016585128    
0.0099571689    0.0555196430    0.0015882215    
0.0101798300    0.0503856750    0.0015130083    
0.0104024910    0.0508123910    0.0015142599    
0.0106251520    0.0469327520    0.0014602454    
0.0108478130    0.0437779200    0.0013734355    
0.0110704740    0.0435483750    0.0013041709    
0.0112931350    0.0438831240    0.0013130188    
0.0115157960    0.0409265880    0.0012606230    
0.0117384570    0.0413317580    0.0012559422    
0.0119611180    0.0364643030    0.0011830582    
0.0121837790    0.0356940810    0.0011508234    
0.0124064400    0.0366307770    0.0011172282    
0.0126291010    0.0346895190    0.0010736137    
0.0128517620    0.0355308480    0.0010892680    
0.0130744230    0.0312222510    0.0010135172    
0.0132970840    0.0320253430    0.0010214498    
0.0135197450    0.0344698710    0.0010445416    
0.0137424060    0.0312392540    0.0009805452    
0.0139650670    0.0321579800    0.0009726995    
0.0141877280    0.0301725400    0.0009442761    
0.0144103890    0.0307393390    0.0009366701    
0.0146330500    0.0300120770    0.0009196472    
0.0148557110    0.0291182130    0.0009020505    
0.0150783720    0.0272371960    0.0008652180    
0.0153010330    0.0275965910    0.0008586285    
0.0155236940    0.0269789860    0.0008439179    
0.0157463550    0.0256443720    0.0008085243    
0.0159690160    0.0259307710    0.0008099412    
0.0161916770    0.0257394780    0.0008024021    
0.0164143380    0.0250389960    0.0007974041    
0.0166369990    0.0267150420    0.0007982646    
0.0168596600    0.0254261660    0.0007719088    
0.0170823210    0.0237211290    0.0007391230    
0.0173049820    0.0249356030    0.0007591177    
0.0175276430    0.0250866820    0.0007694432    
0.0177503040    0.0237118770    0.0007289926    
0.0179729650    0.0255287300    0.0007489040    
0.0181956260    0.0249608650    0.0007263312    
0.0184182870    0.0247470680    0.0007198052    
0.0186409480    0.0228350650    0.0006958160    
0.0188636090    0.0233652670    0.0006994210    
0.0190862700    0.0225408950    0.0006858976    
0.0193089310    0.0216592410    0.0006713019    
0.0195315920    0.0226962310    0.0006638141    
0.0197542530    0.0236581070    0.0006787219    
0.0199769140    0.0233465680    0.0006742384    
0.0201995750    0.0228286510    0.0006562776    
0.0204222360    0.0228959940    0.0006628867    
0.0206448970    0.0222311340    0.0006485488    
0.0208675580    0.0223957680    0.0006375414    
0.0210902190    0.0221270110    0.0006398191    
0.0213128800    0.0222146870    0.0006323865    
0.0215355410    0.0215479510    0.0006154046    
0.0217582020    0.0211085640    0.0006090980    
0.0219808630    0.0219471840    0.0006202641    
0.0222035240    0.0211553280    0.0006034535    
0.0224261850    0.0217611200    0.0006065854    
0.0226488460    0.0219351880    0.0006044334    
0.0228715070    0.0218760560    0.0006021186    
0.0230941680    0.0222738110    0.0006075680    
0.0233168290    0.0201530830    0.0005793604    
0.0235394900    0.0221053130    0.0006000767    
0.0237621510    0.0217794870    0.0005796026    
0.0239848120    0.0212888030    0.0005736992    
0.0242074730    0.0217708980    0.0005755148    
0.0244301340    0.0216833760    0.0005750123    
0.0246527950    0.0217761530    0.0005815769    
0.0248754560    0.0212684320    0.0005618396    
0.0250981170    0.0211248590    0.0005611887    
0.0253207780    0.0206118520    0.0005377818    
0.0255434390    0.0206672040    0.0005442508    
0.0257661000    0.0217676140    0.0005603588    
0.0259887610    0.0211520980    0.0005465093    
0.0262114220    0.0208643320    0.0005456709    
0.0264340830    0.0200505040    0.0005276448    
0.0266567440    0.0206674870    0.0005323914    
0.0268794050    0.0209480120    0.0005338048    
0.0271020660    0.0204414280    0.0005251761    
0.0273247270    0.0213031120    0.0005329110    
0.0275473880    0.0204217320    0.0005207322    
0.0277700490    0.0206402700    0.0005204165    
0.0279927100    0.0210294950    0.0005207171    
0.0282153710    0.0207657770    0.0005199575    
0.0284380320    0.0206286710    0.0005152340    
0.0286606930    0.0207830340    0.0005127317    
0.0288833540    0.0199732390    0.0005035982    
0.0291060150    0.0201254520    0.0005050337    
0.0293286760    0.0200244250    0.0004967448    
0.0295513370    0.0204104880    0.0004960494    
0.0297739980    0.0208377470    0.0005067327    
0.0299966590    0.0202272660    0.0004907276    
0.0302193200    0.0199264960    0.0004941635    
0.0304419810    0.0203197020    0.0004999336    
0.0306646420    0.0204549710    0.0004874378    
0.0308873030    0.0204744080    0.0004855629    
0.0311099640    0.0197474510    0.0004781031    
0.0313326250    0.0201160870    0.0004771993    
0.0315552860    0.0207221750    0.0004906117    
0.0317779470    0.0207117440    0.0004909154    
0.0320006080    0.0199813130    0.0004712259    
0.0322232690    0.0201153340    0.0004747829    
0.0324459300    0.0204453670    0.0004750884    
0.0326685910    0.0202569780    0.0004721150    
0.0328912520    0.0196271040    0.0004662559    
0.0331139130    0.0194974390    0.0004586681    
0.0333365740    0.0197437250    0.0004630545    
0.0335592350    0.0197493480    0.0004586674    
0.0337818960    0.0208133520    0.0004704859    
0.0340045570    0.0189344200    0.0004480343    
0.0342272170    0.0202052860    0.0004610004    
0.0344498780    0.0203868610    0.0004649013    
0.0346725390    0.0197204320    0.0004487715    
0.0348952000    0.0201787090    0.0004518880    
0.0351178610    0.0199144950    0.0004509745    
0.0353405220    0.0197334670    0.0004468750    
0.0355631830    0.0202982060    0.0004515174    
0.0357858440    0.0192536790    0.0004397468    
0.0360085050    0.0198855300    0.0004482545    
0.0362311660    0.0197608710    0.0004415355    
0.0364538270    0.0197070530    0.0004373948    
0.0366764880    0.0202019300    0.0004425313    
0.0368991490    0.0197780470    0.0004356567    
0.0371218100    0.0199608300    0.0004364131    
0.0373444710    0.0195691530    0.0004368158    
0.0375671320    0.0205330130    0.0004467924    
0.0377897930    0.0197881200    0.0004272587    
0.0380124540    0.0199251190    0.0004314252    
0.0382351150    0.0199998630    0.0004322338    
0.0384577760    0.0193775800    0.0004213513    
0.0386804370    0.0207256300    0.0004390866    
0.0389030980    0.0200922420    0.0004290512    
0.0391257590    0.0203897660    0.0004292820    
0.0393484200    0.0198667290    0.0004223142    
0.0395710810    0.0192541820    0.0004163127    
0.0397937420    0.0199923180    0.0004242178    
0.0400164030    0.0193294990    0.0004188233    
0.0402390640    0.0198518230    0.0004187925    
0.0404617250    0.0202381790    0.0004203535    
0.0406843860    0.0198061830    0.0004118252    
0.0409070470    0.0198538090    0.0004166154    
0.0411297080    0.0198659330    0.0004127109    
0.0413523690    0.0195289500    0.0004102503    
0.0415750300    0.0197394220    0.0004159587    
0.0417976910    0.0206280160    0.0004142205    
0.0420203520    0.0195346490    0.0004046080    
0.0422430130    0.0195984010    0.0004068020    
0.0424656740    0.0201608850    0.0004072283    
0.0426883350    0.0201122830    0.0004087559    
0.0429109960    0.0203969870    0.0004129249    
0.0431336570    0.0199887940    0.0004030130    
0.0433563180    0.0196903770    0.0004034439    
0.0435789790    0.0193728620    0.0003938908    
0.0438016400    0.0201671290    0.0004040706    
0.0440243010    0.0193474780    0.0003917585    
0.0442469620    0.0195960910    0.0003966300    
0.0444696230    0.0196869420    0.0003961227    
0.0446922840    0.0198950400    0.0003970283    
0.0449149450    0.0196597490    0.0003893974    
0.0451376060    0.0200930200    0.0003985267    
0.0453602670    0.0199293510    0.0003927395    
0.0455829280    0.0194663180    0.0003877014    
0.0458055890    0.0199518050    0.0003947951    
0.0460282500    0.0194506500    0.0003851048    
0.0462509110    0.0200678900    0.0003887345    
0.0464735720    0.0194120770    0.0003825458    
0.0466962330    0.0189727720    0.0003799116    
0.0469188940    0.0196596050    0.0003856307    
0.0471415550    0.0193882500    0.0003849270    
0.0473642160    0.0198298220    0.0003838349    
0.0475868770    0.0196774240    0.0003804577    
0.0478095380    0.0200743460    0.0003825941    
0.0480321990    0.0194153820    0.0003770866    
0.0482548600    0.0193119100    0.0003744419    
0.0484775210    0.0197121180    0.0003820580    
0.0487001820    0.0194124430    0.0003735927    
0.0489228430    0.0201744320    0.0003806497    
0.0491455040    0.0196838370    0.0003733924    
0.0493681650    0.0196921520    0.0003766807    
0.0495908260    0.0200171310    0.0003733864    
0.0498134870    0.0195482720    0.0003725001    
0.0500361480    0.0191131190    0.0003673562    
0.0502588090    0.0192160040    0.0003628245    
0.0504814700    0.0199748190    0.0003747548    
0.0507041310    0.0194958020    0.0003658322    
0.0509267920    0.0198927790    0.0003710668    
0.0511494530    0.0191844470    0.0003619707    
0.0513721140    0.0201910790    0.0003746161    
0.0515947750    0.0206404830    0.0003737403    
0.0518174360    0.0197707620    0.0003635781    
0.0520400970    0.0196360100    0.0003598246    
0.0522627580    0.0196291630    0.0003628193    
0.0524854190    0.0198678690    0.0003679866    
0.0527080800    0.0196437440    0.0003687382    
0.0529307410    0.0197448510    0.0003714221    
0.0531534020    0.0199897650    0.0003723580    
0.0533760630    0.0199127050    0.0003728030    
0.0535987240    0.0194091320    0.0003663405    
0.0538213850    0.0198190290    0.0003744776    
0.0540440460    0.0199122350    0.0003735807    
0.0542667070    0.0199531440    0.0003765414    
0.0544893680    0.0188718360    0.0003663916    
0.0547120290    0.0201366800    0.0003758780    
0.0549346900    0.0204598910    0.0003790819    
0.0551573510    0.0195208120    0.0003746390    
0.0553800120    0.0195578700    0.0003718065    
0.0556026730    0.0202300050    0.0003859817    
0.0558253340    0.0196641380    0.0003837316    
0.0560479950    0.0200610350    0.0003875850    
0.0562706560    0.0199546190    0.0003902929    
0.0564933170    0.0187803720    0.0003819232    
0.0567159780    0.0195837240    0.0003853302    
0.0569386390    0.0207034780    0.0004024077    
0.0571613000    0.0198963940    0.0003859923    
0.0573839610    0.0201197010    0.0003849295    
0.0576066220    0.0194981260    0.0003799859    
0.0578292830    0.0195458570    0.0003791918    
0.0580519440    0.0190453410    0.0003757567    
0.0582746050    0.0199946840    0.0003833101    
0.0584972660    0.0194554240    0.0003766585    
0.0587199270    0.0197808050    0.0003765212    
0.0589425880    0.0192242500    0.0003690154    
0.0591652490    0.0193651620    0.0003725448    
0.0593879100    0.0193963360    0.0003700755    
0.0596105710    0.0190242720    0.0003661223    
0.0598332320    0.0186915260    0.0003660083    
0.0600558930    0.0194021120    0.0003705231    
0.0602785540    0.0194670270    0.0003707501    
0.0605012150    0.0198561740    0.0003736485    
0.0607238760    0.0197964880    0.0003703676    
0.0609465370    0.0197082120    0.0003724502    
0.0611691980    0.0202791230    0.0003784051    
0.0613918590    0.0197351360    0.0003692198    
0.0616145200    0.0198218110    0.0003727380    
0.0618371810    0.0197642310    0.0003685407    
0.0620598420    0.0192196680    0.0003638028    
0.0622825030    0.0201385400    0.0003780927    
0.0625051640    0.0197079560    0.0003687759    
0.0627278250    0.0204927670    0.0003752725    
0.0629504860    0.0194442700    0.0003625745    
0.0631731470    0.0200669660    0.0003728915    
0.0633958080    0.0194224640    0.0003689658    
0.0636184690    0.0193763630    0.0003736602    
0.0638411300    0.0196674240    0.0003750431    
0.0640637910    0.0193793400    0.0003749046    
0.0642864520    0.0196205220    0.0003764140    
0.0645091130    0.0196866570    0.0003803519    
0.0647317740    0.0193765840    0.0003777607    
0.0649544350    0.0191502600    0.0003751349    
0.0651770960    0.0190073180    0.0003716935    
0.0653997570    0.0197499950    0.0003780639    
0.0656224180    0.0193053740    0.0003745969    
0.0658450790    0.0198629960    0.0003745070    
0.0660677400    0.0197475720    0.0003750065    
0.0662904010    0.0193613770    0.0003757543    
0.0665130620    0.0196419850    0.0003768257    
0.0667357230    0.0196277440    0.0003833866    
0.0669583840    0.0193180970    0.0003790778    
0.0671810450    0.0198557500    0.0003821949    
0.0674037060    0.0202375010    0.0003923883    
0.0676263670    0.0196498670    0.0003838187    
0.0678490280    0.0196250220    0.0003812301    
0.0680716890    0.0203447490    0.0003890215    
0.0682943500    0.0200980000    0.0003824204    
0.0685170110    0.0200398120    0.0003779751    
0.0687396720    0.0195009030    0.0003718676    
0.0689623330    0.0194056880    0.0003697831    
0.0691849940    0.0198541330    0.0003766228    
0.0694076550    0.0192691440    0.0003708349    
0.0696303160    0.0201593450    0.0003763011    
0.0698529770    0.0192355630    0.0003668078    
0.0700756380    0.0196173730    0.0003656751    
0.0702982990    0.0188837210    0.0003626793    
0.0705209600    0.0192848430    0.0003638650    
0.0707436210    0.0199584310    0.0003684651    
0.0709662820    0.0194340760    0.0003679271    
0.0711889430    0.0197207190    0.0003660783    
0.0714116040    0.0197467320    0.0003670675    
0.0716342650    0.0193565890    0.0003619477    
0.0718569260    0.0196507970    0.0003632192    
0.0720795870    0.0201620380    0.0003694019    
0.0723022480    0.0202846310    0.0003710879    
0.0725249090    0.0199806200    0.0003638860    
0.0727475700    0.0187662850    0.0003556671    
0.0729702310    0.0204715040    0.0003685121    
0.0731928920    0.0197193750    0.0003631247    
0.0734155530    0.0200869890    0.0003657625    
0.0736382140    0.0203362660    0.0003656632    
0.0738608750    0.0197806740    0.0003629634    
0.0740835360    0.0191325290    0.0003560812    
0.0743061970    0.0199567290    0.0003585491    
0.0745288580    0.0190937040    0.0003543169    
0.0747515190    0.0194728430    0.0003585241    
0.0749741800    0.0190232990    0.0003510814    
0.0751968410    0.0195732950    0.0003589165    
0.0754195020    0.0192730660    0.0003540666    
0.0756421630    0.0201302140    0.0003588963    
0.0758648240    0.0194877250    0.0003539714    
0.0760874850    0.0193277010    0.0003523458    
0.0763101460    0.0192778080    0.0003515531    
0.0765328070    0.0197790280    0.0003597376    
0.0767554680    0.0196341440    0.0003559855    
0.0769781290    0.0193389530    0.0003512691    
0.0772007900    0.0194945980    0.0003498513    
0.0774234510    0.0194248930    0.0003512116    
0.0776461120    0.0196479200    0.0003528871    
0.0778687730    0.0193231360    0.0003488022    
0.0780914340    0.0192809370    0.0003509107    
0.0783140950    0.0196822040    0.0003489182    
0.0785367560    0.0199451910    0.0003569047    
0.0787594170    0.0197838400    0.0003522733    
0.0789820780    0.0192587750    0.0003457863    
0.0792047390    0.0198348520    0.0003520671    
0.0794274000    0.0196503640    0.0003519108    
0.0796500610    0.0195961840    0.0003479953    
0.0798727220    0.0189616870    0.0003419992    
0.0800953830    0.0193105190    0.0003443369    
0.0803180440    0.0194808840    0.0003482618    
0.0805407050    0.0197926710    0.0003507112    
0.0807633660    0.0200474760    0.0003526339    
0.0809860270    0.0192655100    0.0003444116    
0.0812086880    0.0195572410    0.0003440107    
0.0814313490    0.0196200150    0.0003461338    
0.0816540100    0.0193605770    0.0003430549    
0.0818766710    0.0199681410    0.0003491916    
0.0820993320    0.0199806050    0.0003486640    
0.0823219930    0.0190354150    0.0003417208    
0.0825446540    0.0197271290    0.0003453467    
0.0827673150    0.0205723970    0.0003502985    
0.0829899760    0.0199702420    0.0003445194    
0.0832126370    0.0195078710    0.0003420329    
0.0834352980    0.0193670030    0.0003400337    
0.0836579590    0.0191025720    0.0003369527    
0.0838806200    0.0187737520    0.0003350853    
0.0841032810    0.0192974590    0.0003376180    
0.0843259420    0.0196484230    0.0003396251    
0.0845486030    0.0199889390    0.0003425557    
0.0847712640    0.0193053140    0.0003345954    
0.0849939250    0.0192329450    0.0003345492    
0.0852165860    0.0194467340    0.0003368442    
0.0854392470    0.0195095050    0.0003341923    
0.0856619080    0.0197921270    0.0003390833    
0.0858845690    0.0197281760    0.0003354860    
0.0861072300    0.0192726980    0.0003338797    
0.0863298910    0.0190776150    0.0003339251    
0.0865525520    0.0196169650    0.0003356885    
0.0867752130    0.0202285950    0.0003381309    
0.0869978740    0.0193092770    0.0003312001    
0.0872205350    0.0192771740    0.0003305036    
0.0874431960    0.0189428840    0.0003276257    
0.0876658570    0.0194540700    0.0003332916    
0.0878885180    0.0193604080    0.0003330584    
0.0881111790    0.0195622110    0.0003343601    
0.0883338400    0.0199368690    0.0003326047    
0.0885565010    0.0195806020    0.0003340894    
0.0887791620    0.0192981990    0.0003273704    
0.0890018230    0.0191478440    0.0003292555    
0.0892244840    0.0190823410    0.0003292507    
0.0894471450    0.0198058660    0.0003340176    
0.0896698060    0.0195672810    0.0003307474    
0.0898924670    0.0196362510    0.0003328656    
0.0901151280    0.0202247560    0.0003341680    
0.0903377890    0.0189758910    0.0003263952    
0.0905604500    0.0200092380    0.0003336264    
0.0907831110    0.0193064770    0.0003268999    
0.0910057720    0.0191600870    0.0003271526    
0.0912284330    0.0194023010    0.0003245004    
0.0914510940    0.0200704900    0.0003337211    
0.0916737550    0.0193912490    0.0003272115    
0.0918964160    0.0197254650    0.0003313917    
0.0921190770    0.0196929400    0.0003281245    
0.0923417380    0.0193972130    0.0003257851    
0.0925643990    0.0193350630    0.0003244668    
0.0927870600    0.0190602830    0.0003234741    
0.0930097210    0.0193144340    0.0003228502    
0.0932323820    0.0194077650    0.0003260083    
