# Diamond Light Source Ltd.
# Data extracted from: /dls/b21/data/2018/cm19678-3/processed/b21-386631_00462.dat
q(1/A)          Column          Error           
0.0035000000    2.0799499000    0.0245756720    
0.0037226610    1.9251080000    0.0231454070    
0.0039453220    1.6427067000    0.0194501940    
0.0041679830    1.2881944000    0.0141448850    
0.0043906440    0.9709557700    0.0117461010    
0.0046133050    0.7787780100    0.0100986820    
0.0048359660    0.5801015500    0.0082443717    
0.0050586270    0.4599184200    0.0072153498    
0.0052812880    0.4178178300    0.0065022630    
0.0055039490    0.3797658800    0.0058943996    
0.0057266100    0.3156071600    0.0051983938    
0.0059492710    0.2640620100    0.0047549806    
0.0061719320    0.2293785200    0.0042705109    
0.0063945930    0.2020687500    0.0040568204    
0.0066172539    0.1755110900    0.0035502093    
0.0068399149    0.1725308700    0.0034645032    
0.0070625759    0.1439991200    0.0031326371    
0.0072852369    0.1222649600    0.0028433711    
0.0075078979    0.1183162800    0.0027833347    
0.0077305589    0.0994862010    0.0025036394    
0.0079532199    0.0953388120    0.0024169348    
0.0081758809    0.0908167420    0.0023808631    
0.0083985419    0.0864419830    0.0021664725    
0.0086212029    0.0728675620    0.0019891063    
0.0088438639    0.0727702720    0.0019718117    
0.0090665249    0.0666367160    0.0018224175    
0.0092891859    0.0658631860    0.0018910906    
0.0095118469    0.0603587080    0.0017409556    
0.0097345079    0.0589708550    0.0016712936    
0.0099571689    0.0536561900    0.0015613306    
0.0101798300    0.0514754230    0.0015292728    
0.0104024910    0.0479236870    0.0014705777    
0.0106251520    0.0463869600    0.0014517206    
0.0108478130    0.0449407370    0.0013915475    
0.0110704740    0.0419465110    0.0012799520    
0.0112931350    0.0413289700    0.0012742267    
0.0115157960    0.0391010910    0.0012321799    
0.0117384570    0.0385452850    0.0012128597    
0.0119611180    0.0378072430    0.0012046389    
0.0121837790    0.0362872840    0.0011603394    
0.0124064400    0.0362554890    0.0011114833    
0.0126291010    0.0372807900    0.0011129834    
0.0128517620    0.0342614530    0.0010696264    
0.0130744230    0.0329326400    0.0010409012    
0.0132970840    0.0316991480    0.0010162280    
0.0135197450    0.0320005480    0.0010064260    
0.0137424060    0.0302232090    0.0009644614    
0.0139650670    0.0315691430    0.0009637468    
0.0141877280    0.0311473580    0.0009594026    
0.0144103890    0.0282558570    0.0008980301    
0.0146330500    0.0296735350    0.0009144398    
0.0148557110    0.0276088560    0.0008783547    
0.0150783720    0.0280338910    0.0008777752    
0.0153010330    0.0284243940    0.0008714057    
0.0155236940    0.0276385900    0.0008541665    
0.0157463550    0.0269950730    0.0008295385    
0.0159690160    0.0252726930    0.0007995926    
0.0161916770    0.0252638890    0.0007949495    
0.0164143380    0.0253180130    0.0008018295    
0.0166369990    0.0254028190    0.0007784077    
0.0168596600    0.0252383710    0.0007690480    
0.0170823210    0.0250105030    0.0007589401    
0.0173049820    0.0254436970    0.0007668079    
0.0175276430    0.0235523900    0.0007455379    
0.0177503040    0.0241149860    0.0007351583    
0.0179729650    0.0237269170    0.0007219871    
0.0181956260    0.0242208180    0.0007154784    
0.0184182870    0.0231765270    0.0006965857    
0.0186409480    0.0236828620    0.0007086105    
0.0188636090    0.0237836970    0.0007056514    
0.0190862700    0.0235841550    0.0007015863    
0.0193089310    0.0248630770    0.0007192352    
0.0195315920    0.0226765280    0.0006635217    
0.0197542530    0.0231904910    0.0006719765    
0.0199769140    0.0237162290    0.0006795509    
0.0201995750    0.0229792920    0.0006584351    
0.0204222360    0.0233179200    0.0006689623    
0.0206448970    0.0215686560    0.0006388084    
0.0208675580    0.0227947540    0.0006431912    
0.0210902190    0.0220897280    0.0006392757    
0.0213128800    0.0216743460    0.0006246443    
0.0215355410    0.0221803980    0.0006243666    
0.0217582020    0.0206161780    0.0006019483    
0.0219808630    0.0207724290    0.0006034317    
0.0222035240    0.0221706400    0.0006177607    
0.0224261850    0.0212705050    0.0005997047    
0.0226488460    0.0227010490    0.0006148908    
0.0228715070    0.0216769070    0.0005993678    
0.0230941680    0.0211631660    0.0005922229    
0.0233168290    0.0212021060    0.0005942440    
0.0235394900    0.0221213210    0.0006002901    
0.0237621510    0.0217483610    0.0005791846    
0.0239848120    0.0221852160    0.0005856494    
0.0242074730    0.0223183100    0.0005827016    
0.0244301340    0.0215916100    0.0005737906    
0.0246527950    0.0216671520    0.0005801158    
0.0248754560    0.0211642690    0.0005604586    
0.0250981170    0.0204239160    0.0005517962    
0.0253207780    0.0216919800    0.0005516892    
0.0255434390    0.0212402260    0.0005517407    
0.0257661000    0.0205989110    0.0005451050    
0.0259887610    0.0210106280    0.0005446752    
0.0262114220    0.0211922980    0.0005499394    
0.0264340830    0.0200919040    0.0005281859    
0.0266567440    0.0215312150    0.0005433989    
0.0268794050    0.0211381800    0.0005362189    
0.0271020660    0.0212911970    0.0005359775    
0.0273247270    0.0211828630    0.0005314014    
0.0275473880    0.0208729220    0.0005264498    
0.0277700490    0.0202463640    0.0005154233    
0.0279927100    0.0202943010    0.0005115307    
0.0282153710    0.0204530540    0.0005160242    
0.0284380320    0.0208085690    0.0005174724    
0.0286606930    0.0200870590    0.0005040703    
0.0288833540    0.0208871970    0.0005149881    
0.0291060150    0.0204420280    0.0005089871    
0.0293286760    0.0208128140    0.0005064260    
0.0295513370    0.0210974010    0.0005043244    
0.0297739980    0.0209730300    0.0005083717    
0.0299966590    0.0207151230    0.0004966071    
0.0302193200    0.0194360520    0.0004880412    
0.0304419810    0.0211066370    0.0005095190    
0.0306646420    0.0200365560    0.0004824236    
0.0308873030    0.0208080910    0.0004895005    
0.0311099640    0.0201407550    0.0004828376    
0.0313326250    0.0205459950    0.0004822685    
0.0315552860    0.0200017550    0.0004820050    
0.0317779470    0.0209558290    0.0004937965    
0.0320006080    0.0198921550    0.0004701704    
0.0322232690    0.0203728200    0.0004778089    
0.0324459300    0.0209750020    0.0004811995    
0.0326685910    0.0201356860    0.0004706964    
0.0328912520    0.0197819190    0.0004680882    
0.0331139130    0.0196806180    0.0004608147    
0.0333365740    0.0207534530    0.0004747446    
0.0335592350    0.0198556190    0.0004598969    
0.0337818960    0.0207918160    0.0004702394    
0.0340045570    0.0203547720    0.0004645320    
0.0342272170    0.0195423970    0.0004533723    
0.0344498780    0.0196232970    0.0004561091    
0.0346725390    0.0203329260    0.0004556845    
0.0348952000    0.0199052240    0.0004488124    
0.0351178610    0.0202001900    0.0004541950    
0.0353405220    0.0200064450    0.0004499524    
0.0355631830    0.0204988180    0.0004537403    
0.0357858440    0.0198359580    0.0004463439    
0.0360085050    0.0197337120    0.0004465372    
0.0362311660    0.0202242990    0.0004466800    
0.0364538270    0.0194446920    0.0004344708    
0.0366764880    0.0205894210    0.0004467524    
0.0368991490    0.0202767990    0.0004411128    
0.0371218100    0.0195598380    0.0004320045    
0.0373444710    0.0198809150    0.0004402788    
0.0375671320    0.0196772210    0.0004373796    
0.0377897930    0.0200922970    0.0004305273    
0.0380124540    0.0192896610    0.0004244872    
0.0382351150    0.0197473950    0.0004294942    
0.0384577760    0.0193406860    0.0004209473    
0.0386804370    0.0202137430    0.0004336276    
0.0389030980    0.0208066120    0.0004366091    
0.0391257590    0.0199014600    0.0004241078    
0.0393484200    0.0193368240    0.0004166413    
0.0395710810    0.0204691230    0.0004292438    
0.0397937420    0.0196950180    0.0004210491    
0.0400164030    0.0200733840    0.0004268035    
0.0402390640    0.0206908670    0.0004275483    
0.0404617250    0.0196704210    0.0004144127    
0.0406843860    0.0192750320    0.0004062631    
0.0409070470    0.0198185870    0.0004162430    
0.0411297080    0.0201571920    0.0004157227    
0.0413523690    0.0197700100    0.0004127719    
0.0415750300    0.0198180570    0.0004167838    
0.0417976910    0.0192303900    0.0003999394    
0.0420203520    0.0195008790    0.0004042556    
0.0422430130    0.0193279490    0.0004039828    
0.0424656740    0.0199714430    0.0004053079    
0.0426883350    0.0198461930    0.0004060403    
0.0429109960    0.0191010330    0.0003995892    
0.0431336570    0.0199316620    0.0004024341    
0.0433563180    0.0194504060    0.0004009754    
0.0435789790    0.0196529140    0.0003967251    
0.0438016400    0.0193087080    0.0003953748    
0.0440243010    0.0204895030    0.0004031524    
0.0442469620    0.0199089250    0.0003997808    
0.0444696230    0.0197584240    0.0003968387    
0.0446922840    0.0195857870    0.0003939280    
0.0449149450    0.0203613480    0.0003962822    
0.0451376060    0.0194604190    0.0003922005    
0.0453602670    0.0198284840    0.0003917418    
0.0455829280    0.0198753130    0.0003917506    
0.0458055890    0.0204202640    0.0003994005    
0.0460282500    0.0198773810    0.0003893038    
0.0462509110    0.0203462480    0.0003914188    
0.0464735720    0.0200299930    0.0003885841    
0.0466962330    0.0194517880    0.0003846752    
0.0469188940    0.0191374250    0.0003804725    
0.0471415550    0.0199458760    0.0003904207    
0.0473642160    0.0198072800    0.0003836143    
0.0475868770    0.0198757840    0.0003823680    
0.0478095380    0.0196584630    0.0003786079    
0.0480321990    0.0188731800    0.0003717816    
0.0482548600    0.0202917670    0.0003838212    
0.0484775210    0.0191120700    0.0003761956    
0.0487001820    0.0189880040    0.0003694836    
0.0489228430    0.0201741750    0.0003806448    
0.0491455040    0.0198535780    0.0003749965    
0.0493681650    0.0195982330    0.0003757790    
0.0495908260    0.0201213480    0.0003743547    
0.0498134870    0.0196686900    0.0003736433    
0.0500361480    0.0197130210    0.0003730744    
0.0502588090    0.0196473430    0.0003668717    
0.0504814700    0.0196159930    0.0003713712    
0.0507041310    0.0192896150    0.0003638902    
0.0509267920    0.0196502710    0.0003687957    
0.0511494530    0.0195461690    0.0003653649    
0.0513721140    0.0198572040    0.0003715036    
0.0515947750    0.0190905120    0.0003594314    
0.0518174360    0.0195431860    0.0003614772    
0.0520400970    0.0194709190    0.0003583065    
0.0522627580    0.0200312820    0.0003665145    
0.0524854190    0.0191383410    0.0003611651    
0.0527080800    0.0190274720    0.0003629057    
0.0529307410    0.0195140370    0.0003692425    
0.0531534020    0.0192196160    0.0003651123    
0.0533760630    0.0193540930    0.0003675343    
0.0535987240    0.0195195170    0.0003673784    
0.0538213850    0.0193800890    0.0003703051    
0.0540440460    0.0194844450    0.0003695436    
0.0542667070    0.0192067880    0.0003694296    
0.0544893680    0.0197678720    0.0003749865    
0.0547120290    0.0196593240    0.0003713937    
0.0549346900    0.0196378740    0.0003713863    
0.0551573510    0.0196212230    0.0003755989    
0.0553800120    0.0195929610    0.0003721375    
0.0556026730    0.0197805250    0.0003816672    
0.0558253340    0.0196638880    0.0003837267    
0.0560479950    0.0197986950    0.0003850400    
0.0562706560    0.0193284060    0.0003841176    
0.0564933170    0.0195878810    0.0003900452    
0.0567159780    0.0195683120    0.0003851761    
0.0569386390    0.0191545790    0.0003870599    
0.0571613000    0.0195441950    0.0003825582    
0.0573839610    0.0198764200    0.0003825927    
0.0576066220    0.0193793950    0.0003788248    
0.0578292830    0.0195897450    0.0003796149    
0.0580519440    0.0194602510    0.0003798252    
0.0582746050    0.0189436380    0.0003730972    
0.0584972660    0.0194551760    0.0003766537    
0.0587199270    0.0189921980    0.0003689371    
0.0589425880    0.0194790030    0.0003714500    
0.0591652490    0.0198522640    0.0003771987    
0.0593879100    0.0195726100    0.0003717510    
0.0596105710    0.0203979880    0.0003791081    
0.0598332320    0.0193649770    0.0003725412    
0.0600558930    0.0195150780    0.0003715978    
0.0602785540    0.0191561020    0.0003677750    
0.0605012150    0.0191387450    0.0003668339    
0.0607238760    0.0194567130    0.0003671732    
0.0609465370    0.0193560340    0.0003691051    
0.0611691980    0.0199046390    0.0003748925    
0.0613918590    0.0188921630    0.0003612460    
0.0616145200    0.0193589620    0.0003683581    
0.0618371810    0.0190905200    0.0003622027    
0.0620598420    0.0203487630    0.0003743340    
0.0622825030    0.0191586980    0.0003687776    
0.0625051640    0.0198871170    0.0003704459    
0.0627278250    0.0193105100    0.0003642844    
0.0629504860    0.0190316150    0.0003587042    
0.0631731470    0.0195539570    0.0003680918    
0.0633958080    0.0198077170    0.0003726047    
0.0636184690    0.0191167110    0.0003711458    
0.0638411300    0.0196171120    0.0003745607    
0.0640637910    0.0201551270    0.0003823326    
0.0642864520    0.0197213710    0.0003773777    
0.0645091130    0.0196055740    0.0003795654    
0.0647317740    0.0195236300    0.0003791890    
0.0649544350    0.0197084970    0.0003805609    
0.0651770960    0.0192978150    0.0003745208    
0.0653997570    0.0191346000    0.0003721248    
0.0656224180    0.0198502650    0.0003798442    
0.0658450790    0.0193755310    0.0003698806    
0.0660677400    0.0196832290    0.0003743927    
0.0662904010    0.0197913780    0.0003799016    
0.0665130620    0.0198080070    0.0003784125    
0.0667357230    0.0192979980    0.0003801500    
0.0669583840    0.0190351870    0.0003762894    
0.0671810450    0.0191492620    0.0003753315    
0.0674037060    0.0195981730    0.0003861381    
0.0676263670    0.0194097130    0.0003814636    
0.0678490280    0.0197802890    0.0003827328    
0.0680716890    0.0194816150    0.0003806775    
0.0682943500    0.0192609450    0.0003743696    
0.0685170110    0.0196189470    0.0003739827    
0.0687396720    0.0192595550    0.0003695569    
0.0689623330    0.0194265800    0.0003699798    
0.0691849940    0.0193823600    0.0003721189    
0.0694076550    0.0198755130    0.0003766220    
0.0696303160    0.0199272940    0.0003741267    
0.0698529770    0.0198998110    0.0003730850    
0.0700756380    0.0198488750    0.0003678241    
0.0702982990    0.0194755490    0.0003683165    
0.0705209600    0.0199985880    0.0003705349    
0.0707436210    0.0197473030    0.0003665087    
0.0709662820    0.0196915540    0.0003703540    
0.0711889430    0.0196117400    0.0003650631    
0.0714116040    0.0195076670    0.0003648365    
0.0716342650    0.0203038560    0.0003706960    
0.0718569260    0.0193148690    0.0003600989    
0.0720795870    0.0192616410    0.0003610571    
0.0723022480    0.0196326660    0.0003650734    
0.0725249090    0.0191586190    0.0003563200    
0.0727475700    0.0193390040    0.0003610512    
0.0729702310    0.0197216490    0.0003616977    
0.0731928920    0.0196455700    0.0003624422    
0.0734155530    0.0193075060    0.0003585932    
0.0736382140    0.0195930490    0.0003589169    
0.0738608750    0.0188213710    0.0003540505    
0.0740835360    0.0187744250    0.0003527308    
0.0743061970    0.0191834680    0.0003515319    
0.0745288580    0.0192118090    0.0003554088    
0.0747515190    0.0194923980    0.0003587018    
0.0749741800    0.0189193890    0.0003501190    
0.0751968410    0.0193426970    0.0003567937    
0.0754195020    0.0196110540    0.0003571554    
0.0756421630    0.0192981420    0.0003513984    
0.0758648240    0.0193974660    0.0003531485    
0.0760874850    0.0196550390    0.0003553147    
0.0763101460    0.0198224890    0.0003564827    
0.0765328070    0.0192226410    0.0003546395    
0.0767554680    0.0188916530    0.0003491874    
0.0769781290    0.0201553860    0.0003586050    
0.0772007900    0.0191741530    0.0003469618    
0.0774234510    0.0197421460    0.0003540658    
0.0776461120    0.0198758370    0.0003549257    
0.0778687730    0.0193795550    0.0003493088    
0.0780914340    0.0199448820    0.0003568991    
0.0783140950    0.0194716500    0.0003470447    
0.0785367560    0.0196064550    0.0003538587    
0.0787594170    0.0198024060    0.0003524363    
0.0789820780    0.0186376870    0.0003401627    
0.0792047390    0.0190722110    0.0003452302    
0.0794274000    0.0197257400    0.0003525828    
0.0796500610    0.0196144740    0.0003481554    
0.0798727220    0.0193932290    0.0003458668    
0.0800953830    0.0195251730    0.0003462433    
0.0803180440    0.0192751830    0.0003464161    
0.0805407050    0.0195189910    0.0003482759    
0.0807633660    0.0191602300    0.0003447401    
0.0809860270    0.0198809650    0.0003498674    
0.0812086880    0.0195267360    0.0003437401    
0.0814313490    0.0195953400    0.0003459138    
0.0816540100    0.0194758240    0.0003440722    
0.0818766710    0.0197541630    0.0003473134    
0.0820993320    0.0200411920    0.0003491900    
0.0823219930    0.0191333240    0.0003425964    
0.0825446540    0.0201984370    0.0003494456    
0.0827673150    0.0196356820    0.0003422284    
0.0829899760    0.0194053610    0.0003396097    
0.0832126370    0.0199933650    0.0003462606    
0.0834352980    0.0190981050    0.0003376628    
0.0836579590    0.0197977160    0.0003430266    
0.0838806200    0.0198081800    0.0003441909    
0.0841032810    0.0193444670    0.0003380268    
0.0843259420    0.0193253010    0.0003368188    
0.0845486030    0.0198184430    0.0003410895    
0.0847712640    0.0197921890    0.0003387862    
0.0849939250    0.0194771100    0.0003366640    
0.0852165860    0.0195456740    0.0003376978    
0.0854392470    0.0197267890    0.0003360460    
0.0856619080    0.0193619960    0.0003353764    
0.0858845690    0.0193228690    0.0003320198    
0.0861072300    0.0200070270    0.0003401788    
0.0863298910    0.0192293370    0.0003352481    
0.0865525520    0.0194443870    0.0003342065    
0.0867752130    0.0187136140    0.0003252206    
0.0869978740    0.0196953260    0.0003344924    
0.0872205350    0.0194695840    0.0003321468    
0.0874431960    0.0191976290    0.0003298192    
0.0876658570    0.0190141560    0.0003294996    
0.0878885180    0.0188502310    0.0003286387    
0.0881111790    0.0192933630    0.0003320525    
0.0883338400    0.0194427780    0.0003284553    
0.0885565010    0.0198368640    0.0003362663    
0.0887791620    0.0192590800    0.0003270363    
0.0890018230    0.0196684690    0.0003336996    
0.0892244840    0.0202012330    0.0003387638    
0.0894471450    0.0195352300    0.0003317256    
0.0896698060    0.0190191550    0.0003260799    
0.0898924670    0.0192974490    0.0003299794    
0.0901151280    0.0193576550    0.0003269240    
0.0903377890    0.0193798640    0.0003298491    
0.0905604500    0.0196919100    0.0003309682    
0.0907831110    0.0193394410    0.0003271768    
0.0910057720    0.0195341020    0.0003303282    
0.0912284330    0.0195268780    0.0003255384    
0.0914510940    0.0190048520    0.0003247388    
0.0916737550    0.0191094130    0.0003248228    
0.0918964160    0.0198309940    0.0003322749    
0.0921190770    0.0192607840    0.0003245022    
0.0923417380    0.0193422500    0.0003253211    
0.0925643990    0.0192313640    0.0003235935    
0.0927870600    0.0190874880    0.0003237028    
0.0930097210    0.0193411700    0.0003230716    
0.0932323820    0.0190899010    0.0003233255    
