# Diamond Light Source Ltd.
# Data extracted from: /dls/b21/data/2018/cm19678-3/processed/b21-386631_00454.dat
q(1/A)          Column          Error           
0.0035000000    2.0645784000    0.0244796380    
0.0037226610    1.9062328000    0.0230269050    
0.0039453220    1.6176271000    0.0192971620    
0.0041679830    1.2833155000    0.0141151580    
0.0043906440    0.9590497000    0.0116714520    
0.0046133050    0.7741368100    0.0100664670    
0.0048359660    0.5937993500    0.0083394178    
0.0050586270    0.4631230300    0.0072389488    
0.0052812880    0.4248269300    0.0065552218    
0.0055039490    0.3861934900    0.0059428450    
0.0057266100    0.3128236300    0.0051743507    
0.0059492710    0.2636106400    0.0047499340    
0.0061719320    0.2255485100    0.0042338335    
0.0063945930    0.2023923900    0.0040592296    
0.0066172539    0.1809659400    0.0036042128    
0.0068399149    0.1644625100    0.0033818267    
0.0070625759    0.1452339600    0.0031453906    
0.0072852369    0.1236025300    0.0028582917    
0.0075078979    0.1148640500    0.0027418619    
0.0077305589    0.0954773980    0.0024521722    
0.0079532199    0.0948707240    0.0024104965    
0.0081758809    0.0924014180    0.0024010495    
0.0083985419    0.0845066570    0.0021416407    
0.0086212029    0.0802189210    0.0020866019    
0.0088438639    0.0716720890    0.0019564728    
0.0090665249    0.0617268530    0.0017536321    
0.0092891859    0.0650761370    0.0018793695    
0.0095118469    0.0616388450    0.0017589573    
0.0097345079    0.0546379680    0.0016083910    
0.0099571689    0.0553597720    0.0015855956    
0.0101798300    0.0499555040    0.0015062151    
0.0104024910    0.0474077210    0.0014623378    
0.0106251520    0.0452324550    0.0014332452    
0.0108478130    0.0466449890    0.0014173946    
0.0110704740    0.0427099960    0.0012912813    
0.0112931350    0.0409192070    0.0012676325    
0.0115157960    0.0421511940    0.0012790719    
0.0117384570    0.0427637870    0.0012772425    
0.0119611180    0.0400936620    0.0012402738    
0.0121837790    0.0377187430    0.0011827603    
0.0124064400    0.0340947000    0.0010776304    
0.0126291010    0.0330473000    0.0010476699    
0.0128517620    0.0326784730    0.0010444085    
0.0130744230    0.0325572960    0.0010347388    
0.0132970840    0.0317511910    0.0010168519    
0.0135197450    0.0299624200    0.0009736478    
0.0137424060    0.0315336030    0.0009849443    
0.0139650670    0.0312620160    0.0009588493    
0.0141877280    0.0296870680    0.0009364493    
0.0144103890    0.0272741880    0.0008821103    
0.0146330500    0.0286190540    0.0008978596    
0.0148557110    0.0275415920    0.0008771030    
0.0150783720    0.0290113400    0.0008927623    
0.0153010330    0.0281456230    0.0008669430    
0.0155236940    0.0276799530    0.0008546289    
0.0157463550    0.0273661360    0.0008350478    
0.0159690160    0.0257932970    0.0008076195    
0.0161916770    0.0252534580    0.0007946212    
0.0164143380    0.0275159430    0.0008357373    
0.0166369990    0.0247724240    0.0007685298    
0.0168596600    0.0262117700    0.0007835763    
0.0170823210    0.0250692380    0.0007596739    
0.0173049820    0.0243474880    0.0007499527    
0.0175276430    0.0244626690    0.0007596516    
0.0177503040    0.0246426880    0.0007430050    
0.0179729650    0.0242002470    0.0007290025    
0.0181956260    0.0236404060    0.0007067078    
0.0184182870    0.0243807650    0.0007143061    
0.0186409480    0.0238850190    0.0007114815    
0.0188636090    0.0242761420    0.0007127721    
0.0190862700    0.0236161420    0.0007019170    
0.0193089310    0.0234177960    0.0006978737    
0.0195315920    0.0232687760    0.0006719918    
0.0197542530    0.0243876480    0.0006889606    
0.0199769140    0.0236285830    0.0006781540    
0.0201995750    0.0227246420    0.0006546415    
0.0204222360    0.0215050170    0.0006422986    
0.0206448970    0.0217488710    0.0006413392    
0.0208675580    0.0228941900    0.0006444595    
0.0210902190    0.0218771860    0.0006360614    
0.0213128800    0.0217913580    0.0006261988    
0.0215355410    0.0229266790    0.0006346523    
0.0217582020    0.0215387890    0.0006151429    
0.0219808630    0.0211142980    0.0006082514    
0.0222035240    0.0220754550    0.0006163059    
0.0224261850    0.0225631160    0.0006175306    
0.0226488460    0.0215928860    0.0005995711    
0.0228715070    0.0218336140    0.0006014062    
0.0230941680    0.0215685710    0.0005977449    
0.0233168290    0.0215762640    0.0005993407    
0.0235394900    0.0221447530    0.0006004839    
0.0237621510    0.0211072440    0.0005704661    
0.0239848120    0.0213261030    0.0005740794    
0.0242074730    0.0216855960    0.0005742640    
0.0244301340    0.0210797090    0.0005668309    
0.0246527950    0.0214563730    0.0005771681    
0.0248754560    0.0209626680    0.0005576677    
0.0250981170    0.0227401660    0.0005821252    
0.0253207780    0.0212903170    0.0005464447    
0.0255434390    0.0210165630    0.0005487148    
0.0257661000    0.0209797210    0.0005500070    
0.0259887610    0.0212842380    0.0005480970    
0.0262114220    0.0209553080    0.0005467429    
0.0264340830    0.0203750780    0.0005317852    
0.0266567440    0.0201788940    0.0005259488    
0.0268794050    0.0205991760    0.0005292289    
0.0271020660    0.0212958930    0.0005359260    
0.0273247270    0.0211341410    0.0005306803    
0.0275473880    0.0213288400    0.0005320584    
0.0277700490    0.0208019940    0.0005223401    
0.0279927100    0.0197575080    0.0005046161    
0.0282153710    0.0203535130    0.0005146607    
0.0284380320    0.0198480930    0.0005052843    
0.0286606930    0.0200534770    0.0005035448    
0.0288833540    0.0201170440    0.0005053003    
0.0291060150    0.0197875160    0.0005006691    
0.0293286760    0.0204962840    0.0005024565    
0.0295513370    0.0200161800    0.0004911299    
0.0297739980    0.0201760510    0.0004985161    
0.0299966590    0.0200163520    0.0004880586    
0.0302193200    0.0199180150    0.0004939532    
0.0304419810    0.0204462970    0.0005013818    
0.0306646420    0.0198076820    0.0004795613    
0.0308873030    0.0200513160    0.0004804175    
0.0311099640    0.0205952540    0.0004881543    
0.0313326250    0.0210693370    0.0004882711    
0.0315552860    0.0207017450    0.0004902654    
0.0317779470    0.0205052050    0.0004883576    
0.0320006080    0.0195284750    0.0004657565    
0.0322232690    0.0209916950    0.0004849118    
0.0324459300    0.0201718280    0.0004717992    
0.0326685910    0.0205453180    0.0004753620    
0.0328912520    0.0193973200    0.0004634199    
0.0331139130    0.0203735400    0.0004687600    
0.0333365740    0.0209945610    0.0004773958    
0.0335592350    0.0204649900    0.0004668043    
0.0337818960    0.0197733050    0.0004584825    
0.0340045570    0.0200496510    0.0004609420    
0.0342272170    0.0207118550    0.0004666442    
0.0344498780    0.0201450490    0.0004620375    
0.0346725390    0.0208043160    0.0004608413    
0.0348952000    0.0204533530    0.0004548560    
0.0351178610    0.0197733130    0.0004492774    
0.0353405220    0.0187944500    0.0004360203    
0.0355631830    0.0195968500    0.0004435539    
0.0357858440    0.0203498160    0.0004519950    
0.0360085050    0.0200487690    0.0004499947    
0.0362311660    0.0205117920    0.0004497508    
0.0364538270    0.0210863060    0.0004523459    
0.0366764880    0.0200673660    0.0004409612    
0.0368991490    0.0208055930    0.0004467353    
0.0371218100    0.0204768940    0.0004419245    
0.0373444710    0.0194633620    0.0004355408    
0.0375671320    0.0209129920    0.0004508116    
0.0377897930    0.0205450670    0.0004352612    
0.0380124540    0.0200473620    0.0004326545    
0.0382351150    0.0204955700    0.0004374644    
0.0384577760    0.0206239890    0.0004345988    
0.0386804370    0.0197218810    0.0004282309    
0.0389030980    0.0204591720    0.0004328590    
0.0391257590    0.0200739260    0.0004258536    
0.0393484200    0.0198403270    0.0004219436    
0.0395710810    0.0198488310    0.0004226026    
0.0397937420    0.0198398470    0.0004225071    
0.0400164030    0.0205640020    0.0004318987    
0.0402390640    0.0201966160    0.0004223238    
0.0404617250    0.0200288410    0.0004180849    
0.0406843860    0.0199946180    0.0004136916    
0.0409070470    0.0200201310    0.0004182677    
0.0411297080    0.0200031730    0.0004140459    
0.0413523690    0.0195637120    0.0004105279    
0.0415750300    0.0193192280    0.0004114201    
0.0417976910    0.0196963600    0.0004046723    
0.0420203520    0.0204645370    0.0004140380    
0.0422430130    0.0200880410    0.0004117647    
0.0424656740    0.0196507580    0.0004019577    
0.0426883350    0.0194643240    0.0004020319    
0.0429109960    0.0194357380    0.0004029918    
0.0431336570    0.0194685960    0.0003976497    
0.0433563180    0.0196819970    0.0004032722    
0.0435789790    0.0198049040    0.0003981740    
0.0438016400    0.0198510290    0.0004008060    
0.0440243010    0.0199973640    0.0003981990    
0.0442469620    0.0196118240    0.0003967047    
0.0444696230    0.0202760900    0.0004019207    
0.0446922840    0.0197044170    0.0003950376    
0.0449149450    0.0196282530    0.0003890026    
0.0451376060    0.0198237330    0.0003957629    
0.0453602670    0.0199286050    0.0003926485    
0.0455829280    0.0188637180    0.0003815722    
0.0458055890    0.0194201330    0.0003894165    
0.0460282500    0.0198082020    0.0003885455    
0.0462509110    0.0194647200    0.0003827665    
0.0464735720    0.0198182650    0.0003864451    
0.0466962330    0.0201053160    0.0003910031    
0.0469188940    0.0191522070    0.0003805408    
0.0471415550    0.0199223630    0.0003901100    
0.0473642160    0.0191678480    0.0003772935    
0.0475868770    0.0194999320    0.0003786573    
0.0478095380    0.0199710490    0.0003815273    
0.0480321990    0.0199488490    0.0003821506    
0.0482548600    0.0193254620    0.0003744935    
0.0484775210    0.0194890750    0.0003798095    
0.0487001820    0.0195047960    0.0003744006    
0.0489228430    0.0192110370    0.0003713708    
0.0491455040    0.0196188190    0.0003726959    
0.0493681650    0.0199646590    0.0003791974    
0.0495908260    0.0196117810    0.0003695078    
0.0498134870    0.0192916230    0.0003699680    
0.0500361480    0.0196131330    0.0003720512    
0.0502588090    0.0195639060    0.0003660163    
0.0504814700    0.0197133120    0.0003722144    
0.0507041310    0.0197345290    0.0003679869    
0.0509267920    0.0198497190    0.0003705861    
0.0511494530    0.0202002910    0.0003713515    
0.0513721140    0.0190292010    0.0003636006    
0.0515947750    0.0195020290    0.0003632097    
0.0518174360    0.0187531780    0.0003540227    
0.0520400970    0.0200099240    0.0003631571    
0.0522627580    0.0201637830    0.0003676488    
0.0524854190    0.0197027170    0.0003663760    
0.0527080800    0.0200712650    0.0003726498    
0.0529307410    0.0193453510    0.0003675672    
0.0531534020    0.0196623340    0.0003692172    
0.0533760630    0.0194995870    0.0003688370    
0.0535987240    0.0192004350    0.0003642881    
0.0538213850    0.0192518520    0.0003690018    
0.0540440460    0.0193573000    0.0003682598    
0.0542667070    0.0192343720    0.0003696185    
0.0544893680    0.0201223400    0.0003782555    
0.0547120290    0.0195951010    0.0003707100    
0.0549346900    0.0195736010    0.0003707015    
0.0551573510    0.0193040840    0.0003724742    
0.0553800120    0.0198957430    0.0003749245    
0.0556026730    0.0193822110    0.0003777269    
0.0558253340    0.0193039710    0.0003801202    
0.0560479950    0.0200524970    0.0003874201    
0.0562706560    0.0192899040    0.0003836556    
0.0564933170    0.0199213920    0.0003932705    
0.0567159780    0.0190979410    0.0003804401    
0.0569386390    0.0202333950    0.0003977284    
0.0571613000    0.0200750540    0.0003876389    
0.0573839610    0.0197357110    0.0003811574    
0.0576066220    0.0191345250    0.0003763461    
0.0578292830    0.0197434290    0.0003810223    
0.0580519440    0.0198227350    0.0003832672    
0.0582746050    0.0190753750    0.0003743149    
0.0584972660    0.0194398540    0.0003764276    
0.0587199270    0.0198511890    0.0003771102    
0.0589425880    0.0195488450    0.0003720385    
0.0591652490    0.0198082480    0.0003767025    
0.0593879100    0.0193669070    0.0003697160    
0.0596105710    0.0200515010    0.0003757969    
0.0598332320    0.0193211620    0.0003720427    
0.0600558930    0.0196060410    0.0003723859    
0.0602785540    0.0193669890    0.0003697175    
0.0605012150    0.0198336660    0.0003733572    
0.0607238760    0.0202659680    0.0003746538    
0.0609465370    0.0193480420    0.0003689527    
0.0611691980    0.0192470870    0.0003685721    
0.0613918590    0.0197957840    0.0003697080    
0.0616145200    0.0194770800    0.0003694039    
0.0618371810    0.0194467050    0.0003654905    
0.0620598420    0.0192665550    0.0003641687    
0.0622825030    0.0199100080    0.0003758613    
0.0625051640    0.0193822780    0.0003656383    
0.0627278250    0.0199619840    0.0003703019    
0.0629504860    0.0190440310    0.0003587471    
0.0631731470    0.0193103910    0.0003657166    
0.0633958080    0.0194282100    0.0003689418    
0.0636184690    0.0191232230    0.0003711324    
0.0638411300    0.0204525650    0.0003823744    
0.0640637910    0.0190593570    0.0003717175    
0.0642864520    0.0199297780    0.0003792881    
0.0645091130    0.0198398770    0.0003817479    
0.0647317740    0.0195229310    0.0003791039    
0.0649544350    0.0199868310    0.0003831596    
0.0651770960    0.0195368740    0.0003767556    
0.0653997570    0.0192569120    0.0003732352    
0.0656224180    0.0197258220    0.0003785735    
0.0658450790    0.0196710310    0.0003726136    
0.0660677400    0.0191412260    0.0003691258    
0.0662904010    0.0201258040    0.0003830188    
0.0665130620    0.0196336250    0.0003766654    
0.0667357230    0.0195969340    0.0003830040    
0.0669583840    0.0197560030    0.0003832686    
0.0671810450    0.0195090350    0.0003787627    
0.0674037060    0.0194684040    0.0003847781    
0.0676263670    0.0195890460    0.0003831427    
0.0678490280    0.0200016010    0.0003847885    
0.0680716890    0.0193694750    0.0003795019    
0.0682943500    0.0196166680    0.0003777329    
0.0685170110    0.0204160890    0.0003814259    
0.0687396720    0.0203006600    0.0003793356    
0.0689623330    0.0195101230    0.0003706979    
0.0691849940    0.0204384110    0.0003820431    
0.0694076550    0.0202025900    0.0003796299    
0.0696303160    0.0196522620    0.0003714592    
0.0698529770    0.0198146850    0.0003722093    
0.0700756380    0.0199837620    0.0003689956    
0.0702982990    0.0192725540    0.0003663163    
0.0705209600    0.0188648880    0.0003598047    
0.0707436210    0.0195555610    0.0003646497    
0.0709662820    0.0197809010    0.0003711167    
0.0711889430    0.0197191180    0.0003659856    
0.0714116040    0.0197110460    0.0003666577    
0.0716342650    0.0198557380    0.0003665067    
0.0718569260    0.0197296730    0.0003638700    
0.0720795870    0.0197543110    0.0003655699    
0.0723022480    0.0196720610    0.0003653640    
0.0725249090    0.0187002600    0.0003519591    
0.0727475700    0.0199711190    0.0003668287    
0.0729702310    0.0199522160    0.0003637308    
0.0731928920    0.0194904120    0.0003609336    
0.0734155530    0.0196257430    0.0003614618    
0.0736382140    0.0194206560    0.0003572606    
0.0738608750    0.0197056820    0.0003621976    
0.0740835360    0.0194754750    0.0003591818    
0.0743061970    0.0197550640    0.0003566570    
0.0745288580    0.0196376400    0.0003592518    
0.0747515190    0.0195173410    0.0003588571    
0.0749741800    0.0195592340    0.0003559167    
0.0751968410    0.0195518070    0.0003586431    
0.0754195020    0.0194404120    0.0003555248    
0.0756421630    0.0192837780    0.0003511951    
0.0758648240    0.0195951130    0.0003548698    
0.0760874850    0.0195506160    0.0003542964    
0.0763101460    0.0190709480    0.0003495874    
0.0765328070    0.0191950840    0.0003543121    
0.0767554680    0.0198644970    0.0003579915    
0.0769781290    0.0197133830    0.0003545779    
0.0772007900    0.0193419580    0.0003484048    
0.0774234510    0.0194927940    0.0003517501    
0.0776461120    0.0195191870    0.0003516542    
0.0778687730    0.0193967280    0.0003493914    
0.0780914340    0.0200260210    0.0003575505    
0.0783140950    0.0196429130    0.0003484956    
0.0785367560    0.0194004610    0.0003519222    
0.0787594170    0.0196061320    0.0003506130    
0.0789820780    0.0193746950    0.0003467516    
0.0792047390    0.0196452610    0.0003503059    
0.0794274000    0.0201459650    0.0003562451    
0.0796500610    0.0198102220    0.0003498162    
0.0798727220    0.0196750140    0.0003482985    
0.0800953830    0.0195048370    0.0003459915    
0.0803180440    0.0203811890    0.0003561426    
0.0805407050    0.0198649990    0.0003512767    
0.0807633660    0.0194561280    0.0003473201    
0.0809860270    0.0190665220    0.0003425554    
0.0812086880    0.0200146560    0.0003479363    
0.0814313490    0.0196421840    0.0003462556    
0.0816540100    0.0195710770    0.0003448414    
0.0818766710    0.0192210740    0.0003425243    
0.0820993320    0.0194916520    0.0003442981    
0.0823219930    0.0198489890    0.0003488728    
0.0825446540    0.0194467920    0.0003428112    
0.0827673150    0.0196931600    0.0003426582    
0.0829899760    0.0195161690    0.0003405076    
0.0832126370    0.0194096540    0.0003410982    
0.0834352980    0.0194840790    0.0003409874    
0.0836579590    0.0193380250    0.0003389508    
0.0838806200    0.0196684800    0.0003429042    
0.0841032810    0.0195077040    0.0003393799    
0.0843259420    0.0192703790    0.0003362704    
0.0845486030    0.0202796980    0.0003449647    
0.0847712640    0.0195231670    0.0003364064    
0.0849939250    0.0198180800    0.0003395279    
0.0852165860    0.0189718880    0.0003326355    
0.0854392470    0.0190605930    0.0003302548    
0.0856619080    0.0195572390    0.0003369935    
0.0858845690    0.0196228350    0.0003345179    
0.0861072300    0.0197328100    0.0003377698    
0.0863298910    0.0194550920    0.0003371407    
0.0865525520    0.0190401670    0.0003306462    
0.0867752130    0.0188301800    0.0003261646    
0.0869978740    0.0191136700    0.0003294481    
0.0872205350    0.0195974820    0.0003331672    
0.0874431960    0.0196994650    0.0003340332    
0.0876658570    0.0198110760    0.0003362643    
0.0878885180    0.0194094400    0.0003334089    
0.0881111790    0.0195424600    0.0003341202    
0.0883338400    0.0197398040    0.0003308863    
0.0885565010    0.0197090180    0.0003351118    
0.0887791620    0.0193399460    0.0003276545    
0.0890018230    0.0191736500    0.0003294072    
0.0892244840    0.0192843260    0.0003309182    
0.0894471450    0.0189303130    0.0003264818    
0.0896698060    0.0193298340    0.0003286645    
0.0898924670    0.0191935990    0.0003290224    
0.0901151280    0.0193993340    0.0003272082    
0.0903377890    0.0195682750    0.0003313802    
0.0905604500    0.0191722240    0.0003265043    
0.0907831110    0.0188833030    0.0003232286    
0.0910057720    0.0195707060    0.0003305693    
0.0912284330    0.0193723430    0.0003241808    
0.0914510940    0.0194074520    0.0003280927    
0.0916737550    0.0187703790    0.0003218620    
0.0918964160    0.0192440380    0.0003272531    
0.0921190770    0.0190451660    0.0003226141    
0.0923417380    0.0190662650    0.0003229252    
0.0925643990    0.0197295900    0.0003276907    
0.0927870600    0.0198423530    0.0003299734    
0.0930097210    0.0193763390    0.0003232984    
0.0932323820    0.0200837430    0.0003315666    
