# Diamond Light Source Ltd.
# Data extracted from: /dls/b21/data/2018/cm19678-3/processed/b21-386631_00464.dat
q(1/A)          Column          Error           
0.0035000000    2.0608137000    0.0244608040    
0.0037226610    1.8861880000    0.0229087910    
0.0039453220    1.6226950000    0.0193301290    
0.0041679830    1.2891178000    0.0141490540    
0.0043906440    0.9775101500    0.0117849310    
0.0046133050    0.7971410900    0.0102164000    
0.0048359660    0.5995925000    0.0083811971    
0.0050586270    0.4667641000    0.0072683883    
0.0052812880    0.4244425000    0.0065531919    
0.0055039490    0.3785284300    0.0058844146    
0.0057266100    0.3205325700    0.0052384674    
0.0059492710    0.2697644900    0.0048057433    
0.0061719320    0.2268849600    0.0042469654    
0.0063945930    0.1972383500    0.0040077838    
0.0066172539    0.1835308200    0.0036301836    
0.0068399149    0.1640921800    0.0033784998    
0.0070625759    0.1385977200    0.0030731278    
0.0072852369    0.1246296200    0.0028705531    
0.0075078979    0.1124745700    0.0027135807    
0.0077305589    0.1024344600    0.0025403046    
0.0079532199    0.0996151740    0.0024703883    
0.0081758809    0.0889329300    0.0023558909    
0.0083985419    0.0807847530    0.0020942472    
0.0086212029    0.0746499010    0.0020131581    
0.0088438639    0.0684872500    0.0019127831    
0.0090665249    0.0648840530    0.0017981772    
0.0092891859    0.0639003450    0.0018625802    
0.0095118469    0.0590958180    0.0017225368    
0.0097345079    0.0559796740    0.0016282520    
0.0099571689    0.0546033400    0.0015749507    
0.0101798300    0.0520594340    0.0015378258    
0.0104024910    0.0471956750    0.0014592724    
0.0106251520    0.0493338270    0.0014970279    
0.0108478130    0.0469168210    0.0014217218    
0.0110704740    0.0444014170    0.0013167902    
0.0112931350    0.0401452850    0.0012557671    
0.0115157960    0.0400279060    0.0012466184    
0.0117384570    0.0399141040    0.0012341290    
0.0119611180    0.0374570360    0.0011989705    
0.0121837790    0.0354294000    0.0011464684    
0.0124064400    0.0365234450    0.0011155122    
0.0126291010    0.0367777100    0.0011053781    
0.0128517620    0.0336560980    0.0010600674    
0.0130744230    0.0316784240    0.0010208230    
0.0132970840    0.0333890010    0.0010428972    
0.0135197450    0.0298760420    0.0009723824    
0.0137424060    0.0316964860    0.0009876260    
0.0139650670    0.0299471610    0.0009386026    
0.0141877280    0.0307297300    0.0009528885    
0.0144103890    0.0304211270    0.0009317442    
0.0146330500    0.0285427080    0.0008967894    
0.0148557110    0.0295053110    0.0009079632    
0.0150783720    0.0287723080    0.0008892039    
0.0153010330    0.0283673600    0.0008704757    
0.0155236940    0.0272127650    0.0008475071    
0.0157463550    0.0272210340    0.0008329501    
0.0159690160    0.0275207170    0.0008343443    
0.0161916770    0.0275866620    0.0008306372    
0.0164143380    0.0249593230    0.0007960788    
0.0166369990    0.0250657000    0.0007731762    
0.0168596600    0.0271799350    0.0007980304    
0.0170823210    0.0247540280    0.0007549908    
0.0173049820    0.0259025980    0.0007736428    
0.0175276430    0.0252719480    0.0007722252    
0.0177503040    0.0252099550    0.0007516156    
0.0179729650    0.0234163700    0.0007172011    
0.0181956260    0.0235626360    0.0007056453    
0.0184182870    0.0239690620    0.0007083506    
0.0186409480    0.0236798530    0.0007085205    
0.0188636090    0.0231317300    0.0006958682    
0.0190862700    0.0231846610    0.0006955746    
0.0193089310    0.0237157370    0.0007023995    
0.0195315920    0.0236248520    0.0006772107    
0.0197542530    0.0224087850    0.0006605119    
0.0199769140    0.0224282630    0.0006607990    
0.0201995750    0.0232970600    0.0006629300    
0.0204222360    0.0218949510    0.0006481883    
0.0206448970    0.0213199880    0.0006350750    
0.0208675580    0.0226103940    0.0006405442    
0.0210902190    0.0230118340    0.0006524407    
0.0213128800    0.0220675840    0.0006302452    
0.0215355410    0.0217909660    0.0006188218    
0.0217582020    0.0199457710    0.0005920425    
0.0219808630    0.0221193880    0.0006226492    
0.0222035240    0.0221161890    0.0006169625    
0.0224261850    0.0216059230    0.0006043763    
0.0226488460    0.0220320400    0.0006057240    
0.0228715070    0.0223204000    0.0006081604    
0.0230941680    0.0229335160    0.0006164567    
0.0233168290    0.0222985170    0.0006093765    
0.0235394900    0.0215973080    0.0005930999    
0.0237621510    0.0214525720    0.0005751959    
0.0239848120    0.0211776200    0.0005721592    
0.0242074730    0.0211289660    0.0005669270    
0.0244301340    0.0214059100    0.0005712815    
0.0246527950    0.0208413070    0.0005689167    
0.0248754560    0.0221261680    0.0005730168    
0.0250981170    0.0210920940    0.0005607141    
0.0253207780    0.0204546490    0.0005356897    
0.0255434390    0.0207502960    0.0005453057    
0.0257661000    0.0207982180    0.0005477010    
0.0259887610    0.0209091310    0.0005433235    
0.0262114220    0.0207044560    0.0005435382    
0.0264340830    0.0211861440    0.0005423438    
0.0266567440    0.0207194480    0.0005330230    
0.0268794050    0.0205914650    0.0005292055    
0.0271020660    0.0205599880    0.0005266600    
0.0273247270    0.0210335490    0.0005294916    
0.0275473880    0.0203923240    0.0005203207    
0.0277700490    0.0207423430    0.0005216652    
0.0279927100    0.0214390940    0.0005257270    
0.0282153710    0.0203463150    0.0005146432    
0.0284380320    0.0208445260    0.0005178864    
0.0286606930    0.0200465630    0.0005035299    
0.0288833540    0.0208845430    0.0005149227    
0.0291060150    0.0206675200    0.0005117542    
0.0293286760    0.0204035770    0.0005013905    
0.0295513370    0.0215648310    0.0005098482    
0.0297739980    0.0200955730    0.0004975920    
0.0299966590    0.0204387050    0.0004932513    
0.0302193200    0.0205976370    0.0005023814    
0.0304419810    0.0201077900    0.0004972851    
0.0306646420    0.0196507510    0.0004777261    
0.0308873030    0.0198843420    0.0004784814    
0.0311099640    0.0212608420    0.0004960505    
0.0313326250    0.0194341550    0.0004690083    
0.0315552860    0.0199759850    0.0004816638    
0.0317779470    0.0205343360    0.0004887742    
0.0320006080    0.0207007690    0.0004796010    
0.0322232690    0.0201237270    0.0004748487    
0.0324459300    0.0203652430    0.0004741234    
0.0326685910    0.0204631790    0.0004744786    
0.0328912520    0.0202445430    0.0004734999    
0.0331139130    0.0197644250    0.0004617654    
0.0333365740    0.0199472780    0.0004654029    
0.0335592350    0.0194696670    0.0004553763    
0.0337818960    0.0198214940    0.0004591065    
0.0340045570    0.0202461850    0.0004632618    
0.0342272170    0.0200867780    0.0004596144    
0.0344498780    0.0200130070    0.0004605867    
0.0346725390    0.0194930300    0.0004461454    
0.0348952000    0.0197408020    0.0004469265    
0.0351178610    0.0200955120    0.0004529878    
0.0353405220    0.0205098180    0.0004555488    
0.0355631830    0.0197028760    0.0004448157    
0.0357858440    0.0192108190    0.0004392263    
0.0360085050    0.0203575920    0.0004535121    
0.0362311660    0.0200441720    0.0004446582    
0.0364538270    0.0187530560    0.0004266468    
0.0366764880    0.0199180240    0.0004393801    
0.0368991490    0.0202934120    0.0004412654    
0.0371218100    0.0198912580    0.0004356214    
0.0373444710    0.0199953770    0.0004415163    
0.0375671320    0.0187706940    0.0004271587    
0.0377897930    0.0205509410    0.0004353856    
0.0380124540    0.0198662930    0.0004307577    
0.0382351150    0.0198569660    0.0004306568    
0.0384577760    0.0191458540    0.0004187951    
0.0386804370    0.0193554780    0.0004242950    
0.0389030980    0.0201352360    0.0004294799    
0.0391257590    0.0196820490    0.0004217367    
0.0393484200    0.0200075680    0.0004237788    
0.0395710810    0.0194224950    0.0004180992    
0.0397937420    0.0198275190    0.0004224362    
0.0400164030    0.0200526860    0.0004265563    
0.0402390640    0.0189038550    0.0004086425    
0.0404617250    0.0193885720    0.0004114069    
0.0406843860    0.0208565140    0.0004225743    
0.0409070470    0.0200433380    0.0004185699    
0.0411297080    0.0201031930    0.0004151391    
0.0413523690    0.0200260090    0.0004154094    
0.0415750300    0.0199031790    0.0004176514    
0.0417976910    0.0195606100    0.0004033330    
0.0420203520    0.0198838450    0.0004081798    
0.0422430130    0.0194859050    0.0004056044    
0.0424656740    0.0202814330    0.0004084154    
0.0426883350    0.0202672910    0.0004102993    
0.0429109960    0.0198174160    0.0004069877    
0.0431336570    0.0192466800    0.0003954334    
0.0433563180    0.0200099660    0.0004066764    
0.0435789790    0.0199787240    0.0003999747    
0.0438016400    0.0192981600    0.0003952417    
0.0440243010    0.0203441340    0.0004016942    
0.0442469620    0.0202114130    0.0004027808    
0.0444696230    0.0194212030    0.0003934127    
0.0446922840    0.0193456370    0.0003914806    
0.0449149450    0.0193176880    0.0003859680    
0.0451376060    0.0198452080    0.0003960338    
0.0453602670    0.0194390410    0.0003878511    
0.0455829280    0.0194481550    0.0003874934    
0.0458055890    0.0195662820    0.0003909349    
0.0460282500    0.0187236840    0.0003778132    
0.0462509110    0.0196735710    0.0003848695    
0.0464735720    0.0195148900    0.0003835306    
0.0466962330    0.0196546870    0.0003866517    
0.0469188940    0.0197022360    0.0003860216    
0.0471415550    0.0192479990    0.0003835054    
0.0473642160    0.0195299040    0.0003808946    
0.0475868770    0.0198659030    0.0003822487    
0.0478095380    0.0201881920    0.0003836507    
0.0480321990    0.0196762870    0.0003795852    
0.0482548600    0.0190478820    0.0003718474    
0.0484775210    0.0198574420    0.0003834369    
0.0487001820    0.0195103730    0.0003745076    
0.0489228430    0.0195181350    0.0003743808    
0.0491455040    0.0193978020    0.0003706436    
0.0493681650    0.0190626240    0.0003705849    
0.0495908260    0.0196243530    0.0003696790    
0.0498134870    0.0196094130    0.0003730561    
0.0500361480    0.0190469100    0.0003666938    
0.0502588090    0.0198571860    0.0003688023    
0.0504814700    0.0192830930    0.0003681831    
0.0507041310    0.0199666760    0.0003701979    
0.0509267920    0.0197169810    0.0003693977    
0.0511494530    0.0197144020    0.0003669106    
0.0513721140    0.0190971870    0.0003643016    
0.0515947750    0.0195279040    0.0003635026    
0.0518174360    0.0197613130    0.0003634658    
0.0520400970    0.0195409660    0.0003589277    
0.0522627580    0.0197739350    0.0003641294    
0.0524854190    0.0202399040    0.0003713900    
0.0527080800    0.0191980720    0.0003645058    
0.0529307410    0.0206362830    0.0003796874    
0.0531534020    0.0197442420    0.0003700384    
0.0533760630    0.0201262570    0.0003747705    
0.0535987240    0.0199595060    0.0003714723    
0.0538213850    0.0195332700    0.0003717421    
0.0540440460    0.0199514980    0.0003739227    
0.0542667070    0.0196945810    0.0003740676    
0.0544893680    0.0196017750    0.0003733841    
0.0547120290    0.0192288930    0.0003672821    
0.0549346900    0.0186451820    0.0003618548    
0.0551573510    0.0199638010    0.0003788395    
0.0553800120    0.0202335930    0.0003781485    
0.0556026730    0.0200578200    0.0003843087    
0.0558253340    0.0194217990    0.0003813331    
0.0560479950    0.0196389470    0.0003834591    
0.0562706560    0.0195167670    0.0003859602    
0.0564933170    0.0200435750    0.0003945310    
0.0567159780    0.0196113090    0.0003855746    
0.0569386390    0.0195588060    0.0003910979    
0.0571613000    0.0199460230    0.0003864463    
0.0573839610    0.0197855340    0.0003816928    
0.0576066220    0.0193991450    0.0003789937    
0.0578292830    0.0191827130    0.0003756265    
0.0580519440    0.0200433650    0.0003854493    
0.0582746050    0.0196759570    0.0003802162    
0.0584972660    0.0194089570    0.0003761821    
0.0587199270    0.0198210360    0.0003768775    
0.0589425880    0.0192357270    0.0003690997    
0.0591652490    0.0190184890    0.0003691693    
0.0593879100    0.0201419760    0.0003770954    
0.0596105710    0.0200431440    0.0003757722    
0.0598332320    0.0193338530    0.0003722181    
0.0600558930    0.0201847140    0.0003778955    
0.0602785540    0.0196337450    0.0003723082    
0.0605012150    0.0196354600    0.0003715400    
0.0607238760    0.0189484860    0.0003623230    
0.0609465370    0.0200714160    0.0003758402    
0.0611691980    0.0193726100    0.0003698248    
0.0613918590    0.0194077630    0.0003661190    
0.0616145200    0.0191953150    0.0003667746    
0.0618371810    0.0191980330    0.0003631981    
0.0620598420    0.0193409180    0.0003649230    
0.0622825030    0.0191846540    0.0003690039    
0.0625051640    0.0194223180    0.0003660681    
0.0627278250    0.0200638880    0.0003712989    
0.0629504860    0.0194280320    0.0003623977    
0.0631731470    0.0197177500    0.0003696068    
0.0633958080    0.0192305270    0.0003671125    
0.0636184690    0.0194384970    0.0003742327    
0.0638411300    0.0196575240    0.0003749225    
0.0640637910    0.0196739520    0.0003777172    
0.0642864520    0.0188885210    0.0003692998    
0.0645091130    0.0194047010    0.0003775920    
0.0647317740    0.0189983270    0.0003740292    
0.0649544350    0.0197574260    0.0003810088    
0.0651770960    0.0195933330    0.0003773535    
0.0653997570    0.0196965820    0.0003775259    
0.0656224180    0.0190701130    0.0003722814    
0.0658450790    0.0188788580    0.0003650859    
0.0660677400    0.0189686900    0.0003675109    
0.0662904010    0.0200221880    0.0003820861    
0.0665130620    0.0198994570    0.0003792610    
0.0667357230    0.0198271650    0.0003853023    
0.0669583840    0.0198732150    0.0003844589    
0.0671810450    0.0199265310    0.0003828487    
0.0674037060    0.0186219840    0.0003763745    
0.0676263670    0.0193547740    0.0003808991    
0.0678490280    0.0199925100    0.0003847560    
0.0680716890    0.0199625860    0.0003853235    
0.0682943500    0.0198259940    0.0003797972    
0.0685170110    0.0187610850    0.0003656916    
0.0687396720    0.0192712890    0.0003696460    
0.0689623330    0.0194029760    0.0003697314    
0.0691849940    0.0191155930    0.0003695258    
0.0694076550    0.0194947940    0.0003729738    
0.0696303160    0.0199036930    0.0003738813    
0.0698529770    0.0194147120    0.0003684862    
0.0700756380    0.0199894760    0.0003691011    
0.0702982990    0.0194034280    0.0003676105    
0.0705209600    0.0195086730    0.0003659449    
0.0707436210    0.0194591300    0.0003638015    
0.0709662820    0.0198701320    0.0003720059    
0.0711889430    0.0192015720    0.0003612025    
0.0714116040    0.0193755630    0.0003635760    
0.0716342650    0.0191711720    0.0003601848    
0.0718569260    0.0194533810    0.0003613648    
0.0720795870    0.0195095770    0.0003633503    
0.0723022480    0.0194265390    0.0003631287    
0.0725249090    0.0195206230    0.0003596477    
0.0727475700    0.0196600580    0.0003640127    
0.0729702310    0.0196793460    0.0003612866    
0.0731928920    0.0196831890    0.0003627660    
0.0734155530    0.0195847400    0.0003611356    
0.0736382140    0.0195182450    0.0003582083    
0.0738608750    0.0197645900    0.0003627905    
0.0740835360    0.0191298550    0.0003560314    
0.0743061970    0.0198766490    0.0003578040    
0.0745288580    0.0198404770    0.0003611540    
0.0747515190    0.0195295210    0.0003590204    
0.0749741800    0.0193834310    0.0003543642    
0.0751968410    0.0201167440    0.0003638396    
0.0754195020    0.0197711540    0.0003585876    
0.0756421630    0.0195771910    0.0003539074    
0.0758648240    0.0195171440    0.0003542137    
0.0760874850    0.0190745260    0.0003500060    
0.0763101460    0.0195956170    0.0003544143    
0.0765328070    0.0199856040    0.0003615861    
0.0767554680    0.0192506450    0.0003524672    
0.0769781290    0.0196360860    0.0003539326    
0.0772007900    0.0199815230    0.0003541688    
0.0774234510    0.0191555120    0.0003487435    
0.0776461120    0.0193409900    0.0003500954    
0.0778687730    0.0203025090    0.0003575073    
0.0780914340    0.0193931830    0.0003519060    
0.0783140950    0.0195928680    0.0003481011    
0.0785367560    0.0186972000    0.0003455342    
0.0787594170    0.0197246290    0.0003517212    
0.0789820780    0.0196099170    0.0003489000    
0.0792047390    0.0200070310    0.0003535672    
0.0794274000    0.0194207680    0.0003498244    
0.0796500610    0.0197046650    0.0003489328    
0.0798727220    0.0202480540    0.0003533848    
0.0800953830    0.0196393370    0.0003472320    
0.0803180440    0.0198392130    0.0003514256    
0.0805407050    0.0192493320    0.0003458398    
0.0807633660    0.0192136130    0.0003451980    
0.0809860270    0.0192074100    0.0003438678    
0.0812086880    0.0194698030    0.0003432168    
0.0814313490    0.0200507690    0.0003498883    
0.0816540100    0.0196009840    0.0003451541    
0.0818766710    0.0196295400    0.0003461941    
0.0820993320    0.0198257270    0.0003472857    
0.0823219930    0.0194682440    0.0003455599    
0.0825446540    0.0195309350    0.0003436011    
0.0827673150    0.0195318010    0.0003413003    
0.0829899760    0.0199971640    0.0003447275    
0.0832126370    0.0192593060    0.0003398231    
0.0834352980    0.0194120490    0.0003404052    
0.0836579590    0.0197298300    0.0003424162    
0.0838806200    0.0199432020    0.0003453401    
0.0841032810    0.0184856440    0.0003304170    
0.0843259420    0.0197982860    0.0003408941    
0.0845486030    0.0198570130    0.0003413995    
0.0847712640    0.0193548000    0.0003350005    
0.0849939250    0.0194862710    0.0003367217    
0.0852165860    0.0191114900    0.0003339047    
0.0854392470    0.0197185590    0.0003359546    
0.0856619080    0.0200449320    0.0003412181    
0.0858845690    0.0190922430    0.0003300115    
0.0861072300    0.0196401360    0.0003370239    
0.0863298910    0.0191976730    0.0003349507    
0.0865525520    0.0198324780    0.0003375038    
0.0867752130    0.0193102670    0.0003303435    
0.0869978740    0.0193747390    0.0003317378    
0.0872205350    0.0190705160    0.0003287043    
0.0874431960    0.0198524040    0.0003353753    
0.0876658570    0.0199823090    0.0003377627    
0.0878885180    0.0199305840    0.0003379036    
0.0881111790    0.0197937550    0.0003363096    
0.0883338400    0.0199507260    0.0003326970    
0.0885565010    0.0191276020    0.0003301791    
0.0887791620    0.0194620810    0.0003287345    
0.0890018230    0.0192923510    0.0003304725    
0.0892244840    0.0188808680    0.0003274850    
0.0894471450    0.0197017160    0.0003331150    
0.0896698060    0.0193074120    0.0003285208    
0.0898924670    0.0195150280    0.0003318134    
0.0901151280    0.0195373750    0.0003284172    
0.0903377890    0.0189114900    0.0003258181    
0.0905604500    0.0192500120    0.0003272127    
0.0907831110    0.0198350750    0.0003313217    
0.0910057720    0.0192188460    0.0003276310    
0.0912284330    0.0191228380    0.0003221324    
0.0914510940    0.0189580520    0.0003243181    
0.0916737550    0.0196369670    0.0003292551    
0.0918964160    0.0189378080    0.0003246852    
0.0921190770    0.0194824610    0.0003263435    
0.0923417380    0.0194273270    0.0003260151    
0.0925643990    0.0196644570    0.0003271961    
0.0927870600    0.0199138940    0.0003306150    
0.0930097210    0.0188584820    0.0003189945    
0.0932323820    0.0193941010    0.0003258708    
