# Diamond Light Source Ltd.
# Data extracted from: /dls/b21/data/2018/cm19678-3/processed/b21-386631_00468.dat
q(1/A)          Column          Error           
0.0035000000    2.1138267000    0.0247778350    
0.0037226610    1.8768394000    0.0228560150    
0.0039453220    1.6315653000    0.0193863400    
0.0041679830    1.2998300000    0.0142102490    
0.0043906440    0.9724571900    0.0117565250    
0.0046133050    0.7636312600    0.0100011380    
0.0048359660    0.5908991200    0.0083216974    
0.0050586270    0.4530038900    0.0071617252    
0.0052812880    0.4207474700    0.0065257661    
0.0055039490    0.3747283200    0.0058558449    
0.0057266100    0.3209892600    0.0052431309    
0.0059492710    0.2701174500    0.0048097423    
0.0061719320    0.2183769800    0.0041673175    
0.0063945930    0.2002413100    0.0040388966    
0.0066172539    0.1779216300    0.0035749153    
0.0068399149    0.1705524000    0.0034449758    
0.0070625759    0.1405556800    0.0030953094    
0.0072852369    0.1257983700    0.0028844947    
0.0075078979    0.1180814000    0.0027808888    
0.0077305589    0.1001391800    0.0025121297    
0.0079532199    0.0968927790    0.0024368314    
0.0081758809    0.0859678890    0.0023166973    
0.0083985419    0.0827143690    0.0021194882    
0.0086212029    0.0745135470    0.0020116767    
0.0088438639    0.0710233690    0.0019482235    
0.0090665249    0.0641095230    0.0017877305    
0.0092891859    0.0643032660    0.0018687757    
0.0095118469    0.0578611890    0.0017047516    
0.0097345079    0.0573735360    0.0016486921    
0.0099571689    0.0542592340    0.0015702597    
0.0101798300    0.0513508750    0.0015275964    
0.0104024910    0.0468965240    0.0014548991    
0.0106251520    0.0455341560    0.0014384787    
0.0108478130    0.0444338500    0.0013838360    
0.0110704740    0.0433624620    0.0013015248    
0.0112931350    0.0432638890    0.0013038628    
0.0115157960    0.0398868040    0.0012446408    
0.0117384570    0.0382105570    0.0012077202    
0.0119611180    0.0392363930    0.0012273364    
0.0121837790    0.0365924870    0.0011653422    
0.0124064400    0.0388199760    0.0011502531    
0.0126291010    0.0364916910    0.0011012675    
0.0128517620    0.0329666610    0.0010493404    
0.0130744230    0.0323807550    0.0010322608    
0.0132970840    0.0323581290    0.0010268542    
0.0135197450    0.0311847230    0.0009936279    
0.0137424060    0.0313075750    0.0009817230    
0.0139650670    0.0297518260    0.0009357030    
0.0141877280    0.0313022790    0.0009618957    
0.0144103890    0.0298610020    0.0009232908    
0.0146330500    0.0286656150    0.0008988781    
0.0148557110    0.0280623850    0.0008856410    
0.0150783720    0.0287000800    0.0008882452    
0.0153010330    0.0257855440    0.0008300660    
0.0155236940    0.0273544730    0.0008498621    
0.0157463550    0.0274092040    0.0008359729    
0.0159690160    0.0269232240    0.0008253844    
0.0161916770    0.0244690480    0.0007824339    
0.0164143380    0.0260096090    0.0008128003    
0.0166369990    0.0266015270    0.0007966529    
0.0168596600    0.0250800730    0.0007667202    
0.0170823210    0.0258915660    0.0007722807    
0.0173049820    0.0243862350    0.0007507901    
0.0175276430    0.0234161510    0.0007434635    
0.0177503040    0.0242774230    0.0007377146    
0.0179729650    0.0241498620    0.0007284769    
0.0181956260    0.0234864650    0.0007046292    
0.0184182870    0.0242707710    0.0007129217    
0.0186409480    0.0236034550    0.0007075025    
0.0188636090    0.0246058460    0.0007178263    
0.0190862700    0.0234851750    0.0007001926    
0.0193089310    0.0232039130    0.0006949024    
0.0195315920    0.0232060390    0.0006713006    
0.0197542530    0.0227089020    0.0006650386    
0.0199769140    0.0232347600    0.0006726946    
0.0201995750    0.0230789060    0.0006599363    
0.0204222360    0.0214804320    0.0006421374    
0.0206448970    0.0233335440    0.0006645064    
0.0208675580    0.0223098450    0.0006363860    
0.0210902190    0.0218727270    0.0006362008    
0.0213128800    0.0232638410    0.0006472174    
0.0215355410    0.0220975770    0.0006232712    
0.0217582020    0.0218866300    0.0006202892    
0.0219808630    0.0219694610    0.0006206459    
0.0222035240    0.0215042450    0.0006084753    
0.0224261850    0.0213091980    0.0006003186    
0.0226488460    0.0215567720    0.0005992618    
0.0228715070    0.0224941100    0.0006106311    
0.0230941680    0.0221791680    0.0006063414    
0.0233168290    0.0215068220    0.0005985675    
0.0235394900    0.0220775040    0.0005997639    
0.0237621510    0.0218767630    0.0005809583    
0.0239848120    0.0215408220    0.0005771474    
0.0242074730    0.0210147520    0.0005654933    
0.0244301340    0.0215050420    0.0005727047    
0.0246527950    0.0212060440    0.0005739755    
0.0248754560    0.0207979860    0.0005556512    
0.0250981170    0.0218451720    0.0005707378    
0.0253207780    0.0200830070    0.0005308953    
0.0255434390    0.0195678440    0.0005296350    
0.0257661000    0.0218011760    0.0005608512    
0.0259887610    0.0206764790    0.0005403884    
0.0262114220    0.0197840050    0.0005314135    
0.0264340830    0.0218742180    0.0005511785    
0.0266567440    0.0220162490    0.0005495482    
0.0268794050    0.0208028800    0.0005320099    
0.0271020660    0.0199195180    0.0005184843    
0.0273247270    0.0210143700    0.0005293443    
0.0275473880    0.0213159720    0.0005320686    
0.0277700490    0.0204084920    0.0005175421    
0.0279927100    0.0207245280    0.0005169835    
0.0282153710    0.0208483990    0.0005210472    
0.0284380320    0.0214826540    0.0005258474    
0.0286606930    0.0209520050    0.0005148674    
0.0288833540    0.0207522750    0.0005133809    
0.0291060150    0.0201298020    0.0005051429    
0.0293286760    0.0205587450    0.0005033830    
0.0295513370    0.0207645950    0.0005003880    
0.0297739980    0.0198315680    0.0004944006    
0.0299966590    0.0198863070    0.0004866267    
0.0302193200    0.0207275450    0.0005040529    
0.0304419810    0.0196228400    0.0004913393    
0.0306646420    0.0210054410    0.0004940064    
0.0308873030    0.0197762420    0.0004772639    
0.0311099640    0.0205968990    0.0004883305    
0.0313326250    0.0206186340    0.0004831755    
0.0315552860    0.0193441030    0.0004740689    
0.0317779470    0.0204369020    0.0004877000    
0.0320006080    0.0206192150    0.0004787405    
0.0322232690    0.0202429790    0.0004763383    
0.0324459300    0.0202399890    0.0004727473    
0.0326685910    0.0194139240    0.0004622363    
0.0328912520    0.0196645830    0.0004667513    
0.0331139130    0.0206132590    0.0004716610    
0.0333365740    0.0209102780    0.0004765895    
0.0335592350    0.0205740210    0.0004681964    
0.0337818960    0.0207327500    0.0004696248    
0.0340045570    0.0197232000    0.0004573207    
0.0342272170    0.0204200610    0.0004634942    
0.0344498780    0.0206245540    0.0004676541    
0.0346725390    0.0201128560    0.0004532636    
0.0348952000    0.0198794140    0.0004485727    
0.0351178610    0.0207257670    0.0004601184    
0.0353405220    0.0211952880    0.0004631813    
0.0355631830    0.0194687910    0.0004422441    
0.0357858440    0.0197500860    0.0004454277    
0.0360085050    0.0204557990    0.0004546856    
0.0362311660    0.0191533410    0.0004347422    
0.0364538270    0.0191966830    0.0004317406    
0.0366764880    0.0196536300    0.0004365318    
0.0368991490    0.0191104340    0.0004282870    
0.0371218100    0.0207858920    0.0004453892    
0.0373444710    0.0199244760    0.0004408113    
0.0375671320    0.0195553110    0.0004360725    
0.0377897930    0.0203460310    0.0004332867    
0.0380124540    0.0196958410    0.0004289822    
0.0382351150    0.0202564580    0.0004350447    
0.0384577760    0.0196291960    0.0004241239    
0.0386804370    0.0197903700    0.0004291115    
0.0389030980    0.0190885480    0.0004182426    
0.0391257590    0.0194088170    0.0004188737    
0.0393484200    0.0193771670    0.0004171234    
0.0395710810    0.0199155950    0.0004234486    
0.0397937420    0.0199876370    0.0004242140    
0.0400164030    0.0201324400    0.0004274798    
0.0402390640    0.0196528700    0.0004167337    
0.0404617250    0.0198845100    0.0004167095    
0.0406843860    0.0198704180    0.0004125371    
0.0409070470    0.0195258210    0.0004132044    
0.0411297080    0.0191670080    0.0004054297    
0.0413523690    0.0199296970    0.0004144831    
0.0415750300    0.0191299860    0.0004095315    
0.0417976910    0.0192680700    0.0004003768    
0.0420203520    0.0193628460    0.0004028684    
0.0422430130    0.0193746020    0.0004045164    
0.0424656740    0.0202392890    0.0004080635    
0.0426883350    0.0198008810    0.0004056229    
0.0429109960    0.0202676160    0.0004116578    
0.0431336570    0.0196761510    0.0003998920    
0.0433563180    0.0200336260    0.0004069892    
0.0435789790    0.0194090910    0.0003943016    
0.0438016400    0.0199609470    0.0004020432    
0.0440243010    0.0197642420    0.0003959983    
0.0442469620    0.0206200900    0.0004069050    
0.0444696230    0.0198825290    0.0003981286    
0.0446922840    0.0193049750    0.0003911385    
0.0449149450    0.0199340020    0.0003921464    
0.0451376060    0.0201922370    0.0003995526    
0.0453602670    0.0200420360    0.0003938908    
0.0455829280    0.0197099490    0.0003901622    
0.0458055890    0.0198076580    0.0003934089    
0.0460282500    0.0194777340    0.0003854144    
0.0462509110    0.0199215930    0.0003873568    
0.0464735720    0.0198988520    0.0003873543    
0.0466962330    0.0196769020    0.0003869390    
0.0469188940    0.0202313000    0.0003912398    
0.0471415550    0.0210740870    0.0004013566    
0.0473642160    0.0203617300    0.0003889908    
0.0475868770    0.0193211530    0.0003770385    
0.0478095380    0.0198598840    0.0003805861    
0.0480321990    0.0198151490    0.0003809901    
0.0482548600    0.0197227390    0.0003784446    
0.0484775210    0.0193460490    0.0003785347    
0.0487001820    0.0200207130    0.0003794416    
0.0489228430    0.0199273660    0.0003783526    
0.0491455040    0.0198722920    0.0003752161    
0.0493681650    0.0193432720    0.0003733694    
0.0495908260    0.0203906770    0.0003768949    
0.0498134870    0.0192259130    0.0003694559    
0.0500361480    0.0194562340    0.0003706790    
0.0502588090    0.0199122200    0.0003693787    
0.0504814700    0.0197540990    0.0003727188    
0.0507041310    0.0194656850    0.0003655890    
0.0509267920    0.0202016960    0.0003739773    
0.0511494530    0.0201244560    0.0003707727    
0.0513721140    0.0200007890    0.0003728870    
0.0515947750    0.0190813440    0.0003593862    
0.0518174360    0.0197683490    0.0003635952    
0.0520400970    0.0192973080    0.0003567464    
0.0522627580    0.0196132830    0.0003627117    
0.0524854190    0.0190881840    0.0003607328    
0.0527080800    0.0188725940    0.0003614670    
0.0529307410    0.0201264910    0.0003750350    
0.0531534020    0.0194529560    0.0003673640    
0.0533760630    0.0197494630    0.0003713119    
0.0535987240    0.0193856640    0.0003661585    
0.0538213850    0.0192359030    0.0003689673    
0.0540440460    0.0196361230    0.0003710216    
0.0542667070    0.0195096940    0.0003723739    
0.0544893680    0.0201850630    0.0003789662    
0.0547120290    0.0197059310    0.0003718762    
0.0549346900    0.0194667400    0.0003698069    
0.0551573510    0.0196544800    0.0003759601    
0.0553800120    0.0196610740    0.0003728265    
0.0556026730    0.0192620680    0.0003766752    
0.0558253340    0.0193238550    0.0003804380    
0.0560479950    0.0193912830    0.0003811014    
0.0562706560    0.0204934110    0.0003955697    
0.0564933170    0.0197321990    0.0003915242    
0.0567159780    0.0199367950    0.0003888302    
0.0569386390    0.0195579460    0.0003911589    
0.0571613000    0.0192415820    0.0003796284    
0.0573839610    0.0198073100    0.0003819707    
0.0576066220    0.0193690170    0.0003787667    
0.0578292830    0.0200945710    0.0003845191    
0.0580519440    0.0193683090    0.0003789702    
0.0582746050    0.0193742680    0.0003773571    
0.0584972660    0.0195836220    0.0003779383    
0.0587199270    0.0195198460    0.0003740697    
0.0589425880    0.0195684800    0.0003723448    
0.0591652490    0.0198066280    0.0003768080    
0.0593879100    0.0194782150    0.0003708959    
0.0596105710    0.0196133310    0.0003717875    
0.0598332320    0.0192117020    0.0003711064    
0.0600558930    0.0191585960    0.0003682303    
0.0602785540    0.0198243590    0.0003741777    
0.0605012150    0.0195510250    0.0003708063    
0.0607238760    0.0199324490    0.0003716775    
0.0609465370    0.0187831700    0.0003636436    
0.0611691980    0.0198668190    0.0003745791    
0.0613918590    0.0195390370    0.0003674206    
0.0616145200    0.0196578410    0.0003712332    
0.0618371810    0.0197616300    0.0003685563    
0.0620598420    0.0192858130    0.0003644676    
0.0622825030    0.0186376780    0.0003637702    
0.0625051640    0.0195741750    0.0003675618    
0.0627278250    0.0202085040    0.0003727010    
0.0629504860    0.0203072900    0.0003705735    
0.0631731470    0.0192118980    0.0003648998    
0.0633958080    0.0199244220    0.0003737435    
0.0636184690    0.0190129760    0.0003701798    
0.0638411300    0.0200078830    0.0003783162    
0.0640637910    0.0197897710    0.0003788947    
0.0642864520    0.0202603840    0.0003825439    
0.0645091130    0.0197129640    0.0003806471    
0.0647317740    0.0196533260    0.0003804899    
0.0649544350    0.0197718090    0.0003812153    
0.0651770960    0.0200147070    0.0003814575    
0.0653997570    0.0198266510    0.0003788378    
0.0656224180    0.0195131120    0.0003766477    
0.0658450790    0.0193940910    0.0003701001    
0.0660677400    0.0196734890    0.0003743429    
0.0662904010    0.0193947380    0.0003761186    
0.0665130620    0.0199499270    0.0003798092    
0.0667357230    0.0192200220    0.0003794247    
0.0669583840    0.0201258180    0.0003869634    
0.0671810450    0.0196908010    0.0003806452    
0.0674037060    0.0195798300    0.0003860015    
0.0676263670    0.0191142070    0.0003785920    
0.0678490280    0.0194737120    0.0003797987    
0.0680716890    0.0186378840    0.0003723855    
0.0682943500    0.0195346470    0.0003770633    
0.0685170110    0.0198872700    0.0003765745    
0.0687396720    0.0194980250    0.0003718804    
0.0689623330    0.0192830220    0.0003686524    
0.0691849940    0.0197941120    0.0003760938    
0.0694076550    0.0195802550    0.0003738569    
0.0696303160    0.0190325690    0.0003656730    
0.0698529770    0.0195195720    0.0003695457    
0.0700756380    0.0195602530    0.0003651819    
0.0702982990    0.0194800070    0.0003684008    
0.0705209600    0.0192066100    0.0003631654    
0.0707436210    0.0193571950    0.0003629120    
0.0709662820    0.0201628580    0.0003748028    
0.0711889430    0.0194191160    0.0003633075    
0.0714116040    0.0195667310    0.0003654302    
0.0716342650    0.0194690850    0.0003630372    
0.0718569260    0.0199303620    0.0003658333    
0.0720795870    0.0189681910    0.0003583372    
0.0723022480    0.0195624680    0.0003644618    
0.0725249090    0.0200909950    0.0003649291    
0.0727475700    0.0192085870    0.0003598729    
0.0729702310    0.0198986760    0.0003633590    
0.0731928920    0.0199644150    0.0003654134    
0.0734155530    0.0195384200    0.0003607725    
0.0736382140    0.0198540120    0.0003613406    
0.0738608750    0.0195251470    0.0003606504    
0.0740835360    0.0205154070    0.0003687651    
0.0743061970    0.0199674860    0.0003586845    
0.0745288580    0.0194792630    0.0003579151    
0.0747515190    0.0196421120    0.0003601179    
0.0749741800    0.0197402910    0.0003576750    
0.0751968410    0.0190574770    0.0003541939    
0.0754195020    0.0193097620    0.0003544418    
0.0756421630    0.0195841610    0.0003540334    
0.0758648240    0.0190482090    0.0003499948    
0.0760874850    0.0201735130    0.0003600118    
0.0763101460    0.0190190690    0.0003492237    
0.0765328070    0.0201825030    0.0003634276    
0.0767554680    0.0196577560    0.0003562380    
0.0769781290    0.0196494580    0.0003541162    
0.0772007900    0.0197814030    0.0003524535    
0.0774234510    0.0194481470    0.0003514598    
0.0776461120    0.0192718030    0.0003495309    
0.0778687730    0.0192517420    0.0003481948    
0.0780914340    0.0198153010    0.0003557786    
0.0783140950    0.0199215580    0.0003510713    
0.0785367560    0.0196684340    0.0003544581    
0.0787594170    0.0196500890    0.0003511185    
0.0789820780    0.0201944140    0.0003541245    
0.0792047390    0.0196953770    0.0003508651    
0.0794274000    0.0196987370    0.0003523817    
0.0796500610    0.0197920360    0.0003497678    
0.0798727220    0.0199406050    0.0003507540    
0.0800953830    0.0194866530    0.0003459411    
0.0803180440    0.0201265030    0.0003540240    
0.0805407050    0.0198466750    0.0003512273    
0.0807633660    0.0194996410    0.0003478199    
0.0809860270    0.0197315550    0.0003485901    
0.0812086880    0.0195796260    0.0003442447    
0.0814313490    0.0190867720    0.0003414346    
0.0816540100    0.0190850830    0.0003406422    
0.0818766710    0.0197647920    0.0003474465    
0.0820993320    0.0201005490    0.0003497467    
0.0823219930    0.0202912430    0.0003528512    
0.0825446540    0.0192536800    0.0003412143    
0.0827673150    0.0196998380    0.0003428263    
0.0829899760    0.0186726460    0.0003331746    
0.0832126370    0.0195120890    0.0003421068    
0.0834352980    0.0199623570    0.0003452579    
0.0836579590    0.0195050060    0.0003405203    
0.0838806200    0.0194418240    0.0003410322    
0.0841032810    0.0194020670    0.0003385684    
0.0843259420    0.0195469790    0.0003387839    
0.0845486030    0.0194471890    0.0003379183    
0.0847712640    0.0193500900    0.0003350194    
0.0849939250    0.0194641060    0.0003365901    
0.0852165860    0.0197894180    0.0003398358    
0.0854392470    0.0196511430    0.0003354395    
0.0856619080    0.0193431860    0.0003352518    
0.0858845690    0.0197723850    0.0003358980    
0.0861072300    0.0191842980    0.0003331491    
0.0863298910    0.0191402000    0.0003345085    
0.0865525520    0.0195982240    0.0003355644    
0.0867752130    0.0190910120    0.0003285212    
0.0869978740    0.0195350530    0.0003331668    
0.0872205350    0.0201824970    0.0003382119    
0.0874431960    0.0198368010    0.0003353031    
0.0876658570    0.0191155990    0.0003304152    
0.0878885180    0.0191582820    0.0003313511    
0.0881111790    0.0196578980    0.0003352131    
0.0883338400    0.0192973780    0.0003272623    
0.0885565010    0.0199212260    0.0003370192    
0.0887791620    0.0195745480    0.0003297416    
0.0890018230    0.0189820960    0.0003278628    
0.0892244840    0.0195808160    0.0003335594    
0.0894471450    0.0191340330    0.0003283392    
0.0896698060    0.0197336750    0.0003321866    
0.0898924670    0.0196912900    0.0003333678    
0.0901151280    0.0194007440    0.0003273251    
0.0903377890    0.0193281460    0.0003294464    
0.0905604500    0.0194627320    0.0003290742    
0.0907831110    0.0196649740    0.0003299567    
0.0910057720    0.0190301350    0.0003260765    
0.0912284330    0.0188527990    0.0003199068    
0.0914510940    0.0187982980    0.0003230063    
0.0916737550    0.0189315410    0.0003233446    
0.0918964160    0.0198299650    0.0003323043    
0.0921190770    0.0190792670    0.0003230065    
0.0923417380    0.0194397170    0.0003261771    
0.0925643990    0.0191050590    0.0003225660    
0.0927870600    0.0190424400    0.0003233576    
0.0930097210    0.0200904900    0.0003293080    
0.0932323820    0.0189901990    0.0003225170    
