# Diamond Light Source Ltd.
# Data extracted from: /dls/b21/data/2018/cm19678-3/processed/b21-386631_00470.dat
q(1/A)          Column          Error           
0.0035000000    2.1104266000    0.0247601020    
0.0037226610    1.8462723000    0.0226711470    
0.0039453220    1.6159588000    0.0192951160    
0.0041679830    1.2930693000    0.0141745060    
0.0043906440    0.9552872800    0.0116533120    
0.0046133050    0.7895754500    0.0101705170    
0.0048359660    0.5933486300    0.0083396701    
0.0050586270    0.4580672100    0.0072022790    
0.0052812880    0.4291234100    0.0065909877    
0.0055039490    0.3772662000    0.0058761639    
0.0057266100    0.3151359900    0.0051955689    
0.0059492710    0.2707651400    0.0048159338    
0.0061719320    0.2205634200    0.0041885004    
0.0063945930    0.1938400600    0.0039741689    
0.0066172539    0.1874364800    0.0036695862    
0.0068399149    0.1699563800    0.0034392572    
0.0070625759    0.1457621400    0.0031523969    
0.0072852369    0.1218516500    0.0028391387    
0.0075078979    0.1171853700    0.0027705642    
0.0077305589    0.0975096800    0.0024791487    
0.0079532199    0.0992393000    0.0024663816    
0.0081758809    0.0924772020    0.0024030187    
0.0083985419    0.0825661330    0.0021177766    
0.0086212029    0.0759934460    0.0020317360    
0.0088438639    0.0723722800    0.0019668123    
0.0090665249    0.0633730230    0.0017775902    
0.0092891859    0.0619789580    0.0018348537    
0.0095118469    0.0608856280    0.0017488940    
0.0097345079    0.0582366870    0.0016611954    
0.0099571689    0.0534053170    0.0015579932    
0.0101798300    0.0519963350    0.0015373039    
0.0104024910    0.0468145830    0.0014537569    
0.0106251520    0.0447241370    0.0014257534    
0.0108478130    0.0451745530    0.0013954466    
0.0110704740    0.0422370860    0.0012846390    
0.0112931350    0.0420532260    0.0012856046    
0.0115157960    0.0417584690    0.0012736214    
0.0117384570    0.0379882830    0.0012043095    
0.0119611180    0.0385138030    0.0012160906    
0.0121837790    0.0358195090    0.0011530708    
0.0124064400    0.0369179260    0.0011218197    
0.0126291010    0.0346699540    0.0010735224    
0.0128517620    0.0328054960    0.0010468654    
0.0130744230    0.0326498240    0.0010366329    
0.0132970840    0.0327875850    0.0010337379    
0.0135197450    0.0293853540    0.0009646215    
0.0137424060    0.0326678960    0.0010029135    
0.0139650670    0.0303163560    0.0009446227    
0.0141877280    0.0305391970    0.0009501834    
0.0144103890    0.0293523650    0.0009154751    
0.0146330500    0.0298547590    0.0009174145    
0.0148557110    0.0281792030    0.0008875615    
0.0150783720    0.0289251520    0.0008918006    
0.0153010330    0.0283023340    0.0008697096    
0.0155236940    0.0270952560    0.0008459011    
0.0157463550    0.0266745400    0.0008247667    
0.0159690160    0.0271051750    0.0008282424    
0.0161916770    0.0252741700    0.0007952730    
0.0164143380    0.0272590610    0.0008321680    
0.0166369990    0.0267255730    0.0007985792    
0.0168596600    0.0265614770    0.0007891095    
0.0170823210    0.0252280350    0.0007623885    
0.0173049820    0.0252228610    0.0007636282    
0.0175276430    0.0239633300    0.0007521668    
0.0177503040    0.0241472200    0.0007357992    
0.0179729650    0.0243739440    0.0007319140    
0.0181956260    0.0238289450    0.0007098112    
0.0184182870    0.0225366680    0.0006870425    
0.0186409480    0.0240318730    0.0007139580    
0.0188636090    0.0230184150    0.0006943470    
0.0190862700    0.0225289020    0.0006858502    
0.0193089310    0.0227501270    0.0006881352    
0.0195315920    0.0228605600    0.0006663442    
0.0197542530    0.0224791920    0.0006617254    
0.0199769140    0.0229272260    0.0006682874    
0.0201995750    0.0234982440    0.0006659640    
0.0204222360    0.0225786280    0.0006584062    
0.0206448970    0.0224102460    0.0006512845    
0.0208675580    0.0227495620    0.0006426840    
0.0210902190    0.0221727500    0.0006406062    
0.0213128800    0.0211248780    0.0006168012    
0.0215355410    0.0215036970    0.0006148935    
0.0217582020    0.0221366850    0.0006238781    
0.0219808630    0.0222364210    0.0006244609    
0.0222035240    0.0218524770    0.0006134369    
0.0224261850    0.0225308760    0.0006173422    
0.0226488460    0.0217938770    0.0006026021    
0.0228715070    0.0207075490    0.0005859324    
0.0230941680    0.0210225650    0.0005903724    
0.0233168290    0.0215106500    0.0005986740    
0.0235394900    0.0214458800    0.0005911748    
0.0237621510    0.0206616360    0.0005646436    
0.0239848120    0.0210961320    0.0005712098    
0.0242074730    0.0208967340    0.0005639533    
0.0244301340    0.0207919070    0.0005631789    
0.0246527950    0.0206659780    0.0005666699    
0.0248754560    0.0215143800    0.0005651902    
0.0250981170    0.0205813670    0.0005540318    
0.0253207780    0.0213218150    0.0005470730    
0.0255434390    0.0217506990    0.0005584450    
0.0257661000    0.0209247730    0.0005495115    
0.0259887610    0.0211039330    0.0005459943    
0.0262114220    0.0214579030    0.0005534875    
0.0264340830    0.0213919310    0.0005451169    
0.0266567440    0.0218280920    0.0005472436    
0.0268794050    0.0210787420    0.0005355734    
0.0271020660    0.0207599410    0.0005293561    
0.0273247270    0.0210314470    0.0005296065    
0.0275473880    0.0204297820    0.0005209374    
0.0277700490    0.0211078440    0.0005263818    
0.0279927100    0.0219793910    0.0005324525    
0.0282153710    0.0198492290    0.0005084534    
0.0284380320    0.0204308210    0.0005128583    
0.0286606930    0.0203989400    0.0005080718    
0.0288833540    0.0203748920    0.0005087368    
0.0291060150    0.0202601700    0.0005068211    
0.0293286760    0.0208459390    0.0005069319    
0.0295513370    0.0200446570    0.0004916806    
0.0297739980    0.0195515640    0.0004909417    
0.0299966590    0.0203900710    0.0004927956    
0.0302193200    0.0208906120    0.0005060767    
0.0304419810    0.0201677490    0.0004981589    
0.0306646420    0.0199401290    0.0004813593    
0.0308873030    0.0208741580    0.0004903767    
0.0311099640    0.0208784820    0.0004917010    
0.0313326250    0.0209393960    0.0004869627    
0.0315552860    0.0207419640    0.0004909426    
0.0317779470    0.0211506040    0.0004961869    
0.0320006080    0.0193888470    0.0004642787    
0.0322232690    0.0218160850    0.0004945445    
0.0324459300    0.0207626580    0.0004788550    
0.0326685910    0.0200227970    0.0004694706    
0.0328912520    0.0196348410    0.0004664397    
0.0331139130    0.0208112240    0.0004739626    
0.0333365740    0.0198492880    0.0004643823    
0.0335592350    0.0205563710    0.0004680371    
0.0337818960    0.0199703940    0.0004609507    
0.0340045570    0.0199388260    0.0004598547    
0.0342272170    0.0205394410    0.0004648884    
0.0344498780    0.0200449070    0.0004610767    
0.0346725390    0.0203207670    0.0004556409    
0.0348952000    0.0201157980    0.0004512719    
0.0351178610    0.0197486640    0.0004491814    
0.0353405220    0.0197513700    0.0004471658    
0.0355631830    0.0198741610    0.0004468643    
0.0357858440    0.0195928400    0.0004436905    
0.0360085050    0.0200449950    0.0004501369    
0.0362311660    0.0196995750    0.0004409370    
0.0364538270    0.0202004090    0.0004429233    
0.0366764880    0.0192401290    0.0004319537    
0.0368991490    0.0199106460    0.0004372008    
0.0371218100    0.0197682480    0.0004343883    
0.0373444710    0.0195671130    0.0004368791    
0.0375671320    0.0205119300    0.0004466509    
0.0377897930    0.0192237310    0.0004212045    
0.0380124540    0.0193535810    0.0004252764    
0.0382351150    0.0200731630    0.0004331104    
0.0384577760    0.0191744100    0.0004192192    
0.0386804370    0.0201475210    0.0004330048    
0.0389030980    0.0200176720    0.0004283386    
0.0391257590    0.0206690520    0.0004322972    
0.0393484200    0.0203325830    0.0004273211    
0.0395710810    0.0196309790    0.0004204494    
0.0397937420    0.0196850230    0.0004210279    
0.0400164030    0.0197910420    0.0004238775    
0.0402390640    0.0203369170    0.0004239619    
0.0404617250    0.0194338650    0.0004119971    
0.0406843860    0.0196340970    0.0004101131    
0.0409070470    0.0198528900    0.0004166878    
0.0411297080    0.0202683230    0.0004169519    
0.0413523690    0.0194331890    0.0004093239    
0.0415750300    0.0196595160    0.0004151978    
0.0417976910    0.0193879940    0.0004016566    
0.0420203520    0.0194165950    0.0004034631    
0.0422430130    0.0201552000    0.0004126215    
0.0424656740    0.0198479090    0.0004041347    
0.0426883350    0.0204858830    0.0004126161    
0.0429109960    0.0198112750    0.0004070332    
0.0431336570    0.0192163160    0.0003952268    
0.0433563180    0.0199627660    0.0004063049    
0.0435789790    0.0195487460    0.0003957528    
0.0438016400    0.0201669800    0.0004041487    
0.0440243010    0.0196804670    0.0003951933    
0.0442469620    0.0201017410    0.0004017938    
0.0444696230    0.0195511790    0.0003948323    
0.0446922840    0.0199979980    0.0003981327    
0.0449149450    0.0199606980    0.0003924438    
0.0451376060    0.0194367080    0.0003920413    
0.0453602670    0.0188455000    0.0003819859    
0.0455829280    0.0196130360    0.0003892364    
0.0458055890    0.0193500950    0.0003888730    
0.0460282500    0.0195651060    0.0003863123    
0.0462509110    0.0201285330    0.0003893982    
0.0464735720    0.0204604760    0.0003928175    
0.0466962330    0.0198173910    0.0003883524    
0.0469188940    0.0202197660    0.0003911631    
0.0471415550    0.0196940560    0.0003880273    
0.0473642160    0.0199342630    0.0003849203    
0.0475868770    0.0195012070    0.0003788249    
0.0478095380    0.0198707140    0.0003807237    
0.0480321990    0.0197087760    0.0003799999    
0.0482548600    0.0202854990    0.0003838400    
0.0484775210    0.0204680890    0.0003893919    
0.0487001820    0.0198876170    0.0003782119    
0.0489228430    0.0191333900    0.0003707715    
0.0491455040    0.0193869050    0.0003706384    
0.0493681650    0.0195990010    0.0003758628    
0.0495908260    0.0200389570    0.0003736635    
0.0498134870    0.0203157780    0.0003798171    
0.0500361480    0.0198340580    0.0003742941    
0.0502588090    0.0191893120    0.0003626439    
0.0504814700    0.0196943120    0.0003721875    
0.0507041310    0.0196820410    0.0003676478    
0.0509267920    0.0193189740    0.0003657480    
0.0511494530    0.0200733800    0.0003703349    
0.0513721140    0.0202338050    0.0003750862    
0.0515947750    0.0198362150    0.0003664587    
0.0518174360    0.0199992840    0.0003657454    
0.0520400970    0.0198350430    0.0003617149    
0.0522627580    0.0194087990    0.0003608481    
0.0524854190    0.0196916030    0.0003664228    
0.0527080800    0.0192914190    0.0003654884    
0.0529307410    0.0190257160    0.0003646674    
0.0531534020    0.0197478490    0.0003701710    
0.0533760630    0.0191804290    0.0003659561    
0.0535987240    0.0197488130    0.0003696051    
0.0538213850    0.0197065070    0.0003734866    
0.0540440460    0.0199761780    0.0003742537    
0.0542667070    0.0195060580    0.0003723724    
0.0544893680    0.0194129910    0.0003716809    
0.0547120290    0.0195550190    0.0003704825    
0.0549346900    0.0195615490    0.0003707393    
0.0551573510    0.0195716650    0.0003752006    
0.0553800120    0.0192615250    0.0003690516    
0.0556026730    0.0200611650    0.0003844433    
0.0558253340    0.0196044690    0.0003832245    
0.0560479950    0.0193947350    0.0003811692    
0.0562706560    0.0191835370    0.0003827532    
0.0564933170    0.0199610400    0.0003938230    
0.0567159780    0.0194094100    0.0003836871    
0.0569386390    0.0199839540    0.0003954312    
0.0571613000    0.0202787990    0.0003897608    
0.0573839610    0.0188383440    0.0003725438    
0.0576066220    0.0197206510    0.0003822234    
0.0578292830    0.0196197950    0.0003799832    
0.0580519440    0.0196090830    0.0003813525    
0.0582746050    0.0187602170    0.0003713620    
0.0584972660    0.0197767790    0.0003798313    
0.0587199270    0.0190501150    0.0003695744    
0.0589425880    0.0202734930    0.0003790266    
0.0591652490    0.0193226080    0.0003722085    
0.0593879100    0.0192344530    0.0003686006    
0.0596105710    0.0204908750    0.0003800476    
0.0598332320    0.0200253110    0.0003789168    
0.0600558930    0.0190912190    0.0003676150    
0.0602785540    0.0199762260    0.0003756417    
0.0605012150    0.0197233210    0.0003724698    
0.0607238760    0.0197627010    0.0003701244    
0.0609465370    0.0201384670    0.0003765680    
0.0611691980    0.0191004060    0.0003673155    
0.0613918590    0.0199156750    0.0003709779    
0.0616145200    0.0190092340    0.0003650899    
0.0618371810    0.0206245020    0.0003765502    
0.0620598420    0.0194339160    0.0003658969    
0.0622825030    0.0195925750    0.0003730059    
0.0625051640    0.0199504360    0.0003711107    
0.0627278250    0.0195452390    0.0003665663    
0.0629504860    0.0191813940    0.0003601862    
0.0631731470    0.0194232750    0.0003669344    
0.0633958080    0.0193039050    0.0003679104    
0.0636184690    0.0197804750    0.0003776110    
0.0638411300    0.0199971350    0.0003782482    
0.0640637910    0.0199456610    0.0003804180    
0.0642864520    0.0199316750    0.0003794617    
0.0645091130    0.0196944180    0.0003805019    
0.0647317740    0.0198189120    0.0003821234    
0.0649544350    0.0196062470    0.0003796496    
0.0651770960    0.0187094100    0.0003688419    
0.0653997570    0.0206917320    0.0003870488    
0.0656224180    0.0193929710    0.0003755198    
0.0658450790    0.0196589080    0.0003726514    
0.0660677400    0.0193065340    0.0003708682    
0.0662904010    0.0188072720    0.0003704114    
0.0665130620    0.0198666920    0.0003790498    
0.0667357230    0.0195455820    0.0003826587    
0.0669583840    0.0195712840    0.0003816291    
0.0671810450    0.0197752620    0.0003814946    
0.0674037060    0.0189972620    0.0003802496    
0.0676263670    0.0192151100    0.0003796237    
0.0678490280    0.0195883070    0.0003809484    
0.0680716890    0.0194448940    0.0003803959    
0.0682943500    0.0197856260    0.0003795116    
0.0685170110    0.0199763930    0.0003774509    
0.0687396720    0.0192532050    0.0003695712    
0.0689623330    0.0184053110    0.0003601967    
0.0691849940    0.0190543300    0.0003690316    
0.0694076550    0.0193838330    0.0003720101    
0.0696303160    0.0192748720    0.0003680261    
0.0698529770    0.0197329720    0.0003715933    
0.0700756380    0.0201774460    0.0003709315    
0.0702982990    0.0197273660    0.0003707654    
0.0705209600    0.0205149640    0.0003753645    
0.0707436210    0.0201364270    0.0003701774    
0.0709662820    0.0195253580    0.0003688629    
0.0711889430    0.0199664320    0.0003684245    
0.0714116040    0.0194473450    0.0003643461    
0.0716342650    0.0193235960    0.0003617104    
0.0718569260    0.0197055570    0.0003637966    
0.0720795870    0.0195335380    0.0003636704    
0.0723022480    0.0202043400    0.0003704258    
0.0725249090    0.0201144610    0.0003651746    
0.0727475700    0.0198526310    0.0003658888    
0.0729702310    0.0196234940    0.0003608699    
0.0731928920    0.0191986840    0.0003583691    
0.0734155530    0.0201881860    0.0003667550    
0.0736382140    0.0196339100    0.0003593641    
0.0738608750    0.0195286230    0.0003607146    
0.0740835360    0.0198494540    0.0003627627    
0.0743061970    0.0188883900    0.0003488888    
0.0745288580    0.0195353500    0.0003584619    
0.0747515190    0.0195597620    0.0003593942    
0.0749741800    0.0202299450    0.0003621161    
0.0751968410    0.0194624980    0.0003579698    
0.0754195020    0.0196775990    0.0003578337    
0.0756421630    0.0195236350    0.0003535174    
0.0758648240    0.0197719840    0.0003566139    
0.0760874850    0.0192068040    0.0003513113    
0.0763101460    0.0190096270    0.0003491680    
0.0765328070    0.0195773710    0.0003579696    
0.0767554680    0.0192738410    0.0003527736    
0.0769781290    0.0195891270    0.0003536036    
0.0772007900    0.0189432800    0.0003449368    
0.0774234510    0.0193626720    0.0003507178    
0.0776461120    0.0203150820    0.0003588991    
0.0778687730    0.0192740650    0.0003484276    
0.0780914340    0.0192502030    0.0003507000    
0.0783140950    0.0192629970    0.0003452505    
0.0785367560    0.0202150060    0.0003593814    
0.0787594170    0.0195029850    0.0003498329    
0.0789820780    0.0195769140    0.0003486993    
0.0792047390    0.0193675470    0.0003479637    
0.0794274000    0.0195635390    0.0003512016    
0.0796500610    0.0197461010    0.0003493928    
0.0798727220    0.0196973220    0.0003486388    
0.0800953830    0.0195576890    0.0003466019    
0.0803180440    0.0199058640    0.0003521094    
0.0805407050    0.0201299640    0.0003537566    
0.0807633660    0.0184916550    0.0003387409    
0.0809860270    0.0197966620    0.0003491958    
0.0812086880    0.0195407360    0.0003439333    
0.0814313490    0.0194383750    0.0003445957    
0.0816540100    0.0188026700    0.0003381425    
0.0818766710    0.0190474640    0.0003411136    
0.0820993320    0.0192702590    0.0003424776    
0.0823219930    0.0197425300    0.0003480786    
0.0825446540    0.0198437710    0.0003464345    
0.0827673150    0.0192438780    0.0003388658    
0.0829899760    0.0192051520    0.0003379220    
0.0832126370    0.0194975640    0.0003420099    
0.0834352980    0.0197807640    0.0003437145    
0.0836579590    0.0196571250    0.0003418760    
0.0838806200    0.0191281770    0.0003383002    
0.0841032810    0.0192814290    0.0003375442    
0.0843259420    0.0201318630    0.0003438457    
0.0845486030    0.0194800140    0.0003382334    
0.0847712640    0.0196087960    0.0003372816    
0.0849939250    0.0194093540    0.0003361463    
0.0852165860    0.0191683920    0.0003344907    
0.0854392470    0.0192423060    0.0003319613    
0.0856619080    0.0196430180    0.0003378702    
0.0858845690    0.0191766350    0.0003308284    
0.0861072300    0.0198415770    0.0003388382    
0.0863298910    0.0199037390    0.0003411457    
0.0865525520    0.0192569150    0.0003326592    
0.0867752130    0.0198294630    0.0003348444    
0.0869978740    0.0195555800    0.0003333714    
0.0872205350    0.0193357900    0.0003310709    
0.0874431960    0.0202768190    0.0003390317    
0.0876658570    0.0193589180    0.0003325411    
0.0878885180    0.0192648660    0.0003323011    
0.0881111790    0.0193641030    0.0003327283    
0.0883338400    0.0197337910    0.0003309716    
0.0885565010    0.0188355820    0.0003277365    
0.0887791620    0.0194946980    0.0003290977    
0.0890018230    0.0198067440    0.0003349387    
0.0892244840    0.0194138060    0.0003321634    
0.0894471450    0.0201743320    0.0003371768    
0.0896698060    0.0195190660    0.0003304048    
0.0898924670    0.0198076920    0.0003343815    
0.0901151280    0.0195312390    0.0003284533    
0.0903377890    0.0196966520    0.0003326017    
0.0905604500    0.0195218460    0.0003296030    
0.0907831110    0.0192808640    0.0003267474    
0.0910057720    0.0194694040    0.0003298478    
0.0912284330    0.0193067910    0.0003237645    
0.0914510940    0.0195621470    0.0003295327    
0.0916737550    0.0188575800    0.0003227410    
0.0918964160    0.0189145040    0.0003245720    
0.0921190770    0.0194764590    0.0003263803    
0.0923417380    0.0197113970    0.0003284777    
0.0925643990    0.0185583020    0.0003179451    
0.0927870600    0.0190677970    0.0003236016    
0.0930097210    0.0202074390    0.0003302945    
0.0932323820    0.0195523760    0.0003272851    
