# Diamond Light Source Ltd.
# Data extracted from: /dls/b21/data/2018/cm19678-3/processed/b21-386631_00469.dat
q(1/A)          Column          Error           
0.0035000000    2.0788025000    0.0245741260    
0.0037226610    1.8705278000    0.0228198000    
0.0039453220    1.5747489000    0.0190476790    
0.0041679830    1.2868787000    0.0141406700    
0.0043906440    0.9760606500    0.0117794470    
0.0046133050    0.7891974700    0.0101681800    
0.0048359660    0.6008619200    0.0083923847    
0.0050586270    0.4597746200    0.0072157583    
0.0052812880    0.4080748900    0.0064273725    
0.0055039490    0.3822158400    0.0059146416    
0.0057266100    0.3093171400    0.0051474275    
0.0059492710    0.2697423900    0.0048068755    
0.0061719320    0.2260559700    0.0042403718    
0.0063945930    0.1991400400    0.0040281718    
0.0066172539    0.1787469800    0.0035835504    
0.0068399149    0.1667580900    0.0034067754    
0.0070625759    0.1437195700    0.0031302615    
0.0072852369    0.1288662000    0.0029197425    
0.0075078979    0.1154189800    0.0027496302    
0.0077305589    0.1000958800    0.0025118341    
0.0079532199    0.0984443200    0.0024565064    
0.0081758809    0.0856101700    0.0023121001    
0.0083985419    0.0828393120    0.0021212974    
0.0086212029    0.0773529170    0.0020498482    
0.0088438639    0.0710908180    0.0019493404    
0.0090665249    0.0652191150    0.0018033126    
0.0092891859    0.0625776700    0.0018437123    
0.0095118469    0.0599825300    0.0017358917    
0.0097345079    0.0541151870    0.0016013494    
0.0099571689    0.0531336220    0.0015540399    
0.0101798300    0.0492701940    0.0014964756    
0.0104024910    0.0468154760    0.0014537846    
0.0106251520    0.0458612950    0.0014437790    
0.0108478130    0.0436235870    0.0013712957    
0.0110704740    0.0422769650    0.0012852576    
0.0112931350    0.0427614780    0.0012963977    
0.0115157960    0.0419923400    0.0012771951    
0.0117384570    0.0379508280    0.0012037272    
0.0119611180    0.0368633660    0.0011897600    
0.0121837790    0.0387897410    0.0011999378    
0.0124064400    0.0355209720    0.0011004010    
0.0126291010    0.0334074480    0.0010538050    
0.0128517620    0.0326390840    0.0010442168    
0.0130744230    0.0346911000    0.0010685572    
0.0132970840    0.0315822820    0.0010145691    
0.0135197450    0.0304308880    0.0009816416    
0.0137424060    0.0331611640    0.0010104665    
0.0139650670    0.0309644800    0.0009546758    
0.0141877280    0.0305397800    0.0009502016    
0.0144103890    0.0290102840    0.0009101336    
0.0146330500    0.0282765760    0.0008928456    
0.0148557110    0.0281517840    0.0008871380    
0.0150783720    0.0289806950    0.0008926650    
0.0153010330    0.0282761480    0.0008693155    
0.0155236940    0.0282577750    0.0008638654    
0.0157463550    0.0272360920    0.0008334109    
0.0159690160    0.0265995160    0.0008204883    
0.0161916770    0.0267761160    0.0008185698    
0.0164143380    0.0261417600    0.0008149428    
0.0166369990    0.0264158690    0.0007939462    
0.0168596600    0.0257883330    0.0007775475    
0.0170823210    0.0241456480    0.0007458616    
0.0173049820    0.0254082980    0.0007664375    
0.0175276430    0.0233971560    0.0007432352    
0.0177503040    0.0232508310    0.0007220198    
0.0179729650    0.0244843020    0.0007335760    
0.0181956260    0.0238293990    0.0007098247    
0.0184182870    0.0243383900    0.0007139845    
0.0186409480    0.0226323900    0.0006928643    
0.0188636090    0.0231445260    0.0006962531    
0.0190862700    0.0235524430    0.0007012638    
0.0193089310    0.0237913000    0.0007037122    
0.0195315920    0.0236184970    0.0006773069    
0.0197542530    0.0238821620    0.0006820691    
0.0199769140    0.0223237910    0.0006594405    
0.0201995750    0.0220453590    0.0006450535    
0.0204222360    0.0220222620    0.0006502498    
0.0206448970    0.0242088270    0.0006769218    
0.0208675580    0.0228770910    0.0006444890    
0.0210902190    0.0228209700    0.0006499090    
0.0213128800    0.0216115410    0.0006238714    
0.0215355410    0.0212051950    0.0006106166    
0.0217582020    0.0217151130    0.0006179148    
0.0219808630    0.0224648260    0.0006276658    
0.0222035240    0.0222145260    0.0006185036    
0.0224261850    0.0212119050    0.0005990056    
0.0226488460    0.0217276440    0.0006016914    
0.0228715070    0.0217193010    0.0006000814    
0.0230941680    0.0219514250    0.0006032797    
0.0233168290    0.0217776570    0.0006023839    
0.0235394900    0.0205988670    0.0005793884    
0.0237621510    0.0214490080    0.0005753072    
0.0239848120    0.0218544010    0.0005813904    
0.0242074730    0.0222212770    0.0005815574    
0.0244301340    0.0212957130    0.0005699667    
0.0246527950    0.0209616060    0.0005707141    
0.0248754560    0.0215444860    0.0005655909    
0.0250981170    0.0212678180    0.0005632007    
0.0253207780    0.0215187400    0.0005495988    
0.0255434390    0.0198441270    0.0005334134    
0.0257661000    0.0206509800    0.0005459097    
0.0259887610    0.0213444790    0.0005491024    
0.0262114220    0.0209157860    0.0005464562    
0.0264340830    0.0208505850    0.0005381804    
0.0266567440    0.0213620280    0.0005413750    
0.0268794050    0.0209022370    0.0005333314    
0.0271020660    0.0199234440    0.0005185865    
0.0273247270    0.0206984320    0.0005254018    
0.0275473880    0.0206825600    0.0005241553    
0.0277700490    0.0199268140    0.0005114486    
0.0279927100    0.0205609250    0.0005149896    
0.0282153710    0.0212302230    0.0005258486    
0.0284380320    0.0215770070    0.0005270529    
0.0286606930    0.0202727820    0.0005065031    
0.0288833540    0.0195241940    0.0004980078    
0.0291060150    0.0208818120    0.0005145427    
0.0293286760    0.0210559100    0.0005094834    
0.0295513370    0.0198038230    0.0004887227    
0.0297739980    0.0203902290    0.0005013654    
0.0299966590    0.0205095630    0.0004942422    
0.0302193200    0.0204741710    0.0005010119    
0.0304419810    0.0202173540    0.0004987760    
0.0306646420    0.0202774990    0.0004854189    
0.0308873030    0.0201948660    0.0004823364    
0.0311099640    0.0200682750    0.0004820707    
0.0313326250    0.0198865770    0.0004745673    
0.0315552860    0.0206377760    0.0004897128    
0.0317779470    0.0201033510    0.0004837515    
0.0320006080    0.0208901020    0.0004819225    
0.0322232690    0.0202581790    0.0004765641    
0.0324459300    0.0214257050    0.0004864456    
0.0326685910    0.0202873660    0.0004725666    
0.0328912520    0.0201449330    0.0004724642    
0.0331139130    0.0196674130    0.0004607582    
0.0333365740    0.0209361290    0.0004769310    
0.0335592350    0.0201411520    0.0004632905    
0.0337818960    0.0190663980    0.0004504013    
0.0340045570    0.0208725300    0.0004705032    
0.0342272170    0.0200558000    0.0004593868    
0.0344498780    0.0204483170    0.0004656977    
0.0346725390    0.0199635680    0.0004516228    
0.0348952000    0.0197618450    0.0004472884    
0.0351178610    0.0195957890    0.0004474437    
0.0353405220    0.0206021550    0.0004566994    
0.0355631830    0.0195932010    0.0004436986    
0.0357858440    0.0196535010    0.0004443810    
0.0360085050    0.0192366890    0.0004409719    
0.0362311660    0.0205191370    0.0004500200    
0.0364538270    0.0201910820    0.0004428252    
0.0366764880    0.0189689570    0.0004289029    
0.0368991490    0.0201510330    0.0004398363    
0.0371218100    0.0211049880    0.0004488391    
0.0373444710    0.0197625760    0.0004390600    
0.0375671320    0.0194716300    0.0004351813    
0.0377897930    0.0201931470    0.0004316983    
0.0380124540    0.0200361510    0.0004327150    
0.0382351150    0.0204473540    0.0004371329    
0.0384577760    0.0199996950    0.0004281500    
0.0386804370    0.0193475730    0.0004243256    
0.0389030980    0.0198439040    0.0004264795    
0.0391257590    0.0200636480    0.0004259232    
0.0393484200    0.0199378070    0.0004231564    
0.0395710810    0.0194152280    0.0004181366    
0.0397937420    0.0199555550    0.0004239151    
0.0400164030    0.0192103870    0.0004176171    
0.0402390640    0.0199218970    0.0004196176    
0.0404617250    0.0205435160    0.0004236001    
0.0406843860    0.0197544020    0.0004113715    
0.0409070470    0.0195471610    0.0004134709    
0.0411297080    0.0192394060    0.0004062347    
0.0413523690    0.0194335600    0.0004093317    
0.0415750300    0.0198615760    0.0004173300    
0.0417976910    0.0199458830    0.0004073983    
0.0420203520    0.0189307020    0.0003983866    
0.0422430130    0.0190743130    0.0004014088    
0.0424656740    0.0201939040    0.0004076458    
0.0426883350    0.0201205960    0.0004089248    
0.0429109960    0.0203719650    0.0004127568    
0.0431336570    0.0192735840    0.0003958191    
0.0433563180    0.0201202710    0.0004079085    
0.0435789790    0.0199176680    0.0003994735    
0.0438016400    0.0193088340    0.0003954603    
0.0440243010    0.0200379550    0.0003987702    
0.0442469620    0.0193391590    0.0003941027    
0.0444696230    0.0199422640    0.0003987655    
0.0446922840    0.0200300850    0.0003984558    
0.0449149450    0.0198993510    0.0003918440    
0.0451376060    0.0192156630    0.0003898093    
0.0453602670    0.0193181670    0.0003867503    
0.0455829280    0.0198451560    0.0003915367    
0.0458055890    0.0195771050    0.0003911512    
0.0460282500    0.0198858490    0.0003894697    
0.0462509110    0.0191646580    0.0003799641    
0.0464735720    0.0195106010    0.0003835946    
0.0466962330    0.0202363470    0.0003924397    
0.0469188940    0.0198190780    0.0003872717    
0.0471415550    0.0195185880    0.0003862985    
0.0473642160    0.0197413910    0.0003830573    
0.0475868770    0.0202890010    0.0003864046    
0.0478095380    0.0197835550    0.0003798914    
0.0480321990    0.0191889470    0.0003749587    
0.0482548600    0.0194070480    0.0003754406    
0.0484775210    0.0199795470    0.0003847204    
0.0487001820    0.0190608280    0.0003702703    
0.0489228430    0.0194139710    0.0003734837    
0.0491455040    0.0196211120    0.0003728740    
0.0493681650    0.0194552090    0.0003744850    
0.0495908260    0.0191126240    0.0003649282    
0.0498134870    0.0196628670    0.0003736675    
0.0500361480    0.0198415000    0.0003743679    
0.0502588090    0.0196283000    0.0003667720    
0.0504814700    0.0193359630    0.0003687894    
0.0507041310    0.0196137400    0.0003670129    
0.0509267920    0.0198525290    0.0003707678    
0.0511494530    0.0197389720    0.0003672407    
0.0513721140    0.0200325440    0.0003732196    
0.0515947750    0.0192679000    0.0003611744    
0.0518174360    0.0192103810    0.0003584625    
0.0520400970    0.0195451780    0.0003590656    
0.0522627580    0.0198385460    0.0003648246    
0.0524854190    0.0194533290    0.0003642026    
0.0527080800    0.0199011470    0.0003712229    
0.0529307410    0.0200046420    0.0003739349    
0.0531534020    0.0193665830    0.0003665836    
0.0533760630    0.0194391450    0.0003684194    
0.0535987240    0.0201365640    0.0003732194    
0.0538213850    0.0196290180    0.0003727551    
0.0540440460    0.0196890760    0.0003715581    
0.0542667070    0.0201391090    0.0003783702    
0.0544893680    0.0192212200    0.0003698441    
0.0547120290    0.0190359740    0.0003655361    
0.0549346900    0.0195478680    0.0003706132    
0.0551573510    0.0197230900    0.0003766528    
0.0553800120    0.0197285900    0.0003735029    
0.0556026730    0.0195237240    0.0003792623    
0.0558253340    0.0193726120    0.0003809552    
0.0560479950    0.0192078210    0.0003793317    
0.0562706560    0.0193442770    0.0003843571    
0.0564933170    0.0193631220    0.0003878836    
0.0567159780    0.0203123840    0.0003925144    
0.0569386390    0.0194835530    0.0003904527    
0.0571613000    0.0196499090    0.0003836732    
0.0573839610    0.0197743760    0.0003816907    
0.0576066220    0.0192468920    0.0003776079    
0.0578292830    0.0193478710    0.0003773444    
0.0580519440    0.0198171210    0.0003833737    
0.0582746050    0.0195986250    0.0003795732    
0.0584972660    0.0196896140    0.0003789970    
0.0587199270    0.0198033200    0.0003768133    
0.0589425880    0.0196857180    0.0003734953    
0.0591652490    0.0195739240    0.0003746248    
0.0593879100    0.0195880120    0.0003719764    
0.0596105710    0.0192717990    0.0003685725    
0.0598332320    0.0197747450    0.0003765423    
0.0600558930    0.0197782290    0.0003741745    
0.0602785540    0.0193620510    0.0003698255    
0.0605012150    0.0187600220    0.0003632636    
0.0607238760    0.0193818190    0.0003665439    
0.0609465370    0.0197726900    0.0003731361    
0.0611691980    0.0191007700    0.0003673225    
0.0613918590    0.0196465450    0.0003684663    
0.0616145200    0.0192550180    0.0003674461    
0.0618371810    0.0203155220    0.0003737225    
0.0620598420    0.0195238450    0.0003667460    
0.0622825030    0.0199977320    0.0003768464    
0.0625051640    0.0193295110    0.0003652934    
0.0627278250    0.0196693620    0.0003677319    
0.0629504860    0.0191885230    0.0003602566    
0.0631731470    0.0197009280    0.0003695512    
0.0633958080    0.0206015090    0.0003800784    
0.0636184690    0.0201989610    0.0003815882    
0.0638411300    0.0198401120    0.0003767638    
0.0640637910    0.0197573920    0.0003786220    
0.0642864520    0.0190290080    0.0003707731    
0.0645091130    0.0200623710    0.0003840436    
0.0647317740    0.0200476910    0.0003843263    
0.0649544350    0.0195404560    0.0003790157    
0.0651770960    0.0188770140    0.0003704938    
0.0653997570    0.0194685550    0.0003754381    
0.0656224180    0.0197132900    0.0003786120    
0.0658450790    0.0190870950    0.0003671953    
0.0660677400    0.0200264570    0.0003777232    
0.0662904010    0.0198727640    0.0003807630    
0.0665130620    0.0193246500    0.0003738466    
0.0667357230    0.0189166490    0.0003764554    
0.0669583840    0.0194749150    0.0003806920    
0.0671810450    0.0193634930    0.0003775055    
0.0674037060    0.0196978570    0.0003872013    
0.0676263670    0.0203405040    0.0003905862    
0.0678490280    0.0197146290    0.0003821784    
0.0680716890    0.0198322350    0.0003841697    
0.0682943500    0.0195821740    0.0003775589    
0.0685170110    0.0198555300    0.0003763110    
0.0687396720    0.0193883610    0.0003708696    
0.0689623330    0.0196322360    0.0003720122    
0.0691849940    0.0197122450    0.0003753522    
0.0694076550    0.0195198570    0.0003733167    
0.0696303160    0.0197882160    0.0003728982    
0.0698529770    0.0197053570    0.0003713368    
0.0700756380    0.0198641500    0.0003680440    
0.0702982990    0.0198113640    0.0003715574    
0.0705209600    0.0200895260    0.0003714555    
0.0707436210    0.0191976830    0.0003614492    
0.0709662820    0.0194142340    0.0003678152    
0.0711889430    0.0202251500    0.0003708073    
0.0714116040    0.0197207630    0.0003669019    
0.0716342650    0.0188364640    0.0003571255    
0.0718569260    0.0190544410    0.0003577392    
0.0720795870    0.0198182860    0.0003663150    
0.0723022480    0.0185611810    0.0003550469    
0.0725249090    0.0197037960    0.0003614311    
0.0727475700    0.0200485720    0.0003676935    
0.0729702310    0.0190066810    0.0003551565    
0.0731928920    0.0198345580    0.0003642589    
0.0734155530    0.0196555390    0.0003618878    
0.0736382140    0.0196737500    0.0003597319    
0.0738608750    0.0197155570    0.0003624404    
0.0740835360    0.0199161310    0.0003633750    
0.0743061970    0.0191336400    0.0003511499    
0.0745288580    0.0191936830    0.0003553167    
0.0747515190    0.0191374990    0.0003554970    
0.0749741800    0.0195043470    0.0003555661    
0.0751968410    0.0201937140    0.0003646358    
0.0754195020    0.0198471630    0.0003593755    
0.0756421630    0.0196008240    0.0003542189    
0.0758648240    0.0194764830    0.0003539424    
0.0760874850    0.0197533760    0.0003562783    
0.0763101460    0.0196641790    0.0003551320    
0.0765328070    0.0196366540    0.0003585146    
0.0767554680    0.0198036840    0.0003575931    
0.0769781290    0.0186831110    0.0003453328    
0.0772007900    0.0201244780    0.0003555317    
0.0774234510    0.0197759680    0.0003544444    
0.0776461120    0.0197701720    0.0003540564    
0.0778687730    0.0199484070    0.0003544739    
0.0780914340    0.0204325670    0.0003613131    
0.0783140950    0.0195356370    0.0003476885    
0.0785367560    0.0194678560    0.0003526809    
0.0787594170    0.0186624790    0.0003422148    
0.0789820780    0.0192543120    0.0003458177    
0.0792047390    0.0200556080    0.0003540941    
0.0794274000    0.0196963140    0.0003523948    
0.0796500610    0.0193693530    0.0003460469    
0.0798727220    0.0191299690    0.0003435844    
0.0800953830    0.0190297980    0.0003418956    
0.0803180440    0.0192397960    0.0003461716    
0.0805407050    0.0194278360    0.0003475357    
0.0807633660    0.0193607590    0.0003466132    
0.0809860270    0.0195999310    0.0003474597    
0.0812086880    0.0194381970    0.0003430329    
0.0814313490    0.0191394060    0.0003419387    
0.0816540100    0.0198368300    0.0003473204    
0.0818766710    0.0194143660    0.0003443866    
0.0820993320    0.0193375810    0.0003430785    
0.0823219930    0.0190801050    0.0003421924    
0.0825446540    0.0195840770    0.0003441634    
0.0827673150    0.0190652280    0.0003372924    
0.0829899760    0.0197406560    0.0003426041    
0.0832126370    0.0199418890    0.0003458882    
0.0834352980    0.0193093090    0.0003395970    
0.0836579590    0.0192234420    0.0003380869    
0.0838806200    0.0190148590    0.0003372999    
0.0841032810    0.0198195360    0.0003422252    
0.0843259420    0.0200147890    0.0003428477    
0.0845486030    0.0193629280    0.0003372186    
0.0847712640    0.0192320710    0.0003340291    
0.0849939250    0.0193107540    0.0003352946    
0.0852165860    0.0191395730    0.0003342424    
0.0854392470    0.0197523740    0.0003363355    
0.0856619080    0.0196492040    0.0003379266    
0.0858845690    0.0194909090    0.0003335314    
0.0861072300    0.0195757760    0.0003365643    
0.0863298910    0.0200210640    0.0003421529    
0.0865525520    0.0196538060    0.0003360730    
0.0867752130    0.0196545560    0.0003333676    
0.0869978740    0.0191069780    0.0003295286    
0.0872205350    0.0193701720    0.0003313683    
0.0874431960    0.0199087360    0.0003359436    
0.0876658570    0.0192736010    0.0003318107    
0.0878885180    0.0197868450    0.0003367760    
0.0881111790    0.0194673840    0.0003336177    
0.0883338400    0.0194954700    0.0003289701    
0.0885565010    0.0193776950    0.0003324225    
0.0887791620    0.0191561700    0.0003262309    
0.0890018230    0.0196145440    0.0003333128    
0.0892244840    0.0189424620    0.0003281095    
0.0894471450    0.0191321690    0.0003283555    
0.0896698060    0.0190608150    0.0003265064    
0.0898924670    0.0193338950    0.0003303612    
0.0901151280    0.0191118140    0.0003249106    
0.0903377890    0.0195060660    0.0003309919    
0.0905604500    0.0191994440    0.0003268731    
0.0907831110    0.0183398730    0.0003186773    
0.0910057720    0.0186259360    0.0003226268    
0.0912284330    0.0194211780    0.0003247253    
0.0914510940    0.0198123250    0.0003316364    
0.0916737550    0.0198687790    0.0003312844    
0.0918964160    0.0191989220    0.0003270063    
0.0921190770    0.0194494830    0.0003261574    
0.0923417380    0.0197719860    0.0003289852    
0.0925643990    0.0197461480    0.0003279657    
0.0927870600    0.0196832620    0.0003287858    
0.0930097210    0.0197597210    0.0003266181    
0.0932323820    0.0194322210    0.0003262811    
