# Diamond Light Source Ltd.
# Data extracted from: /dls/b21/data/2018/cm19678-3/processed/b21-386631_00474.dat
q(1/A)          Column          Error           
0.0035000000    2.0770200000    0.0245702280    
0.0037226610    1.8712607000    0.0228304400    
0.0039453220    1.6115614000    0.0192742380    
0.0041679830    1.2939486000    0.0141832930    
0.0043906440    0.9747393600    0.0117746540    
0.0046133050    0.7787445900    0.0101033470    
0.0048359660    0.5943844700    0.0083492824    
0.0050586270    0.4491458300    0.0071337938    
0.0052812880    0.4240966100    0.0065541039    
0.0055039490    0.3875507800    0.0059573866    
0.0057266100    0.3154838100    0.0051998902    
0.0059492710    0.2686883600    0.0047987716    
0.0061719320    0.2251436100    0.0042329501    
0.0063945930    0.2007967000    0.0040459858    
0.0066172539    0.1843067000    0.0036398385    
0.0068399149    0.1718620700    0.0034594531    
0.0070625759    0.1410686900    0.0031020968    
0.0072852369    0.1211256000    0.0028314597    
0.0075078979    0.1123354700    0.0027133856    
0.0077305589    0.0999608020    0.0025108172    
0.0079532199    0.0967189530    0.0024355426    
0.0081758809    0.0920916300    0.0023986750    
0.0083985419    0.0796230910    0.0020802725    
0.0086212029    0.0802753060    0.0020887753    
0.0088438639    0.0702735680    0.0019386273    
0.0090665249    0.0649051590    0.0017994533    
0.0092891859    0.0624484560    0.0018423057    
0.0095118469    0.0588086330    0.0017192861    
0.0097345079    0.0558986900    0.0016279637    
0.0099571689    0.0515706650    0.0015314267    
0.0101798300    0.0500699410    0.0015089798    
0.0104024910    0.0462535870    0.0014454246    
0.0106251520    0.0479780260    0.0014771213    
0.0108478130    0.0433883980    0.0013679639    
0.0110704740    0.0434335540    0.0013030718    
0.0112931350    0.0444362120    0.0013218976    
0.0115157960    0.0401105710    0.0012485875    
0.0117384570    0.0396521730    0.0012307457    
0.0119611180    0.0378053810    0.0012051915    
0.0121837790    0.0358024210    0.0011531183    
0.0124064400    0.0363587620    0.0011136032    
0.0126291010    0.0352215090    0.0010823307    
0.0128517620    0.0332583920    0.0010543619    
0.0130744230    0.0321741280    0.0010293416    
0.0132970840    0.0327081090    0.0010327732    
0.0135197450    0.0326017850    0.0010163275    
0.0137424060    0.0313922910    0.0009834130    
0.0139650670    0.0318647180    0.0009687159    
0.0141877280    0.0309112550    0.0009562215    
0.0144103890    0.0293687970    0.0009159876    
0.0146330500    0.0289406330    0.0009035129    
0.0148557110    0.0282509200    0.0008889389    
0.0150783720    0.0282535750    0.0008816337    
0.0153010330    0.0282112160    0.0008685515    
0.0155236940    0.0279295500    0.0008590658    
0.0157463550    0.0273528820    0.0008354216    
0.0159690160    0.0266645440    0.0008217127    
0.0161916770    0.0245622180    0.0007842113    
0.0164143380    0.0267405270    0.0008244457    
0.0166369990    0.0266689080    0.0007979554    
0.0168596600    0.0251220360    0.0007676444    
0.0170823210    0.0246658530    0.0007540571    
0.0173049820    0.0232476310    0.0007333236    
0.0175276430    0.0253468450    0.0007737917    
0.0177503040    0.0255291730    0.0007567730    
0.0179729650    0.0242996260    0.0007310018    
0.0181956260    0.0237999730    0.0007095781    
0.0184182870    0.0238485930    0.0007069548    
0.0186409480    0.0234086450    0.0007048367    
0.0188636090    0.0221720810    0.0006816534    
0.0190862700    0.0235651780    0.0007016430    
0.0193089310    0.0232002100    0.0006951032    
0.0195315920    0.0227567560    0.0006650157    
0.0197542530    0.0223748340    0.0006603723    
0.0199769140    0.0223358610    0.0006597971    
0.0201995750    0.0219062020    0.0006431882    
0.0204222360    0.0218228570    0.0006474742    
0.0206448970    0.0224796060    0.0006524742    
0.0208675580    0.0223444740    0.0006371146    
0.0210902190    0.0221851620    0.0006409648    
0.0213128800    0.0228845810    0.0006421568    
0.0215355410    0.0226240680    0.0006308850    
0.0217582020    0.0222722250    0.0006259603    
0.0219808630    0.0221786830    0.0006238242    
0.0222035240    0.0220714690    0.0006166755    
0.0224261850    0.0220696020    0.0006111611    
0.0226488460    0.0223562310    0.0006104979    
0.0228715070    0.0207854960    0.0005871984    
0.0230941680    0.0211504530    0.0005923312    
0.0233168290    0.0221228600    0.0006073035    
0.0235394900    0.0204632570    0.0005776342    
0.0237621510    0.0208739130    0.0005676956    
0.0239848120    0.0206436910    0.0005652095    
0.0242074730    0.0206343230    0.0005605580    
0.0244301340    0.0210782820    0.0005672028    
0.0246527950    0.0202733240    0.0005614178    
0.0248754560    0.0216749840    0.0005674546    
0.0250981170    0.0209957930    0.0005597386    
0.0253207780    0.0213899290    0.0005480995    
0.0255434390    0.0207012710    0.0005449590    
0.0257661000    0.0211530710    0.0005526556    
0.0259887610    0.0215256250    0.0005515766    
0.0262114220    0.0205414090    0.0005416900    
0.0264340830    0.0211259330    0.0005418688    
0.0266567440    0.0213323970    0.0005411456    
0.0268794050    0.0204097620    0.0005271536    
0.0271020660    0.0200017450    0.0005197450    
0.0273247270    0.0206162170    0.0005244991    
0.0275473880    0.0209994320    0.0005282980    
0.0277700490    0.0206993680    0.0005214095    
0.0279927100    0.0209334090    0.0005197740    
0.0282153710    0.0205249580    0.0005171803    
0.0284380320    0.0205710690    0.0005147596    
0.0286606930    0.0212586800    0.0005188131    
0.0288833540    0.0200558470    0.0005048792    
0.0291060150    0.0207408770    0.0005129420    
0.0293286760    0.0209686190    0.0005085637    
0.0295513370    0.0210574650    0.0005040903    
0.0297739980    0.0202162370    0.0004993567    
0.0299966590    0.0196388130    0.0004837674    
0.0302193200    0.0208777730    0.0005060628    
0.0304419810    0.0207453810    0.0005053840    
0.0306646420    0.0198582790    0.0004805047    
0.0308873030    0.0206322630    0.0004876636    
0.0311099640    0.0202992670    0.0004849682    
0.0313326250    0.0206225180    0.0004833993    
0.0315552860    0.0206140550    0.0004895636    
0.0317779470    0.0197065800    0.0004790834    
0.0320006080    0.0203674620    0.0004759844    
0.0322232690    0.0201345290    0.0004752359    
0.0324459300    0.0193930130    0.0004629208    
0.0326685910    0.0203313770    0.0004732068    
0.0328912520    0.0209873370    0.0004823719    
0.0331139130    0.0197968510    0.0004623969    
0.0333365740    0.0195995070    0.0004615803    
0.0335592350    0.0208024520    0.0004709620    
0.0337818960    0.0202051290    0.0004637816    
0.0340045570    0.0198969290    0.0004594999    
0.0342272170    0.0203087920    0.0004624002    
0.0344498780    0.0193875910    0.0004535807    
0.0346725390    0.0200356960    0.0004525602    
0.0348952000    0.0202182230    0.0004525460    
0.0351178610    0.0200357210    0.0004525608    
0.0353405220    0.0199548850    0.0004495895    
0.0355631830    0.0201969360    0.0004506045    
0.0357858440    0.0201868960    0.0004504926    
0.0360085050    0.0198640490    0.0004482260    
0.0362311660    0.0205006070    0.0004499384    
0.0364538270    0.0196675550    0.0004371647    
0.0366764880    0.0200368490    0.0004409297    
0.0368991490    0.0202771950    0.0004413303    
0.0371218100    0.0204001040    0.0004413994    
0.0373444710    0.0195390280    0.0004366877    
0.0375671320    0.0204163680    0.0004457340    
0.0377897930    0.0210812990    0.0004412090    
0.0380124540    0.0198973800    0.0004313304    
0.0382351150    0.0195420830    0.0004274622    
0.0384577760    0.0199188020    0.0004273988    
0.0386804370    0.0201774220    0.0004334472    
0.0389030980    0.0200288780    0.0004285784    
0.0391257590    0.0196493050    0.0004216162    
0.0393484200    0.0198048140    0.0004218567    
0.0395710810    0.0208943690    0.0004338892    
0.0397937420    0.0196870330    0.0004211672    
0.0400164030    0.0204470520    0.0004309660    
0.0402390640    0.0194374470    0.0004145963    
0.0404617250    0.0200652280    0.0004187532    
0.0406843860    0.0199450780    0.0004134639    
0.0409070470    0.0196189850    0.0004143418    
0.0411297080    0.0197389920    0.0004115864    
0.0413523690    0.0192370320    0.0004073668    
0.0415750300    0.0201530720    0.0004204949    
0.0417976910    0.0189659120    0.0003973716    
0.0420203520    0.0197294450    0.0004068143    
0.0422430130    0.0199467310    0.0004105969    
0.0424656740    0.0201554230    0.0004073673    
0.0426883350    0.0196076080    0.0004037874    
0.0429109960    0.0195713430    0.0004046742    
0.0431336570    0.0198452020    0.0004017544    
0.0433563180    0.0201476990    0.0004082968    
0.0435789790    0.0193993640    0.0003943482    
0.0438016400    0.0202025810    0.0004046185    
0.0440243010    0.0194294610    0.0003927749    
0.0442469620    0.0199603190    0.0004004900    
0.0444696230    0.0195780800    0.0003952144    
0.0446922840    0.0200012620    0.0003982767    
0.0449149450    0.0199718720    0.0003926635    
0.0451376060    0.0200488970    0.0003982788    
0.0453602670    0.0192821310    0.0003864938    
0.0455829280    0.0198172410    0.0003913670    
0.0458055890    0.0196189690    0.0003916750    
0.0460282500    0.0195073710    0.0003858498    
0.0462509110    0.0199212180    0.0003874961    
0.0464735720    0.0198078940    0.0003866105    
0.0466962330    0.0210468250    0.0004003295    
0.0469188940    0.0199055100    0.0003882201    
0.0471415550    0.0196438850    0.0003876411    
0.0473642160    0.0203246970    0.0003887803    
0.0475868770    0.0197330160    0.0003811764    
0.0478095380    0.0197212650    0.0003793954    
0.0480321990    0.0193312770    0.0003764484    
0.0482548600    0.0195047470    0.0003764862    
0.0484775210    0.0198643450    0.0003837133    
0.0487001820    0.0192942310    0.0003726311    
0.0489228430    0.0188996770    0.0003686032    
0.0491455040    0.0195253750    0.0003720638    
0.0493681650    0.0197109430    0.0003770401    
0.0495908260    0.0204126960    0.0003772375    
0.0498134870    0.0197942830    0.0003750155    
0.0500361480    0.0190677510    0.0003670950    
0.0502588090    0.0199131990    0.0003695241    
0.0504814700    0.0193041930    0.0003685859    
0.0507041310    0.0192876540    0.0003640476    
0.0509267920    0.0201126800    0.0003732901    
0.0511494530    0.0194625270    0.0003647586    
0.0513721140    0.0199251050    0.0003723181    
0.0515947750    0.0198066770    0.0003662882    
0.0518174360    0.0197494740    0.0003635557    
0.0520400970    0.0196481470    0.0003601075    
0.0522627580    0.0199835250    0.0003662543    
0.0524854190    0.0193615150    0.0003634403    
0.0527080800    0.0192537200    0.0003652333    
0.0529307410    0.0199734980    0.0003737447    
0.0531534020    0.0201615790    0.0003741332    
0.0533760630    0.0195614360    0.0003696764    
0.0535987240    0.0202235850    0.0003741261    
0.0538213850    0.0196892090    0.0003734271    
0.0540440460    0.0195383640    0.0003702334    
0.0542667070    0.0196094410    0.0003734623    
0.0544893680    0.0195591410    0.0003731818    
0.0547120290    0.0195097830    0.0003701573    
0.0549346900    0.0205848700    0.0003804193    
0.0551573510    0.0199280700    0.0003787074    
0.0553800120    0.0199161320    0.0003753754    
0.0556026730    0.0195269100    0.0003793958    
0.0558253340    0.0199452410    0.0003866490    
0.0560479950    0.0194205830    0.0003815299    
0.0562706560    0.0203480710    0.0003943099    
0.0564933170    0.0192647520    0.0003870016    
0.0567159780    0.0193519740    0.0003832262    
0.0569386390    0.0203161280    0.0003988157    
0.0571613000    0.0192707720    0.0003800564    
0.0573839610    0.0196450100    0.0003805429    
0.0576066220    0.0189533930    0.0003748190    
0.0578292830    0.0197338660    0.0003811929    
0.0580519440    0.0199020430    0.0003842981    
0.0582746050    0.0192414580    0.0003762003    
0.0584972660    0.0200798140    0.0003828374    
0.0587199270    0.0196418570    0.0003753754    
0.0589425880    0.0194552980    0.0003714034    
0.0591652490    0.0199934150    0.0003787202    
0.0593879100    0.0201286770    0.0003771770    
0.0596105710    0.0196136990    0.0003719281    
0.0598332320    0.0191254450    0.0003704090    
0.0600558930    0.0197818410    0.0003743098    
0.0602785540    0.0197259050    0.0003733851    
0.0605012150    0.0193050490    0.0003686023    
0.0607238760    0.0196211780    0.0003689000    
0.0609465370    0.0194522490    0.0003702002    
0.0611691980    0.0196694480    0.0003728512    
0.0613918590    0.0196364260    0.0003684710    
0.0616145200    0.0187181950    0.0003623857    
0.0618371810    0.0199206640    0.0003701728    
0.0620598420    0.0194103300    0.0003657772    
0.0622825030    0.0196035430    0.0003732147    
0.0625051640    0.0199477900    0.0003711899    
0.0627278250    0.0195286660    0.0003665134    
0.0629504860    0.0190973890    0.0003594972    
0.0631731470    0.0207172740    0.0003790662    
0.0633958080    0.0194830930    0.0003697175    
0.0636184690    0.0195823810    0.0003758206    
0.0638411300    0.0196647160    0.0003751961    
0.0640637910    0.0194994680    0.0003762442    
0.0642864520    0.0194513100    0.0003749661    
0.0645091130    0.0195068440    0.0003787915    
0.0647317740    0.0197857760    0.0003819107    
0.0649544350    0.0204631090    0.0003879654    
0.0651770960    0.0196657000    0.0003782565    
0.0653997570    0.0198847450    0.0003795324    
0.0656224180    0.0195857150    0.0003774869    
0.0658450790    0.0192387730    0.0003687511    
0.0660677400    0.0191106240    0.0003690851    
0.0662904010    0.0188907940    0.0003713369    
0.0665130620    0.0198271600    0.0003787784    
0.0667357230    0.0201936660    0.0003890598    
0.0669583840    0.0194556620    0.0003806066    
0.0671810450    0.0190499590    0.0003745380    
0.0674037060    0.0196704310    0.0003870363    
0.0676263670    0.0196761210    0.0003842582    
0.0678490280    0.0197030510    0.0003821695    
0.0680716890    0.0198355130    0.0003843053    
0.0682943500    0.0196437470    0.0003782543    
0.0685170110    0.0199162170    0.0003769875    
0.0687396720    0.0193775510    0.0003708665    
0.0689623330    0.0187330030    0.0003634908    
0.0691849940    0.0204880780    0.0003827709    
0.0694076550    0.0195089810    0.0003733135    
0.0696303160    0.0198551620    0.0003736294    
0.0698529770    0.0194779640    0.0003692878    
0.0700756380    0.0193017740    0.0003628948    
0.0702982990    0.0200382160    0.0003737797    
0.0705209600    0.0199766940    0.0003705110    
0.0707436210    0.0192489170    0.0003620290    
0.0709662820    0.0200801250    0.0003741710    
0.0711889430    0.0197055270    0.0003661119    
0.0714116040    0.0198475340    0.0003681788    
0.0716342650    0.0191921490    0.0003605789    
0.0718569260    0.0196090670    0.0003630064    
0.0720795870    0.0193141390    0.0003617235    
0.0723022480    0.0191012410    0.0003602725    
0.0725249090    0.0191041780    0.0003559853    
0.0727475700    0.0205587050    0.0003724428    
0.0729702310    0.0193290390    0.0003582524    
0.0731928920    0.0201531700    0.0003672721    
0.0734155530    0.0190795160    0.0003566420    
0.0736382140    0.0195396020    0.0003586003    
0.0738608750    0.0198128820    0.0003634321    
0.0740835360    0.0196947290    0.0003614473    
0.0743061970    0.0192987370    0.0003527569    
0.0745288580    0.0198819290    0.0003617289    
0.0747515190    0.0194848170    0.0003588054    
0.0749741800    0.0196121760    0.0003566440    
0.0751968410    0.0193811640    0.0003573210    
0.0754195020    0.0196365280    0.0003575601    
0.0756421630    0.0202006610    0.0003596953    
0.0758648240    0.0198281020    0.0003572196    
0.0760874850    0.0191725500    0.0003510961    
0.0763101460    0.0205282860    0.0003629490    
0.0765328070    0.0194835450    0.0003572107    
0.0767554680    0.0197756290    0.0003574363    
0.0769781290    0.0196320250    0.0003540896    
0.0772007900    0.0201479290    0.0003558350    
0.0774234510    0.0195514840    0.0003525223    
0.0776461120    0.0193558080    0.0003504211    
0.0778687730    0.0198016380    0.0003532629    
0.0780914340    0.0198491010    0.0003562132    
0.0783140950    0.0195585840    0.0003479867    
0.0785367560    0.0201368250    0.0003587862    
0.0787594170    0.0197901610    0.0003524977    
0.0789820780    0.0195381580    0.0003484515    
0.0792047390    0.0196974010    0.0003510125    
0.0794274000    0.0192086130    0.0003480987    
0.0796500610    0.0195653970    0.0003478877    
0.0798727220    0.0197762650    0.0003494345    
0.0800953830    0.0190585250    0.0003422460    
0.0803180440    0.0198609210    0.0003518101    
0.0805407050    0.0200728090    0.0003533529    
0.0807633660    0.0194643590    0.0003476333    
0.0809860270    0.0194687820    0.0003463889    
0.0812086880    0.0192064320    0.0003410740    
0.0814313490    0.0198159930    0.0003480241    
0.0816540100    0.0200787670    0.0003495265    
0.0818766710    0.0193698530    0.0003440846    
0.0820993320    0.0193663080    0.0003434261    
0.0823219930    0.0190720000    0.0003422122    
0.0825446540    0.0193647100    0.0003423229    
0.0827673150    0.0199591620    0.0003452027    
0.0829899760    0.0194836170    0.0003404583    
0.0832126370    0.0201807710    0.0003480478    
0.0834352980    0.0190986450    0.0003378307    
0.0836579590    0.0197573670    0.0003428425    
0.0838806200    0.0196477380    0.0003429599    
0.0841032810    0.0192981360    0.0003377849    
0.0843259420    0.0200667440    0.0003433852    
0.0845486030    0.0197435900    0.0003406093    
0.0847712640    0.0192714940    0.0003344616    
0.0849939250    0.0198337870    0.0003398968    
0.0852165860    0.0195061720    0.0003375195    
0.0854392470    0.0195796920    0.0003349526    
0.0856619080    0.0194039780    0.0003359021    
0.0858845690    0.0190674490    0.0003299775    
0.0861072300    0.0196210980    0.0003370447    
0.0863298910    0.0198446750    0.0003407345    
0.0865525520    0.0195206880    0.0003350235    
0.0867752130    0.0194615170    0.0003318161    
0.0869978740    0.0189922120    0.0003286263    
0.0872205350    0.0195621440    0.0003330963    
0.0874431960    0.0199081570    0.0003360296    
0.0876658570    0.0197298300    0.0003358056    
0.0878885180    0.0188913990    0.0003291564    
0.0881111790    0.0192834170    0.0003321273    
0.0883338400    0.0190505740    0.0003252827    
0.0885565010    0.0193139990    0.0003319654    
0.0887791620    0.0196279030    0.0003303125    
0.0890018230    0.0194608050    0.0003320937    
0.0892244840    0.0192370230    0.0003307401    
0.0894471450    0.0198585960    0.0003346215    
0.0896698060    0.0189927780    0.0003260112    
0.0898924670    0.0193161100    0.0003302985    
0.0901151280    0.0193653200    0.0003271468    
0.0903377890    0.0196121460    0.0003319804    
0.0905604500    0.0194715250    0.0003292700    
0.0907831110    0.0200950150    0.0003336680    
0.0910057720    0.0195418080    0.0003305530    
0.0912284330    0.0192850050    0.0003236723    
0.0914510940    0.0195508820    0.0003295300    
0.0916737550    0.0198795220    0.0003314635    
0.0918964160    0.0193876310    0.0003286984    
0.0921190770    0.0195694480    0.0003272501    
0.0923417380    0.0198922160    0.0003300732    
0.0925643990    0.0195660700    0.0003265550    
0.0927870600    0.0196884100    0.0003289177    
0.0930097210    0.0191059910    0.0003212566    
0.0932323820    0.0198264310    0.0003296631    
