# Diamond Light Source Ltd.
# Data extracted from: /dls/b21/data/2018/cm19678-3/processed/b21-386631_00481.dat
q(1/A)          Column          Error           
0.0035000000    2.0561583000    0.0244469130    
0.0037226610    1.8924903000    0.0229599470    
0.0039453220    1.6159927000    0.0193010260    
0.0041679830    1.2611853000    0.0140028010    
0.0043906440    0.9581283100    0.0116740790    
0.0046133050    0.7827018900    0.0101291460    
0.0048359660    0.5876008200    0.0083016330    
0.0050586270    0.4559587100    0.0071878091    
0.0052812880    0.4337328600    0.0066282517    
0.0055039490    0.3745588700    0.0058567735    
0.0057266100    0.3131797100    0.0051809494    
0.0059492710    0.2660399400    0.0047751386    
0.0061719320    0.2190226000    0.0041750791    
0.0063945930    0.1994986400    0.0040329511    
0.0066172539    0.1785617800    0.0035827187    
0.0068399149    0.1660875500    0.0034008923    
0.0070625759    0.1459166000    0.0031549995    
0.0072852369    0.1211294500    0.0028315498    
0.0075078979    0.1126667600    0.0027174268    
0.0077305589    0.1001531900    0.0025132722    
0.0079532199    0.0948820420    0.0024123419    
0.0081758809    0.0910948900    0.0023856968    
0.0083985419    0.0852782280    0.0021529141    
0.0086212029    0.0752774790    0.0020227405    
0.0088438639    0.0705966980    0.0019431102    
0.0090665249    0.0648074440    0.0017981268    
0.0092891859    0.0633744280    0.0018559436    
0.0095118469    0.0641386350    0.0017955371    
0.0097345079    0.0567539110    0.0016403961    
0.0099571689    0.0536643050    0.0015622283    
0.0101798300    0.0527092720    0.0015482650    
0.0104024910    0.0481070670    0.0014741242    
0.0106251520    0.0467516400    0.0014581436    
0.0108478130    0.0458913760    0.0014068904    
0.0110704740    0.0441386520    0.0013136271    
0.0112931350    0.0411736230    0.0012724647    
0.0115157960    0.0413167580    0.0012672421    
0.0117384570    0.0397680400    0.0012325621    
0.0119611180    0.0386134320    0.0012180227    
0.0121837790    0.0367692160    0.0011686024    
0.0124064400    0.0359847230    0.0011078780    
0.0126291010    0.0362204380    0.0010975890    
0.0128517620    0.0326577720    0.0010448147    
0.0130744230    0.0341181750    0.0010600001    
0.0132970840    0.0316981990    0.0010167202    
0.0135197450    0.0329513460    0.0010217779    
0.0137424060    0.0314240980    0.0009839267    
0.0139650670    0.0298925300    0.0009382739    
0.0141877280    0.0289894680    0.0009260346    
0.0144103890    0.0307696500    0.0009375938    
0.0146330500    0.0297877980    0.0009166561    
0.0148557110    0.0290070650    0.0009007710    
0.0150783720    0.0286946600    0.0008885031    
0.0153010330    0.0289341300    0.0008796234    
0.0155236940    0.0281154090    0.0008619331    
0.0157463550    0.0265627390    0.0008232798    
0.0159690160    0.0274504140    0.0008337469    
0.0161916770    0.0264409050    0.0008136626    
0.0164143380    0.0246823930    0.0007920957    
0.0166369990    0.0249029150    0.0007710953    
0.0168596600    0.0244425720    0.0007572042    
0.0170823210    0.0262803430    0.0007783566    
0.0173049820    0.0260242960    0.0007758946    
0.0175276430    0.0244735940    0.0007603576    
0.0177503040    0.0228827640    0.0007164871    
0.0179729650    0.0244983210    0.0007339961    
0.0181956260    0.0240757610    0.0007136888    
0.0184182870    0.0233463770    0.0006994826    
0.0186409480    0.0238126340    0.0007109041    
0.0188636090    0.0222566150    0.0006829625    
0.0190862700    0.0232943350    0.0006976103    
0.0193089310    0.0224095330    0.0006831667    
0.0195315920    0.0240012710    0.0006829686    
0.0197542530    0.0241881990    0.0006866219    
0.0199769140    0.0218882810    0.0006531633    
0.0201995750    0.0223223750    0.0006492795    
0.0204222360    0.0226880410    0.0006601947    
0.0206448970    0.0226318310    0.0006546900    
0.0208675580    0.0237440300    0.0006567750    
0.0210902190    0.0216858530    0.0006337210    
0.0213128800    0.0224348120    0.0006358252    
0.0215355410    0.0220618070    0.0006230061    
0.0217582020    0.0221321890    0.0006239992    
0.0219808630    0.0236006950    0.0006435224    
0.0222035240    0.0227096970    0.0006255379    
0.0224261850    0.0228996330    0.0006225577    
0.0226488460    0.0210398670    0.0005922612    
0.0228715070    0.0219308060    0.0006031688    
0.0230941680    0.0229925180    0.0006175966    
0.0233168290    0.0213399860    0.0005964707    
0.0235394900    0.0216053210    0.0005935438    
0.0237621510    0.0198709920    0.0005538986    
0.0239848120    0.0214645500    0.0005763464    
0.0242074730    0.0224928890    0.0005852683    
0.0244301340    0.0208347360    0.0005639254    
0.0246527950    0.0209891550    0.0005712524    
0.0248754560    0.0216459610    0.0005670836    
0.0250981170    0.0217724500    0.0005700063    
0.0253207780    0.0210675740    0.0005439624    
0.0255434390    0.0219787640    0.0005615312    
0.0257661000    0.0204173340    0.0005429681    
0.0259887610    0.0208902730    0.0005433841    
0.0262114220    0.0209134770    0.0005465825    
0.0264340830    0.0218354590    0.0005509018    
0.0266567440    0.0200152020    0.0005241809    
0.0268794050    0.0201653240    0.0005239956    
0.0271020660    0.0204480790    0.0005255204    
0.0273247270    0.0206835950    0.0005253638    
0.0275473880    0.0210266820    0.0005286491    
0.0277700490    0.0213173500    0.0005291441    
0.0279927100    0.0206759480    0.0005165760    
0.0282153710    0.0206819970    0.0005191633    
0.0284380320    0.0209195240    0.0005191093    
0.0286606930    0.0207528800    0.0005126122    
0.0288833540    0.0213910420    0.0005214226    
0.0291060150    0.0203229000    0.0005077553    
0.0293286760    0.0206732490    0.0005049772    
0.0295513370    0.0202254640    0.0004940393    
0.0297739980    0.0206239320    0.0005043747    
0.0299966590    0.0205093880    0.0004943816    
0.0302193200    0.0203632230    0.0004997957    
0.0304419810    0.0209553490    0.0005079432    
0.0306646420    0.0211029990    0.0004953428    
0.0308873030    0.0200450540    0.0004806815    
0.0311099640    0.0201724590    0.0004834588    
0.0313326250    0.0206571680    0.0004838129    
0.0315552860    0.0199170900    0.0004812239    
0.0317779470    0.0204642800    0.0004882144    
0.0320006080    0.0198007840    0.0004693236    
0.0322232690    0.0201800390    0.0004757803    
0.0324459300    0.0204655280    0.0004755569    
0.0326685910    0.0208386720    0.0004790816    
0.0328912520    0.0202784260    0.0004741627    
0.0331139130    0.0200566950    0.0004654290    
0.0333365740    0.0202415110    0.0004690867    
0.0335592350    0.0198434620    0.0004599856    
0.0337818960    0.0195776680    0.0004565308    
0.0340045570    0.0199824580    0.0004604938    
0.0342272170    0.0200356980    0.0004592880    
0.0344498780    0.0201734990    0.0004626901    
0.0346725390    0.0201692280    0.0004540731    
0.0348952000    0.0207557400    0.0004585295    
0.0351178610    0.0200159130    0.0004523443    
0.0353405220    0.0206544690    0.0004574098    
0.0355631830    0.0199060260    0.0004473547    
0.0357858440    0.0205394130    0.0004544162    
0.0360085050    0.0192477030    0.0004412244    
0.0362311660    0.0195038470    0.0004388709    
0.0364538270    0.0196098760    0.0004365302    
0.0366764880    0.0195135040    0.0004351402    
0.0368991490    0.0195189820    0.0004330074    
0.0371218100    0.0196653330    0.0004333843    
0.0373444710    0.0194127690    0.0004352814    
0.0375671320    0.0204559440    0.0004461729    
0.0377897930    0.0199184450    0.0004288746    
0.0380124540    0.0195426920    0.0004274755    
0.0382351150    0.0200943890    0.0004334676    
0.0384577760    0.0188005720    0.0004152352    
0.0386804370    0.0198894070    0.0004303494    
0.0389030980    0.0202863040    0.0004313307    
0.0391257590    0.0205636700    0.0004313213    
0.0393484200    0.0202098200    0.0004261551    
0.0395710810    0.0193452510    0.0004175018    
0.0397937420    0.0204625510    0.0004293893    
0.0400164030    0.0189216200    0.0004145851    
0.0402390640    0.0194911270    0.0004151750    
0.0404617250    0.0190520860    0.0004080508    
0.0406843860    0.0198857130    0.0004128546    
0.0409070470    0.0197683750    0.0004159229    
0.0411297080    0.0197653680    0.0004118679    
0.0413523690    0.0207041920    0.0004226225    
0.0415750300    0.0197501120    0.0004162764    
0.0417976910    0.0203985790    0.0004121135    
0.0420203520    0.0198810690    0.0004083810    
0.0422430130    0.0198881990    0.0004100006    
0.0424656740    0.0200078580    0.0004058798    
0.0426883350    0.0202152720    0.0004100031    
0.0429109960    0.0198815700    0.0004078753    
0.0431336570    0.0202037090    0.0004053735    
0.0433563180    0.0197594400    0.0004043500    
0.0435789790    0.0197527090    0.0003979297    
0.0438016400    0.0198142330    0.0004007171    
0.0440243010    0.0194380190    0.0003928677    
0.0442469620    0.0204672100    0.0004055498    
0.0444696230    0.0193233970    0.0003926417    
0.0446922840    0.0201922420    0.0004001800    
0.0449149450    0.0200342700    0.0003932827    
0.0451376060    0.0197884320    0.0003956895    
0.0453602670    0.0197320820    0.0003909835    
0.0455829280    0.0196246400    0.0003894667    
0.0458055890    0.0197056100    0.0003925452    
0.0460282500    0.0197293260    0.0003880449    
0.0462509110    0.0202761190    0.0003909387    
0.0464735720    0.0195444100    0.0003840367    
0.0466962330    0.0195625960    0.0003859619    
0.0469188940    0.0195729860    0.0003849699    
0.0471415550    0.0183670050    0.0003748368    
0.0473642160    0.0201245450    0.0003868674    
0.0475868770    0.0198440930    0.0003822539    
0.0478095380    0.0195905100    0.0003781416    
0.0480321990    0.0192879060    0.0003760319    
0.0482548600    0.0187859070    0.0003694893    
0.0484775210    0.0194721250    0.0003799123    
0.0487001820    0.0200289270    0.0003796654    
0.0489228430    0.0194466540    0.0003739050    
0.0491455040    0.0195401760    0.0003722107    
0.0493681650    0.0201154660    0.0003808955    
0.0495908260    0.0194442690    0.0003681861    
0.0498134870    0.0199867510    0.0003768403    
0.0500361480    0.0199376710    0.0003753815    
0.0502588090    0.0204418510    0.0003744029    
0.0504814700    0.0193892610    0.0003694030    
0.0507041310    0.0196799420    0.0003677370    
0.0509267920    0.0198846810    0.0003711741    
0.0511494530    0.0196614010    0.0003666233    
0.0513721140    0.0197378920    0.0003705707    
0.0515947750    0.0195566670    0.0003639749    
0.0518174360    0.0192682290    0.0003591046    
0.0520400970    0.0199985820    0.0003633105    
0.0522627580    0.0199505970    0.0003659582    
0.0524854190    0.0194235330    0.0003640277    
0.0527080800    0.0193790460    0.0003664259    
0.0529307410    0.0200440710    0.0003744103    
0.0531534020    0.0199539340    0.0003722075    
0.0533760630    0.0202746760    0.0003763615    
0.0535987240    0.0194351930    0.0003667670    
0.0538213850    0.0192648750    0.0003693871    
0.0540440460    0.0188233740    0.0003634019    
0.0542667070    0.0196171780    0.0003735420    
0.0544893680    0.0190257330    0.0003680639    
0.0547120290    0.0193558940    0.0003687004    
0.0549346900    0.0196996720    0.0003721559    
0.0551573510    0.0190290690    0.0003700725    
0.0553800120    0.0197823370    0.0003741184    
0.0556026730    0.0197634240    0.0003816926    
0.0558253340    0.0196985200    0.0003842562    
0.0560479950    0.0202157390    0.0003892684    
0.0562706560    0.0197526990    0.0003885046    
0.0564933170    0.0191720700    0.0003860757    
0.0567159780    0.0194967860    0.0003846635    
0.0569386390    0.0196826090    0.0003925546    
0.0571613000    0.0195412290    0.0003827202    
0.0573839610    0.0199478760    0.0003834712    
0.0576066220    0.0194802900    0.0003799992    
0.0578292830    0.0188140410    0.0003722088    
0.0580519440    0.0195167930    0.0003805665    
0.0582746050    0.0197790240    0.0003814253    
0.0584972660    0.0191826350    0.0003741929    
0.0587199270    0.0194918270    0.0003739450    
0.0589425880    0.0196119050    0.0003729011    
0.0591652490    0.0194344760    0.0003733949    
0.0593879100    0.0195780230    0.0003719880    
0.0596105710    0.0194732630    0.0003706001    
0.0598332320    0.0192336640    0.0003714613    
0.0600558930    0.0200657860    0.0003769926    
0.0602785540    0.0195144950    0.0003713848    
0.0605012150    0.0196012650    0.0003714253    
0.0607238760    0.0194137240    0.0003669504    
0.0609465370    0.0199671960    0.0003750742    
0.0611691980    0.0199598590    0.0003755996    
0.0613918590    0.0196301360    0.0003684178    
0.0616145200    0.0203815920    0.0003781508    
0.0618371810    0.0198456300    0.0003694809    
0.0620598420    0.0192455140    0.0003642267    
0.0622825030    0.0200376040    0.0003773299    
0.0625051640    0.0195201690    0.0003671956    
0.0627278250    0.0194811350    0.0003660729    
0.0629504860    0.0191724400    0.0003602086    
0.0631731470    0.0187203560    0.0003603402    
0.0633958080    0.0196240340    0.0003710582    
0.0636184690    0.0199797140    0.0003796202    
0.0638411300    0.0190282040    0.0003690798    
0.0640637910    0.0199356820    0.0003804353    
0.0642864520    0.0189748470    0.0003703511    
0.0645091130    0.0192941480    0.0003767268    
0.0647317740    0.0199928220    0.0003839099    
0.0649544350    0.0192647690    0.0003764402    
0.0651770960    0.0193607450    0.0003753182    
0.0653997570    0.0196028530    0.0003768386    
0.0656224180    0.0193171350    0.0003748957    
0.0658450790    0.0198048330    0.0003741426    
0.0660677400    0.0190827190    0.0003688214    
0.0662904010    0.0192782740    0.0003751319    
0.0665130620    0.0190969130    0.0003717436    
0.0667357230    0.0200368920    0.0003875528    
0.0669583840    0.0191509970    0.0003776208    
0.0671810450    0.0194555830    0.0003785104    
0.0674037060    0.0189780390    0.0003801695    
0.0676263670    0.0192339830    0.0003799224    
0.0678490280    0.0194738750    0.0003799464    
0.0680716890    0.0196351020    0.0003823650    
0.0682943500    0.0200959670    0.0003825895    
0.0685170110    0.0194315960    0.0003723786    
0.0687396720    0.0197685700    0.0003745956    
0.0689623330    0.0197563300    0.0003732929    
0.0691849940    0.0192372370    0.0003709083    
0.0694076550    0.0190952640    0.0003693399    
0.0696303160    0.0193847110    0.0003691824    
0.0698529770    0.0189884680    0.0003646239    
0.0700756380    0.0199915150    0.0003693277    
0.0702982990    0.0200109630    0.0003735313    
0.0705209600    0.0198261430    0.0003691181    
0.0707436210    0.0193720950    0.0003631913    
0.0709662820    0.0192510380    0.0003663709    
0.0711889430    0.0192027870    0.0003614172    
0.0714116040    0.0200940470    0.0003704641    
0.0716342650    0.0196940880    0.0003652695    
0.0718569260    0.0195424890    0.0003623954    
0.0720795870    0.0196399410    0.0003647674    
0.0723022480    0.0197949790    0.0003667624    
0.0725249090    0.0195293370    0.0003599304    
0.0727475700    0.0197699120    0.0003652338    
0.0729702310    0.0196616650    0.0003613276    
0.0731928920    0.0192702830    0.0003591429    
0.0734155530    0.0192267900    0.0003580215    
0.0736382140    0.0194941540    0.0003581887    
0.0738608750    0.0197735120    0.0003630766    
0.0740835360    0.0193238710    0.0003580337    
0.0743061970    0.0196346560    0.0003558194    
0.0745288580    0.0194218600    0.0003575248    
0.0747515190    0.0200008200    0.0003635311    
0.0749741800    0.0193079710    0.0003538728    
0.0751968410    0.0204292670    0.0003668613    
0.0754195020    0.0201450110    0.0003621657    
0.0756421630    0.0197465510    0.0003556350    
0.0758648240    0.0199831920    0.0003586196    
0.0760874850    0.0201633230    0.0003600593    
0.0763101460    0.0192454790    0.0003514313    
0.0765328070    0.0192090940    0.0003546916    
0.0767554680    0.0201251370    0.0003605868    
0.0769781290    0.0192877690    0.0003509769    
0.0772007900    0.0200480160    0.0003549573    
0.0774234510    0.0193995530    0.0003511555    
0.0776461120    0.0201811820    0.0003578201    
0.0778687730    0.0187056440    0.0003433529    
0.0780914340    0.0198816970    0.0003565113    
0.0783140950    0.0199678500    0.0003516142    
0.0785367560    0.0195557170    0.0003535770    
0.0787594170    0.0198912520    0.0003534024    
0.0789820780    0.0190664680    0.0003442251    
0.0792047390    0.0195416440    0.0003496275    
0.0794274000    0.0195877310    0.0003515227    
0.0796500610    0.0193123980    0.0003456366    
0.0798727220    0.0192335390    0.0003446118    
0.0800953830    0.0194094610    0.0003453881    
0.0803180440    0.0193193650    0.0003469860    
0.0805407050    0.0191030550    0.0003447172    
0.0807633660    0.0197754250    0.0003504057    
0.0809860270    0.0192167120    0.0003441447    
0.0812086880    0.0195522970    0.0003441367    
0.0814313490    0.0197310490    0.0003472829    
0.0816540100    0.0191971290    0.0003417721    
0.0818766710    0.0193765820    0.0003441498    
0.0820993320    0.0192755700    0.0003426261    
0.0823219930    0.0196805240    0.0003476343    
0.0825446540    0.0194863600    0.0003434020    
0.0827673150    0.0196732070    0.0003427263    
0.0829899760    0.0197936050    0.0003431615    
0.0832126370    0.0196231530    0.0003432111    
0.0834352980    0.0193084130    0.0003396864    
0.0836579590    0.0199424280    0.0003444499    
0.0838806200    0.0198638850    0.0003448467    
0.0841032810    0.0194583900    0.0003391899    
0.0843259420    0.0195091390    0.0003385861    
0.0845486030    0.0190155620    0.0003342758    
0.0847712640    0.0193359600    0.0003350259    
0.0849939250    0.0190538570    0.0003331522    
0.0852165860    0.0198980970    0.0003408988    
0.0854392470    0.0198095260    0.0003369181    
0.0856619080    0.0199628330    0.0003407103    
0.0858845690    0.0191422950    0.0003306298    
0.0861072300    0.0192974920    0.0003342591    
0.0863298910    0.0200149750    0.0003421988    
0.0865525520    0.0195155590    0.0003349848    
0.0867752130    0.0194847670    0.0003320195    
0.0869978740    0.0199310840    0.0003366564    
0.0872205350    0.0186382290    0.0003251403    
0.0874431960    0.0195968290    0.0003333971    
0.0876658570    0.0198104770    0.0003364966    
0.0878885180    0.0195859690    0.0003351581    
0.0881111790    0.0189865620    0.0003295662    
0.0883338400    0.0193788830    0.0003280789    
0.0885565010    0.0196341460    0.0003347108    
0.0887791620    0.0188669570    0.0003238515    
0.0890018230    0.0192800710    0.0003305533    
0.0892244840    0.0190044860    0.0003287403    
0.0894471450    0.0191938700    0.0003289787    
0.0896698060    0.0197656530    0.0003325836    
0.0898924670    0.0194918170    0.0003318027    
0.0901151280    0.0191559180    0.0003253784    
0.0903377890    0.0193374040    0.0003296521    
0.0905604500    0.0200512420    0.0003341410    
0.0907831110    0.0192811900    0.0003268468    
0.0910057720    0.0199617960    0.0003340915    
0.0912284330    0.0191226410    0.0003223121    
0.0914510940    0.0192460110    0.0003269558    
0.0916737550    0.0193772090    0.0003272542    
0.0918964160    0.0192935080    0.0003279047    
0.0921190770    0.0191541520    0.0003237643    
0.0923417380    0.0191370080    0.0003237521    
0.0925643990    0.0189181030    0.0003211074    
0.0927870600    0.0190845730    0.0003238397    
0.0930097210    0.0191498140    0.0003216299    
0.0932323820    0.0193501600    0.0003256846    
