# Diamond Light Source Ltd.
# Data extracted from: /dls/b21/data/2018/cm19678-3/processed/b21-386631_00479.dat
q(1/A)          Column          Error           
0.0035000000    2.1165143000    0.0248042270    
0.0037226610    1.8795656000    0.0228824300    
0.0039453220    1.5916986000    0.0191562480    
0.0041679830    1.2871082000    0.0141466090    
0.0043906440    0.9869486700    0.0118488830    
0.0046133050    0.7793631200    0.0101079690    
0.0048359660    0.5948082100    0.0083527629    
0.0050586270    0.4593989200    0.0072151954    
0.0052812880    0.4129034500    0.0064674254    
0.0055039490    0.3845752500    0.0059348315    
0.0057266100    0.3233221400    0.0052644087    
0.0059492710    0.2658064900    0.0047732556    
0.0061719320    0.2223850400    0.0042071924    
0.0063945930    0.2010655700    0.0040489385    
0.0066172539    0.1793684900    0.0035909625    
0.0068399149    0.1672863000    0.0034132954    
0.0070625759    0.1465436000    0.0031619116    
0.0072852369    0.1261712000    0.0028900063    
0.0075078979    0.1154953500    0.0027514495    
0.0077305589    0.1048296100    0.0025713931    
0.0079532199    0.0998589030    0.0024749110    
0.0081758809    0.0909780340    0.0023842723    
0.0083985419    0.0837094760    0.0021331150    
0.0086212029    0.0750124000    0.0020192659    
0.0088438639    0.0696402180    0.0019299881    
0.0090665249    0.0660605840    0.0018155090    
0.0092891859    0.0634344290    0.0018569047    
0.0095118469    0.0627367910    0.0017758857    
0.0097345079    0.0581814960    0.0016609731    
0.0099571689    0.0523500980    0.0015430494    
0.0101798300    0.0535781290    0.0015610431    
0.0104024910    0.0493762510    0.0014935097    
0.0106251520    0.0470286980    0.0014625229    
0.0108478130    0.0458954630    0.0014070157    
0.0110704740    0.0443380780    0.0013166500    
0.0112931350    0.0425144710    0.0012930756    
0.0115157960    0.0423310970    0.0012827605    
0.0117384570    0.0391602990    0.0012231622    
0.0119611180    0.0358502890    0.0011736858    
0.0121837790    0.0398925810    0.0012172786    
0.0124064400    0.0362949340    0.0011126926    
0.0126291010    0.0341946070    0.0010665005    
0.0128517620    0.0340312920    0.0010666073    
0.0130744230    0.0349446020    0.0010728090    
0.0132970840    0.0328099050    0.0010344416    
0.0135197450    0.0340316330    0.0010384382    
0.0137424060    0.0302560910    0.0009655107    
0.0139650670    0.0313678620    0.0009611919    
0.0141877280    0.0290808010    0.0009275335    
0.0144103890    0.0304295230    0.0009324388    
0.0146330500    0.0297340300    0.0009158692    
0.0148557110    0.0287019290    0.0008960606    
0.0150783720    0.0286697020    0.0008881561    
0.0153010330    0.0257542040    0.0008299176    
0.0155236940    0.0270608480    0.0008456515    
0.0157463550    0.0285300540    0.0008532606    
0.0159690160    0.0279087180    0.0008407156    
0.0161916770    0.0261928500    0.0008098730    
0.0164143380    0.0239982020    0.0007810749    
0.0166369990    0.0240455120    0.0007577384    
0.0168596600    0.0247262620    0.0007616197    
0.0170823210    0.0250838240    0.0007604651    
0.0173049820    0.0236205980    0.0007392273    
0.0175276430    0.0231527590    0.0007395878    
0.0177503040    0.0253527710    0.0007541994    
0.0179729650    0.0245664820    0.0007350492    
0.0181956260    0.0235066370    0.0007052344    
0.0184182870    0.0225939280    0.0006881488    
0.0186409480    0.0227747170    0.0006952694    
0.0188636090    0.0243335510    0.0007141499    
0.0190862700    0.0231710480    0.0006957928    
0.0193089310    0.0224948430    0.0006844963    
0.0195315920    0.0239451000    0.0006821994    
0.0197542530    0.0226114500    0.0006638950    
0.0199769140    0.0219097240    0.0006535123    
0.0201995750    0.0214177900    0.0006360161    
0.0204222360    0.0224979360    0.0006574523    
0.0206448970    0.0233157030    0.0006645375    
0.0208675580    0.0222381640    0.0006356356    
0.0210902190    0.0233176100    0.0006571601    
0.0213128800    0.0225088960    0.0006369025    
0.0215355410    0.0224508560    0.0006285033    
0.0217582020    0.0222573230    0.0006257886    
0.0219808630    0.0215847140    0.0006154514    
0.0222035240    0.0219190490    0.0006145796    
0.0224261850    0.0211413080    0.0005982058    
0.0226488460    0.0212918400    0.0005958237    
0.0228715070    0.0209041420    0.0005889075    
0.0230941680    0.0222313990    0.0006073155    
0.0233168290    0.0223756340    0.0006108001    
0.0235394900    0.0201721980    0.0005735462    
0.0237621510    0.0208609950    0.0005675542    
0.0239848120    0.0207854780    0.0005671814    
0.0242074730    0.0219618380    0.0005783438    
0.0244301340    0.0217066910    0.0005756305    
0.0246527950    0.0203068730    0.0005619161    
0.0248754560    0.0213507320    0.0005632282    
0.0250981170    0.0208043170    0.0005572141    
0.0253207780    0.0211677740    0.0005452787    
0.0255434390    0.0216794190    0.0005577190    
0.0257661000    0.0211700690    0.0005529111    
0.0259887610    0.0218957470    0.0005563320    
0.0262114220    0.0215010830    0.0005542326    
0.0264340830    0.0204334710    0.0005329463    
0.0266567440    0.0214585370    0.0005427760    
0.0268794050    0.0207118090    0.0005310720    
0.0271020660    0.0207065370    0.0005288547    
0.0273247270    0.0204452190    0.0005223509    
0.0275473880    0.0209488010    0.0005276927    
0.0277700490    0.0202289850    0.0005154823    
0.0279927100    0.0205229000    0.0005146834    
0.0282153710    0.0207620390    0.0005201901    
0.0284380320    0.0202643730    0.0005109387    
0.0286606930    0.0204761410    0.0005092055    
0.0288833540    0.0206684090    0.0005125624    
0.0291060150    0.0199948460    0.0005036629    
0.0293286760    0.0214522570    0.0005144263    
0.0295513370    0.0200824400    0.0004923113    
0.0297739980    0.0205517520    0.0005035138    
0.0299966590    0.0202609330    0.0004913998    
0.0302193200    0.0207208120    0.0005041873    
0.0304419810    0.0212404210    0.0005114092    
0.0306646420    0.0201397520    0.0004839274    
0.0308873030    0.0210843410    0.0004930071    
0.0311099640    0.0210433360    0.0004938063    
0.0313326250    0.0202737050    0.0004793227    
0.0315552860    0.0200584010    0.0004829495    
0.0317779470    0.0208621460    0.0004929594    
0.0320006080    0.0210263000    0.0004836508    
0.0322232690    0.0206530080    0.0004813449    
0.0324459300    0.0199810850    0.0004699156    
0.0326685910    0.0208625580    0.0004793774    
0.0328912520    0.0195040610    0.0004650420    
0.0331139130    0.0201664960    0.0004667220    
0.0333365740    0.0205151090    0.0004722673    
0.0335592350    0.0200158500    0.0004619999    
0.0337818960    0.0208676710    0.0004713526    
0.0340045570    0.0206210170    0.0004678145    
0.0342272170    0.0199006000    0.0004577573    
0.0344498780    0.0208120760    0.0004699770    
0.0346725390    0.0196700710    0.0004484390    
0.0348952000    0.0198559660    0.0004485005    
0.0351178610    0.0199665790    0.0004518066    
0.0353405220    0.0201700400    0.0004520340    
0.0355631830    0.0200485610    0.0004489734    
0.0357858440    0.0198072670    0.0004462636    
0.0360085050    0.0203115230    0.0004532738    
0.0362311660    0.0201475400    0.0004460740    
0.0364538270    0.0198351450    0.0004390499    
0.0366764880    0.0202139480    0.0004429008    
0.0368991490    0.0191652740    0.0004290852    
0.0371218100    0.0196384290    0.0004331070    
0.0373444710    0.0199513490    0.0004412979    
0.0375671320    0.0197472920    0.0004383959    
0.0377897930    0.0199202190    0.0004289128    
0.0380124540    0.0193106470    0.0004249490    
0.0382351150    0.0208910490    0.0004419963    
0.0384577760    0.0196185390    0.0004241908    
0.0386804370    0.0197328680    0.0004286716    
0.0389030980    0.0196552540    0.0004245878    
0.0391257590    0.0201493060    0.0004269726    
0.0393484200    0.0203014900    0.0004271396    
0.0395710810    0.0204913930    0.0004297108    
0.0397937420    0.0195632560    0.0004198665    
0.0400164030    0.0198953610    0.0004251378    
0.0402390640    0.0198554800    0.0004190561    
0.0404617250    0.0200501730    0.0004186214    
0.0406843860    0.0193045750    0.0004067954    
0.0409070470    0.0205402870    0.0004239845    
0.0411297080    0.0191405540    0.0004053238    
0.0413523690    0.0200675990    0.0004160932    
0.0415750300    0.0195237290    0.0004139022    
0.0417976910    0.0195260930    0.0004032217    
0.0420203520    0.0200757950    0.0004103944    
0.0422430130    0.0196955510    0.0004080282    
0.0424656740    0.0201825630    0.0004076662    
0.0426883350    0.0200840110    0.0004086880    
0.0429109960    0.0198833400    0.0004079117    
0.0431336570    0.0194246200    0.0003974984    
0.0433563180    0.0193143390    0.0003997877    
0.0435789790    0.0205321400    0.0004057228    
0.0438016400    0.0204319550    0.0004069336    
0.0440243010    0.0202894450    0.0004013975    
0.0442469620    0.0205654710    0.0004065402    
0.0444696230    0.0195644880    0.0003951011    
0.0446922840    0.0194325990    0.0003925978    
0.0449149450    0.0202754060    0.0003956601    
0.0451376060    0.0197427170    0.0003952498    
0.0453602670    0.0201677200    0.0003952935    
0.0455829280    0.0204689540    0.0003977743    
0.0458055890    0.0195587780    0.0003910973    
0.0460282500    0.0192807410    0.0003836251    
0.0462509110    0.0195542510    0.0003839337    
0.0464735720    0.0195159640    0.0003837742    
0.0466962330    0.0194653360    0.0003850184    
0.0469188940    0.0197716130    0.0003869356    
0.0471415550    0.0196998120    0.0003882160    
0.0473642160    0.0197916420    0.0003836714    
0.0475868770    0.0195365740    0.0003792973    
0.0478095380    0.0198769410    0.0003809129    
0.0480321990    0.0194362570    0.0003774920    
0.0482548600    0.0198196250    0.0003795359    
0.0484775210    0.0192662970    0.0003779159    
0.0487001820    0.0196564400    0.0003761352    
0.0489228430    0.0197287880    0.0003766243    
0.0491455040    0.0190881130    0.0003678963    
0.0493681650    0.0198359480    0.0003782567    
0.0495908260    0.0193483870    0.0003672935    
0.0498134870    0.0193845410    0.0003711362    
0.0500361480    0.0195082850    0.0003713339    
0.0502588090    0.0196207130    0.0003668224    
0.0504814700    0.0195458340    0.0003709080    
0.0507041310    0.0196473340    0.0003674486    
0.0509267920    0.0188193740    0.0003611106    
0.0511494530    0.0194238580    0.0003644180    
0.0513721140    0.0204006540    0.0003767577    
0.0515947750    0.0192535500    0.0003611593    
0.0518174360    0.0194506630    0.0003608167    
0.0520400970    0.0191950680    0.0003559528    
0.0522627580    0.0200665030    0.0003670361    
0.0524854190    0.0199097000    0.0003685718    
0.0527080800    0.0197410860    0.0003698493    
0.0529307410    0.0197940590    0.0003720845    
0.0531534020    0.0190391650    0.0003635919    
0.0533760630    0.0194589950    0.0003687294    
0.0535987240    0.0195061440    0.0003674523    
0.0538213850    0.0202865870    0.0003790727    
0.0540440460    0.0193162000    0.0003681447    
0.0542667070    0.0198109890    0.0003753994    
0.0544893680    0.0198748320    0.0003762041    
0.0547120290    0.0200108320    0.0003749030    
0.0549346900    0.0196029900    0.0003712581    
0.0551573510    0.0201320150    0.0003806633    
0.0553800120    0.0196142780    0.0003725424    
0.0556026730    0.0199052580    0.0003830769    
0.0558253340    0.0197227640    0.0003845097    
0.0560479950    0.0198802060    0.0003860416    
0.0562706560    0.0193800030    0.0003848391    
0.0564933170    0.0195703160    0.0003900823    
0.0567159780    0.0200829470    0.0003904204    
0.0569386390    0.0198487900    0.0003942258    
0.0571613000    0.0193480650    0.0003808409    
0.0573839610    0.0199865140    0.0003838595    
0.0576066220    0.0197118360    0.0003822680    
0.0578292830    0.0197141580    0.0003810255    
0.0580519440    0.0193181500    0.0003786417    
0.0582746050    0.0197072230    0.0003807493    
0.0584972660    0.0190164440    0.0003725851    
0.0587199270    0.0193931180    0.0003730136    
0.0589425880    0.0185500040    0.0003626813    
0.0591652490    0.0193859840    0.0003729453    
0.0593879100    0.0197847540    0.0003739635    
0.0596105710    0.0196654450    0.0003724409    
0.0598332320    0.0197376060    0.0003763130    
0.0600558930    0.0193804730    0.0003705154    
0.0602785540    0.0193183140    0.0003695297    
0.0605012150    0.0195889330    0.0003713250    
0.0607238760    0.0194917550    0.0003677035    
0.0609465370    0.0195109710    0.0003707809    
0.0611691980    0.0204635050    0.0003803258    
0.0613918590    0.0196111390    0.0003682559    
0.0616145200    0.0194291410    0.0003692259    
0.0618371810    0.0201225780    0.0003720666    
0.0620598420    0.0196194880    0.0003677648    
0.0622825030    0.0193145590    0.0003704760    
0.0625051640    0.0202472440    0.0003739883    
0.0627278250    0.0193934360    0.0003652643    
0.0629504860    0.0197832800    0.0003659181    
0.0631731470    0.0197486470    0.0003701209    
0.0633958080    0.0195205310    0.0003700949    
0.0636184690    0.0197723000    0.0003776615    
0.0638411300    0.0197028900    0.0003755828    
0.0640637910    0.0190371500    0.0003717796    
0.0642864520    0.0190415990    0.0003710185    
0.0645091130    0.0190383920    0.0003742382    
0.0647317740    0.0195006350    0.0003791717    
0.0649544350    0.0196490190    0.0003801928    
0.0651770960    0.0201701480    0.0003831003    
0.0653997570    0.0196045990    0.0003768722    
0.0656224180    0.0200173900    0.0003816473    
0.0658450790    0.0190219680    0.0003666896    
0.0660677400    0.0203462570    0.0003808531    
0.0662904010    0.0190390830    0.0003728140    
0.0665130620    0.0200032470    0.0003804797    
0.0667357230    0.0194089540    0.0003814487    
0.0669583840    0.0194803540    0.0003808711    
0.0671810450    0.0197077130    0.0003809721    
0.0674037060    0.0201069360    0.0003913307    
0.0676263670    0.0195809330    0.0003833508    
0.0678490280    0.0195275050    0.0003804862    
0.0680716890    0.0199198240    0.0003851444    
0.0682943500    0.0195441400    0.0003773169    
0.0685170110    0.0197544800    0.0003754763    
0.0687396720    0.0199407040    0.0003762397    
0.0689623330    0.0192713670    0.0003686992    
0.0691849940    0.0202116260    0.0003802027    
0.0694076550    0.0192469970    0.0003708209    
0.0696303160    0.0198083410    0.0003732112    
0.0698529770    0.0191021960    0.0003657304    
0.0700756380    0.0197339970    0.0003669576    
0.0702982990    0.0195873880    0.0003695734    
0.0705209600    0.0191887420    0.0003631523    
0.0707436210    0.0195236350    0.0003646253    
0.0709662820    0.0187646350    0.0003617290    
0.0711889430    0.0196330780    0.0003654603    
0.0714116040    0.0199523930    0.0003691724    
0.0716342650    0.0198110230    0.0003663686    
0.0718569260    0.0200281300    0.0003668870    
0.0720795870    0.0197636460    0.0003659307    
0.0723022480    0.0199190700    0.0003679266    
0.0725249090    0.0191396580    0.0003563373    
0.0727475700    0.0196569570    0.0003642051    
0.0729702310    0.0196966200    0.0003616647    
0.0731928920    0.0192385290    0.0003588628    
0.0734155530    0.0192951760    0.0003586737    
0.0736382140    0.0199237200    0.0003621298    
0.0738608750    0.0195085810    0.0003606521    
0.0740835360    0.0191663700    0.0003565875    
0.0743061970    0.0196879940    0.0003563183    
0.0745288580    0.0197987670    0.0003609934    
0.0747515190    0.0191964180    0.0003561616    
0.0749741800    0.0187518700    0.0003487551    
0.0751968410    0.0194362150    0.0003578497    
0.0754195020    0.0196454130    0.0003576626    
0.0756421630    0.0195561430    0.0003539320    
0.0758648240    0.0197661350    0.0003566825    
0.0760874850    0.0194127850    0.0003533103    
0.0763101460    0.0200494270    0.0003587125    
0.0765328070    0.0189160600    0.0003519914    
0.0767554680    0.0195001840    0.0003549597    
0.0769781290    0.0187082480    0.0003456793    
0.0772007900    0.0194527070    0.0003496630    
0.0774234510    0.0198526220    0.0003552482    
0.0776461120    0.0199735990    0.0003559910    
0.0778687730    0.0197157900    0.0003525176    
0.0780914340    0.0195637980    0.0003536653    
0.0783140950    0.0197219430    0.0003494580    
0.0785367560    0.0193336890    0.0003515797    
0.0787594170    0.0200248900    0.0003546034    
0.0789820780    0.0192608360    0.0003459906    
0.0792047390    0.0197685960    0.0003516675    
0.0794274000    0.0199806340    0.0003550465    
0.0796500610    0.0198647130    0.0003505598    
0.0798727220    0.0193711030    0.0003458574    
0.0800953830    0.0198353100    0.0003491721    
0.0803180440    0.0192774570    0.0003466249    
0.0805407050    0.0195091230    0.0003483772    
0.0807633660    0.0196592060    0.0003493900    
0.0809860270    0.0196683740    0.0003481810    
0.0812086880    0.0194207710    0.0003429926    
0.0814313490    0.0195005120    0.0003452635    
0.0816540100    0.0191136460    0.0003410433    
0.0818766710    0.0192866120    0.0003433652    
0.0820993320    0.0191554720    0.0003415722    
0.0823219930    0.0193383740    0.0003446146    
0.0825446540    0.0196817660    0.0003451348    
0.0827673150    0.0192211510    0.0003387809    
0.0829899760    0.0198489170    0.0003436559    
0.0832126370    0.0196549170    0.0003435041    
0.0834352980    0.0195193100    0.0003415516    
0.0836579590    0.0194741590    0.0003403970    
0.0838806200    0.0196321520    0.0003428445    
0.0841032810    0.0201460470    0.0003451467    
0.0843259420    0.0199516340    0.0003424196    
0.0845486030    0.0195402900    0.0003388716    
0.0847712640    0.0191867430    0.0003337456    
0.0849939250    0.0192477990    0.0003348583    
0.0852165860    0.0196954390    0.0003391735    
0.0854392470    0.0191866360    0.0003315936    
0.0856619080    0.0191039170    0.0003333149    
0.0858845690    0.0194866730    0.0003336055    
0.0861072300    0.0199129870    0.0003395630    
0.0863298910    0.0190981280    0.0003342841    
0.0865525520    0.0197128150    0.0003366885    
0.0867752130    0.0196845360    0.0003337321    
0.0869978740    0.0195688920    0.0003335984    
0.0872205350    0.0196212340    0.0003336192    
0.0874431960    0.0195134870    0.0003327022    
0.0876658570    0.0198465390    0.0003368177    
0.0878885180    0.0190313420    0.0003303933    
0.0881111790    0.0194001700    0.0003331514    
0.0883338400    0.0192584040    0.0003270720    
0.0885565010    0.0190766620    0.0003299394    
0.0887791620    0.0193634240    0.0003280994    
0.0890018230    0.0191514290    0.0003294633    
0.0892244840    0.0197056880    0.0003347650    
0.0894471450    0.0192294150    0.0003292978    
0.0896698060    0.0192021510    0.0003278231    
0.0898924670    0.0196008780    0.0003327444    
0.0901151280    0.0199314460    0.0003319143    
0.0903377890    0.0187939670    0.0003250015    
0.0905604500    0.0198024340    0.0003320762    
0.0907831110    0.0194713040    0.0003284688    
0.0910057720    0.0194714740    0.0003299776    
0.0912284330    0.0195426900    0.0003258473    
0.0914510940    0.0191699570    0.0003263237    
0.0916737550    0.0189422730    0.0003235751    
0.0918964160    0.0195070170    0.0003297288    
0.0921190770    0.0192160620    0.0003243015    
0.0923417380    0.0195221440    0.0003270082    
0.0925643990    0.0193340500    0.0003246327    
0.0927870600    0.0196193470    0.0003283601    
0.0930097210    0.0191191050    0.0003213862    
0.0932323820    0.0192093480    0.0003245119    
