# Diamond Light Source Ltd.
# Data extracted from: /dls/b21/data/2018/cm19678-3/processed/b21-386631_00482.dat
q(1/A)          Column          Error           
0.0035000000    2.1009073000    0.0247114260    
0.0037226610    1.8490242000    0.0226946760    
0.0039453220    1.6201319000    0.0193256680    
0.0041679830    1.2659969000    0.0140294430    
0.0043906440    0.9865700400    0.0118460450    
0.0046133050    0.7916105800    0.0101865960    
0.0048359660    0.5874798100    0.0083007519    
0.0050586270    0.4643407000    0.0072535527    
0.0052812880    0.4334262300    0.0066258874    
0.0055039490    0.3755638600    0.0058646069    
0.0057266100    0.3142919400    0.0051901246    
0.0059492710    0.2634670100    0.0047519768    
0.0061719320    0.2154398300    0.0041407772    
0.0063945930    0.2015355600    0.0040534745    
0.0066172539    0.1774823900    0.0035718623    
0.0068399149    0.1600279900    0.0033382661    
0.0070625759    0.1423684000    0.0031163941    
0.0072852369    0.1262253600    0.0028904886    
0.0075078979    0.1211209100    0.0028175274    
0.0077305589    0.0978820940    0.0024846052    
0.0079532199    0.1005240300    0.0024830212    
0.0081758809    0.0937809080    0.0024206059    
0.0083985419    0.0838101940    0.0021342960    
0.0086212029    0.0748965410    0.0020176097    
0.0088438639    0.0710775890    0.0019497108    
0.0090665249    0.0655553830    0.0018084674    
0.0092891859    0.0626674540    0.0018455567    
0.0095118469    0.0638366380    0.0017912993    
0.0097345079    0.0569906170    0.0016438081    
0.0099571689    0.0539823100    0.0015668453    
0.0101798300    0.0507533860    0.0015192629    
0.0104024910    0.0502297840    0.0015062911    
0.0106251520    0.0454779610    0.0014381394    
0.0108478130    0.0460636080    0.0014095235    
0.0110704740    0.0442947530    0.0013159438    
0.0112931350    0.0432575920    0.0013042655    
0.0115157960    0.0411221570    0.0012642503    
0.0117384570    0.0392711680    0.0012248341    
0.0119611180    0.0396889780    0.0012348658    
0.0121837790    0.0366575620    0.0011668231    
0.0124064400    0.0360186040    0.0011083959    
0.0126291010    0.0352889270    0.0010833799    
0.0128517620    0.0344960150    0.0010738140    
0.0130744230    0.0328335960    0.0010398504    
0.0132970840    0.0315349420    0.0010140954    
0.0135197450    0.0331412400    0.0010247146    
0.0137424060    0.0303148200    0.0009664012    
0.0139650670    0.0303046490    0.0009447166    
0.0141877280    0.0303795860    0.0009479745    
0.0144103890    0.0302837720    0.0009301587    
0.0146330500    0.0300696890    0.0009209803    
0.0148557110    0.0279159770    0.0008836648    
0.0150783720    0.0289695930    0.0008927466    
0.0153010330    0.0284793460    0.0008726804    
0.0155236940    0.0270054180    0.0008447447    
0.0157463550    0.0282211360    0.0008485881    
0.0159690160    0.0256776220    0.0008063727    
0.0161916770    0.0263155440    0.0008117289    
0.0164143380    0.0247076560    0.0007924984    
0.0166369990    0.0246162440    0.0007666417    
0.0168596600    0.0243016740    0.0007550163    
0.0170823210    0.0256116450    0.0007683878    
0.0173049820    0.0245667790    0.0007538518    
0.0175276430    0.0238828640    0.0007511226    
0.0177503040    0.0244978620    0.0007413390    
0.0179729650    0.0243882090    0.0007323423    
0.0181956260    0.0225100590    0.0006900902    
0.0184182870    0.0231576150    0.0006966469    
0.0186409480    0.0249373150    0.0007274963    
0.0188636090    0.0243102730    0.0007137742    
0.0190862700    0.0233986460    0.0006991683    
0.0193089310    0.0221594720    0.0006793422    
0.0195315920    0.0213969490    0.0006448492    
0.0197542530    0.0223559140    0.0006601015    
0.0199769140    0.0223364310    0.0006598139    
0.0201995750    0.0238141590    0.0006706219    
0.0204222360    0.0231873770    0.0006674181    
0.0206448970    0.0220824670    0.0006466932    
0.0208675580    0.0224177100    0.0006381660    
0.0210902190    0.0218523870    0.0006361476    
0.0213128800    0.0232816010    0.0006477114    
0.0215355410    0.0225718660    0.0006301648    
0.0217582020    0.0216922220    0.0006177639    
0.0219808630    0.0219686860    0.0006208718    
0.0222035240    0.0221754130    0.0006181337    
0.0224261850    0.0219516900    0.0006095340    
0.0226488460    0.0217732900    0.0006024936    
0.0228715070    0.0217647770    0.0006008794    
0.0230941680    0.0215325390    0.0005976651    
0.0233168290    0.0225902320    0.0006136928    
0.0235394900    0.0200724390    0.0005720989    
0.0237621510    0.0217236270    0.0005791423    
0.0239848120    0.0218203490    0.0005811017    
0.0242074730    0.0213201390    0.0005698047    
0.0244301340    0.0219030450    0.0005782006    
0.0246527950    0.0215331820    0.0005786065    
0.0248754560    0.0201750370    0.0005474752    
0.0250981170    0.0206680270    0.0005553594    
0.0253207780    0.0206882260    0.0005390411    
0.0255434390    0.0212469600    0.0005521019    
0.0257661000    0.0212258070    0.0005536121    
0.0259887610    0.0209608110    0.0005442990    
0.0262114220    0.0215418870    0.0005547318    
0.0264340830    0.0208623910    0.0005384851    
0.0266567440    0.0207838300    0.0005341493    
0.0268794050    0.0216084850    0.0005424202    
0.0271020660    0.0206505380    0.0005281139    
0.0273247270    0.0201096640    0.0005180220    
0.0275473880    0.0201360440    0.0005173302    
0.0277700490    0.0207655680    0.0005222493    
0.0279927100    0.0205854740    0.0005154429    
0.0282153710    0.0206688340    0.0005189964    
0.0284380320    0.0210353240    0.0005205424    
0.0286606930    0.0205374970    0.0005099435    
0.0288833540    0.0217976260    0.0005263530    
0.0291060150    0.0205003740    0.0005099658    
0.0293286760    0.0215858930    0.0005160015    
0.0295513370    0.0206477030    0.0004991680    
0.0297739980    0.0204017740    0.0005016493    
0.0299966590    0.0201755810    0.0004903403    
0.0302193200    0.0198233490    0.0004931243    
0.0304419810    0.0211152730    0.0005098761    
0.0306646420    0.0196611270    0.0004781197    
0.0308873030    0.0196760720    0.0004762354    
0.0311099640    0.0209370490    0.0004925342    
0.0313326250    0.0201018010    0.0004772634    
0.0315552860    0.0200448600    0.0004827635    
0.0317779470    0.0204757980    0.0004883502    
0.0320006080    0.0201343770    0.0004732590    
0.0322232690    0.0209987740    0.0004853343    
0.0324459300    0.0204432980    0.0004752970    
0.0326685910    0.0201776990    0.0004714210    
0.0328912520    0.0197793780    0.0004682904    
0.0331139130    0.0207478010    0.0004733784    
0.0333365740    0.0202957370    0.0004697131    
0.0335592350    0.0206217160    0.0004689176    
0.0337818960    0.0192262340    0.0004524133    
0.0340045570    0.0195047930    0.0004549552    
0.0342272170    0.0202145540    0.0004613320    
0.0344498780    0.0207358060    0.0004690927    
0.0346725390    0.0203224380    0.0004557930    
0.0348952000    0.0199148500    0.0004491437    
0.0351178610    0.0198113350    0.0004500252    
0.0353405220    0.0206340790    0.0004571825    
0.0355631830    0.0199863280    0.0004482547    
0.0357858440    0.0204186410    0.0004530768    
0.0360085050    0.0201882140    0.0004518743    
0.0362311660    0.0189210800    0.0004322631    
0.0364538270    0.0195806000    0.0004362028    
0.0366764880    0.0200664700    0.0004412612    
0.0368991490    0.0200087510    0.0004384048    
0.0371218100    0.0206871490    0.0004444997    
0.0373444710    0.0194614460    0.0004358254    
0.0375671320    0.0199886980    0.0004410464    
0.0377897930    0.0203338610    0.0004333224    
0.0380124540    0.0195051660    0.0004270635    
0.0382351150    0.0205056850    0.0004378798    
0.0384577760    0.0204879080    0.0004334670    
0.0386804370    0.0196192490    0.0004274153    
0.0389030980    0.0196900620    0.0004249434    
0.0391257590    0.0192246030    0.0004170402    
0.0393484200    0.0196795140    0.0004205255    
0.0395710810    0.0194172110    0.0004182763    
0.0397937420    0.0198136790    0.0004225251    
0.0400164030    0.0196391180    0.0004223710    
0.0402390640    0.0197120900    0.0004175204    
0.0404617250    0.0207211970    0.0004255485    
0.0406843860    0.0196027320    0.0004099053    
0.0409070470    0.0196544880    0.0004147218    
0.0411297080    0.0196708360    0.0004108805    
0.0413523690    0.0204280060    0.0004197929    
0.0415750300    0.0200219770    0.0004191304    
0.0417976910    0.0196907480    0.0004048989    
0.0420203520    0.0185639350    0.0003946202    
0.0422430130    0.0195330800    0.0004063224    
0.0424656740    0.0191679000    0.0003972675    
0.0426883350    0.0206475540    0.0004143623    
0.0429109960    0.0193291810    0.0004021680    
0.0431336570    0.0200083780    0.0004034078    
0.0433563180    0.0201895850    0.0004087262    
0.0435789790    0.0203057200    0.0004034603    
0.0438016400    0.0199518740    0.0004021052    
0.0440243010    0.0198746140    0.0003972540    
0.0442469620    0.0202661860    0.0004035520    
0.0444696230    0.0199854680    0.0003993102    
0.0446922840    0.0197559130    0.0003958314    
0.0449149450    0.0200804650    0.0003937346    
0.0451376060    0.0190683010    0.0003884217    
0.0453602670    0.0197706920    0.0003913646    
0.0455829280    0.0193771800    0.0003870022    
0.0458055890    0.0191659300    0.0003871313    
0.0460282500    0.0205076840    0.0003956241    
0.0462509110    0.0203664410    0.0003918073    
0.0464735720    0.0197706680    0.0003862520    
0.0466962330    0.0196995380    0.0003873092    
0.0469188940    0.0206707600    0.0003956172    
0.0471415550    0.0199121240    0.0003902838    
0.0473642160    0.0203624000    0.0003891457    
0.0475868770    0.0205876560    0.0003893483    
0.0478095380    0.0204589610    0.0003864311    
0.0480321990    0.0198009520    0.0003809990    
0.0482548600    0.0203627770    0.0003846830    
0.0484775210    0.0189457320    0.0003747408    
0.0487001820    0.0198704700    0.0003781594    
0.0489228430    0.0188354570    0.0003679811    
0.0491455040    0.0193769820    0.0003706520    
0.0493681650    0.0204110470    0.0003836826    
0.0495908260    0.0198415340    0.0003719271    
0.0498134870    0.0203063540    0.0003798401    
0.0500361480    0.0193368030    0.0003696806    
0.0502588090    0.0198862770    0.0003692789    
0.0504814700    0.0192131930    0.0003677208    
0.0507041310    0.0194668030    0.0003657391    
0.0509267920    0.0194134220    0.0003667482    
0.0511494530    0.0203654180    0.0003731282    
0.0513721140    0.0194316470    0.0003676835    
0.0515947750    0.0199087910    0.0003672359    
0.0518174360    0.0193751890    0.0003600988    
0.0520400970    0.0191734370    0.0003557353    
0.0522627580    0.0203129620    0.0003692656    
0.0524854190    0.0195393910    0.0003651107    
0.0527080800    0.0196075620    0.0003685788    
0.0529307410    0.0193375800    0.0003677516    
0.0531534020    0.0200440640    0.0003730460    
0.0533760630    0.0194501520    0.0003686281    
0.0535987240    0.0198226630    0.0003704039    
0.0538213850    0.0201005040    0.0003773121    
0.0540440460    0.0196581290    0.0003713711    
0.0542667070    0.0194676850    0.0003721148    
0.0544893680    0.0203143980    0.0003803234    
0.0547120290    0.0191942390    0.0003671564    
0.0549346900    0.0196784560    0.0003719543    
0.0551573510    0.0196622870    0.0003761783    
0.0553800120    0.0199803170    0.0003759846    
0.0556026730    0.0195716370    0.0003798349    
0.0558253340    0.0198558030    0.0003857860    
0.0560479950    0.0197883620    0.0003851305    
0.0562706560    0.0195233370    0.0003862412    
0.0564933170    0.0196461940    0.0003908191    
0.0567159780    0.0193980030    0.0003836866    
0.0569386390    0.0189073990    0.0003847452    
0.0571613000    0.0194886360    0.0003822036    
0.0573839610    0.0201099260    0.0003850244    
0.0576066220    0.0197099560    0.0003822315    
0.0578292830    0.0194324620    0.0003782754    
0.0580519440    0.0192495210    0.0003779505    
0.0582746050    0.0196832770    0.0003804997    
0.0584972660    0.0197810550    0.0003799835    
0.0587199270    0.0191975710    0.0003711105    
0.0589425880    0.0194557940    0.0003714128    
0.0591652490    0.0197715310    0.0003766177    
0.0593879100    0.0195142890    0.0003713809    
0.0596105710    0.0192827110    0.0003687813    
0.0598332320    0.0199868140    0.0003786631    
0.0600558930    0.0194069550    0.0003707508    
0.0602785540    0.0191821820    0.0003682079    
0.0605012150    0.0197137510    0.0003724884    
0.0607238760    0.0191985880    0.0003649104    
0.0609465370    0.0198120680    0.0003736131    
0.0611691980    0.0198890540    0.0003749316    
0.0613918590    0.0197475570    0.0003695169    
0.0616145200    0.0188870560    0.0003640212    
0.0618371810    0.0191094670    0.0003625621    
0.0620598420    0.0200656650    0.0003719054    
0.0622825030    0.0196040420    0.0003732242    
0.0625051640    0.0193266410    0.0003653697    
0.0627278250    0.0191852190    0.0003632809    
0.0629504860    0.0203227930    0.0003708564    
0.0631731470    0.0195803000    0.0003685224    
0.0633958080    0.0194064120    0.0003689939    
0.0636184690    0.0192583020    0.0003727026    
0.0638411300    0.0200088390    0.0003784696    
0.0640637910    0.0195653040    0.0003768836    
0.0642864520    0.0197554010    0.0003778905    
0.0645091130    0.0191616230    0.0003754295    
0.0647317740    0.0193292210    0.0003774835    
0.0649544350    0.0191616670    0.0003754304    
0.0651770960    0.0199426780    0.0003809158    
0.0653997570    0.0203488790    0.0003839411    
0.0656224180    0.0200227570    0.0003816802    
0.0658450790    0.0196350750    0.0003725344    
0.0660677400    0.0197954330    0.0003756445    
0.0662904010    0.0193146500    0.0003754844    
0.0665130620    0.0189231190    0.0003700470    
0.0667357230    0.0194670710    0.0003820011    
0.0669583840    0.0195157260    0.0003811985    
0.0671810450    0.0189399860    0.0003734601    
0.0674037060    0.0189626880    0.0003800145    
0.0676263670    0.0191888340    0.0003794751    
0.0678490280    0.0193180810    0.0003784224    
0.0680716890    0.0188829370    0.0003749686    
0.0682943500    0.0196296810    0.0003781237    
0.0685170110    0.0197026430    0.0003749655    
0.0687396720    0.0198536230    0.0003753994    
0.0689623330    0.0194317540    0.0003702126    
0.0691849940    0.0197091040    0.0003754285    
0.0694076550    0.0192951670    0.0003712669    
0.0696303160    0.0193213090    0.0003685770    
0.0698529770    0.0194574560    0.0003690981    
0.0700756380    0.0192886200    0.0003627758    
0.0702982990    0.0197249670    0.0003708513    
0.0705209600    0.0193930750    0.0003650633    
0.0707436210    0.0193651630    0.0003631252    
0.0709662820    0.0191742190    0.0003656380    
0.0711889430    0.0198420730    0.0003673828    
0.0714116040    0.0195065390    0.0003650069    
0.0716342650    0.0191858630    0.0003605244    
0.0718569260    0.0193407590    0.0003605190    
0.0720795870    0.0191520390    0.0003602070    
0.0723022480    0.0192852020    0.0003620079    
0.0725249090    0.0195756480    0.0003603558    
0.0727475700    0.0192772290    0.0003606530    
0.0729702310    0.0197279420    0.0003619349    
0.0731928920    0.0195378950    0.0003616269    
0.0734155530    0.0198600020    0.0003638681    
0.0736382140    0.0192307750    0.0003557596    
0.0738608750    0.0198133870    0.0003634413    
0.0740835360    0.0196222620    0.0003607863    
0.0743061970    0.0197054610    0.0003564593    
0.0745288580    0.0194349000    0.0003576437    
0.0747515190    0.0189765420    0.0003540991    
0.0749741800    0.0199434450    0.0003596480    
0.0751968410    0.0197242300    0.0003604742    
0.0754195020    0.0194937880    0.0003562627    
0.0756421630    0.0194582030    0.0003530278    
0.0758648240    0.0190241360    0.0003499071    
0.0760874850    0.0198738640    0.0003574644    
0.0763101460    0.0187576460    0.0003469476    
0.0765328070    0.0195560830    0.0003578796    
0.0767554680    0.0192722000    0.0003528618    
0.0769781290    0.0194856330    0.0003527714    
0.0772007900    0.0204061110    0.0003581122    
0.0774234510    0.0197045330    0.0003539039    
0.0776461120    0.0197686780    0.0003541432    
0.0778687730    0.0196950020    0.0003523149    
0.0780914340    0.0199391060    0.0003570245    
0.0783140950    0.0195590820    0.0003479955    
0.0785367560    0.0199199830    0.0003568537    
0.0787594170    0.0193511520    0.0003485704    
0.0789820780    0.0192838580    0.0003461808    
0.0792047390    0.0192412660    0.0003469289    
0.0794274000    0.0195245230    0.0003509539    
0.0796500610    0.0199556060    0.0003513442    
0.0798727220    0.0195606640    0.0003475290    
0.0800953830    0.0196736190    0.0003477294    
0.0803180440    0.0198115710    0.0003513773    
0.0805407050    0.0194326170    0.0003476769    
0.0807633660    0.0194276020    0.0003473093    
0.0809860270    0.0194199730    0.0003459588    
0.0812086880    0.0189828100    0.0003390869    
0.0814313490    0.0194069650    0.0003444179    
0.0816540100    0.0197993850    0.0003470907    
0.0818766710    0.0195781700    0.0003459343    
0.0820993320    0.0197687540    0.0003469805    
0.0823219930    0.0195023230    0.0003460558    
0.0825446540    0.0190081580    0.0003391611    
0.0827673150    0.0201626700    0.0003469625    
0.0829899760    0.0193234810    0.0003390606    
0.0832126370    0.0193469010    0.0003407856    
0.0834352980    0.0200313800    0.0003459863    
0.0836579590    0.0198471120    0.0003436246    
0.0838806200    0.0195704120    0.0003422887    
0.0841032810    0.0193163650    0.0003379488    
0.0843259420    0.0191035570    0.0003350470    
0.0845486030    0.0190330710    0.0003344286    
0.0847712640    0.0202065600    0.0003424841    
0.0849939250    0.0195488650    0.0003374509    
0.0852165860    0.0184846140    0.0003285667    
0.0854392470    0.0193509820    0.0003329948    
0.0856619080    0.0196661450    0.0003381679    
0.0858845690    0.0191307520    0.0003305290    
0.0861072300    0.0199400370    0.0003397773    
0.0863298910    0.0194473410    0.0003373104    
0.0865525520    0.0201249330    0.0003401734    
0.0867752130    0.0195695060    0.0003327397    
0.0869978740    0.0187083740    0.0003261655    
0.0872205350    0.0192393400    0.0003303408    
0.0874431960    0.0193528100    0.0003313138    
0.0876658570    0.0196503140    0.0003351325    
0.0878885180    0.0197636370    0.0003366737    
0.0881111790    0.0192495860    0.0003318401    
0.0883338400    0.0197009060    0.0003307925    
0.0885565010    0.0195769620    0.0003342219    
0.0887791620    0.0192837530    0.0003274081    
0.0890018230    0.0188775750    0.0003270837    
0.0892244840    0.0190782910    0.0003293769    
0.0894471450    0.0200113440    0.0003359103    
0.0896698060    0.0196088360    0.0003312606    
0.0898924670    0.0200678030    0.0003366683    
0.0901151280    0.0199461250    0.0003320206    
0.0903377890    0.0199779240    0.0003350662    
0.0905604500    0.0189207690    0.0003245840    
0.0907831110    0.0199016080    0.0003320626    
0.0910057720    0.0193521950    0.0003289496    
0.0912284330    0.0192637660    0.0003234982    
0.0914510940    0.0195180530    0.0003292575    
0.0916737550    0.0195871060    0.0003290208    
0.0918964160    0.0196890620    0.0003312480    
0.0921190770    0.0197997950    0.0003291747    
0.0923417380    0.0183098490    0.0003166770    
0.0925643990    0.0190869420    0.0003225361    
0.0927870600    0.0195020790    0.0003273617    
0.0930097210    0.0193981790    0.0003237079    
0.0932323820    0.0191252920    0.0003237856    
