# Diamond Light Source Ltd.
# Data extracted from: /dls/b21/data/2018/cm19678-3/processed/b21-386631_00491.dat
q(1/A)          Column          Error           
0.0035000000    2.0970935000    0.0246836480    
0.0037226610    1.8446051000    0.0226626380    
0.0039453220    1.6046841000    0.0192291540    
0.0041679830    1.2606320000    0.0139966580    
0.0043906440    0.9774706100    0.0117887390    
0.0046133050    0.7975575400    0.0102225770    
0.0048359660    0.6022317500    0.0084025066    
0.0050586270    0.4498691400    0.0071380828    
0.0052812880    0.4241265200    0.0065530013    
0.0055039490    0.3835484300    0.0059253390    
0.0057266100    0.3150984100    0.0051956556    
0.0059492710    0.2609542900    0.0047282398    
0.0061719320    0.2198015700    0.0041815794    
0.0063945930    0.1960699300    0.0039972673    
0.0066172539    0.1749626300    0.0035456496    
0.0068399149    0.1658754600    0.0033979746    
0.0070625759    0.1369882300    0.0030562810    
0.0072852369    0.1243844000    0.0028687123    
0.0075078979    0.1195617300    0.0027987285    
0.0077305589    0.1021896000    0.0025381378    
0.0079532199    0.0972313480    0.0024414887    
0.0081758809    0.0890564600    0.0023583359    
0.0083985419    0.0827960470    0.0021208850    
0.0086212029    0.0740492320    0.0020057308    
0.0088438639    0.0719556550    0.0019612927    
0.0090665249    0.0644798000    0.0017931822    
0.0092891859    0.0633466220    0.0018551293    
0.0095118469    0.0582822680    0.0017112263    
0.0097345079    0.0579612190    0.0016573884    
0.0099571689    0.0554590900    0.0015877891    
0.0101798300    0.0490494830    0.0014932197    
0.0104024910    0.0484020180    0.0014783119    
0.0106251520    0.0464583780    0.0014532442    
0.0108478130    0.0434138530    0.0013680866    
0.0110704740    0.0435331130    0.0013042989    
0.0112931350    0.0436319670    0.0013096140    
0.0115157960    0.0416094380    0.0012714436    
0.0117384570    0.0406288470    0.0012455572    
0.0119611180    0.0386348950    0.0012180938    
0.0121837790    0.0359363490    0.0011550380    
0.0124064400    0.0354575280    0.0010994913    
0.0126291010    0.0347084910    0.0010742008    
0.0128517620    0.0330777980    0.0010512814    
0.0130744230    0.0330169070    0.0010425237    
0.0132970840    0.0303478140    0.0009946094    
0.0135197450    0.0315434050    0.0009994910    
0.0137424060    0.0324881160    0.0010002264    
0.0139650670    0.0304681720    0.0009470572    
0.0141877280    0.0293315660    0.0009312781    
0.0144103890    0.0284144560    0.0009007988    
0.0146330500    0.0295209670    0.0009123411    
0.0148557110    0.0272608290    0.0008730453    
0.0150783720    0.0286820710    0.0008881132    
0.0153010330    0.0260613670    0.0008346317    
0.0155236940    0.0256466950    0.0008230416    
0.0157463550    0.0283364600    0.0008501363    
0.0159690160    0.0271346240    0.0008287555    
0.0161916770    0.0267796930    0.0008186791    
0.0164143380    0.0258657590    0.0008106835    
0.0166369990    0.0254170360    0.0007788433    
0.0168596600    0.0264951900    0.0007881844    
0.0170823210    0.0254623140    0.0007659788    
0.0173049820    0.0254116910    0.0007665398    
0.0175276430    0.0242031160    0.0007559783    
0.0177503040    0.0245096930    0.0007413577    
0.0179729650    0.0246194620    0.0007356471    
0.0181956260    0.0248476340    0.0007248800    
0.0184182870    0.0237341470    0.0007051129    
0.0186409480    0.0239931130    0.0007134365    
0.0188636090    0.0237760590    0.0007057355    
0.0190862700    0.0240150060    0.0007081639    
0.0193089310    0.0235863020    0.0007007206    
0.0195315920    0.0235828000    0.0006768400    
0.0197542530    0.0238463870    0.0006816036    
0.0199769140    0.0228722780    0.0006675370    
0.0201995750    0.0236339690    0.0006679355    
0.0204222360    0.0244447110    0.0006851264    
0.0206448970    0.0226597620    0.0006549502    
0.0208675580    0.0239333590    0.0006592437    
0.0210902190    0.0224908210    0.0006452339    
0.0213128800    0.0226411130    0.0006386018    
0.0215355410    0.0218938590    0.0006204941    
0.0217582020    0.0207859850    0.0006045913    
0.0219808630    0.0222573540    0.0006248025    
0.0222035240    0.0204263150    0.0005931270    
0.0224261850    0.0213500800    0.0006009936    
0.0226488460    0.0222138170    0.0006084265    
0.0228715070    0.0208102010    0.0005874277    
0.0230941680    0.0217222100    0.0006001618    
0.0233168290    0.0205140600    0.0005846859    
0.0235394900    0.0214328540    0.0005910404    
0.0237621510    0.0216988010    0.0005786861    
0.0239848120    0.0217799760    0.0005804383    
0.0242074730    0.0210064780    0.0005654754    
0.0244301340    0.0211459880    0.0005679974    
0.0246527950    0.0216015740    0.0005793993    
0.0248754560    0.0209236630    0.0005574196    
0.0250981170    0.0204950110    0.0005529104    
0.0253207780    0.0209319810    0.0005420901    
0.0255434390    0.0214528750    0.0005546509    
0.0257661000    0.0202351790    0.0005404220    
0.0259887610    0.0209517470    0.0005440636    
0.0262114220    0.0208043490    0.0005450350    
0.0264340830    0.0205199380    0.0005339318    
0.0266567440    0.0201436390    0.0005257447    
0.0268794050    0.0206600480    0.0005302680    
0.0271020660    0.0211546110    0.0005344050    
0.0273247270    0.0206478430    0.0005247944    
0.0275473880    0.0198882000    0.0005140254    
0.0277700490    0.0208222320    0.0005228483    
0.0279927100    0.0203830620    0.0005127916    
0.0282153710    0.0201648920    0.0005125195    
0.0284380320    0.0205884500    0.0005148722    
0.0286606930    0.0209969020    0.0005155040    
0.0288833540    0.0202763660    0.0005075440    
0.0291060150    0.0205549110    0.0005105333    
0.0293286760    0.0205285550    0.0005030965    
0.0295513370    0.0203130890    0.0004949997    
0.0297739980    0.0210587440    0.0005095520    
0.0299966590    0.0201192090    0.0004895489    
0.0302193200    0.0206608290    0.0005033242    
0.0304419810    0.0207492460    0.0005053282    
0.0306646420    0.0212448250    0.0004968955    
0.0308873030    0.0194947390    0.0004739333    
0.0311099640    0.0208121790    0.0004909571    
0.0313326250    0.0197986210    0.0004735482    
0.0315552860    0.0195364500    0.0004764988    
0.0317779470    0.0204553020    0.0004880002    
0.0320006080    0.0198588110    0.0004699076    
0.0322232690    0.0199469360    0.0004729206    
0.0324459300    0.0203902750    0.0004745776    
0.0326685910    0.0201469550    0.0004709598    
0.0328912520    0.0191502170    0.0004606826    
0.0331139130    0.0209439510    0.0004755079    
0.0333365740    0.0197979870    0.0004638172    
0.0335592350    0.0201971320    0.0004639649    
0.0337818960    0.0193668970    0.0004539671    
0.0340045570    0.0200691570    0.0004613904    
0.0342272170    0.0204478610    0.0004638862    
0.0344498780    0.0200055370    0.0004606588    
0.0346725390    0.0198640520    0.0004505259    
0.0348952000    0.0215161530    0.0004667509    
0.0351178610    0.0196801510    0.0004484358    
0.0353405220    0.0197240080    0.0004468901    
0.0355631830    0.0201284220    0.0004497480    
0.0357858440    0.0200781900    0.0004491866    
0.0360085050    0.0197245360    0.0004465583    
0.0362311660    0.0200579390    0.0004449636    
0.0364538270    0.0197663970    0.0004381727    
0.0366764880    0.0203390680    0.0004441522    
0.0368991490    0.0197120510    0.0004350482    
0.0371218100    0.0196376110    0.0004329837    
0.0373444710    0.0199017970    0.0004406332    
0.0375671320    0.0190462250    0.0004304300    
0.0377897930    0.0193928100    0.0004230851    
0.0380124540    0.0200014410    0.0004323688    
0.0382351150    0.0193472010    0.0004252389    
0.0384577760    0.0197181890    0.0004251545    
0.0386804370    0.0201505960    0.0004330708    
0.0389030980    0.0207724210    0.0004363723    
0.0391257590    0.0200753710    0.0004260760    
0.0393484200    0.0207129380    0.0004313324    
0.0395710810    0.0197600650    0.0004218617    
0.0397937420    0.0199942460    0.0004243542    
0.0400164030    0.0202026560    0.0004282954    
0.0402390640    0.0196593680    0.0004168715    
0.0404617250    0.0201793620    0.0004198570    
0.0406843860    0.0203824800    0.0004178879    
0.0409070470    0.0199783790    0.0004180346    
0.0411297080    0.0201856300    0.0004161322    
0.0413523690    0.0198241880    0.0004134528    
0.0415750300    0.0204518240    0.0004235140    
0.0417976910    0.0202564720    0.0004105854    
0.0420203520    0.0199897350    0.0004094057    
0.0422430130    0.0193556630    0.0004043854    
0.0424656740    0.0192254530    0.0003977774    
0.0426883350    0.0198489880    0.0004061825    
0.0429109960    0.0200484900    0.0004094941    
0.0431336570    0.0203249250    0.0004064985    
0.0433563180    0.0198913750    0.0004056087    
0.0435789790    0.0198241720    0.0003985614    
0.0438016400    0.0196192290    0.0003986529    
0.0440243010    0.0193739330    0.0003921335    
0.0442469620    0.0198156470    0.0003989548    
0.0444696230    0.0197854310    0.0003972209    
0.0446922840    0.0204766990    0.0004029005    
0.0449149450    0.0201335180    0.0003941691    
0.0451376060    0.0192103210    0.0003897812    
0.0453602670    0.0197543990    0.0003911187    
0.0455829280    0.0193147200    0.0003862944    
0.0458055890    0.0193921300    0.0003893249    
0.0460282500    0.0198808760    0.0003894470    
0.0462509110    0.0196946170    0.0003852075    
0.0464735720    0.0196037200    0.0003845345    
0.0466962330    0.0195768470    0.0003860177    
0.0469188940    0.0193600510    0.0003827862    
0.0471415550    0.0196664760    0.0003877851    
0.0473642160    0.0201677520    0.0003871975    
0.0475868770    0.0192613010    0.0003765163    
0.0478095380    0.0194724780    0.0003769180    
0.0480321990    0.0194040160    0.0003770793    
0.0482548600    0.0202377460    0.0003834172    
0.0484775210    0.0201674420    0.0003865510    
0.0487001820    0.0197323900    0.0003767617    
0.0489228430    0.0197974220    0.0003771793    
0.0491455040    0.0203891220    0.0003801269    
0.0493681650    0.0197678050    0.0003775068    
0.0495908260    0.0190733650    0.0003645775    
0.0498134870    0.0197507170    0.0003745263    
0.0500361480    0.0196604730    0.0003726811    
0.0502588090    0.0192470760    0.0003632170    
0.0504814700    0.0199857430    0.0003749598    
0.0507041310    0.0197399930    0.0003682168    
0.0509267920    0.0196404920    0.0003688071    
0.0511494530    0.0195092740    0.0003651220    
0.0513721140    0.0200699910    0.0003735932    
0.0515947750    0.0195751710    0.0003640672    
0.0518174360    0.0197748850    0.0003637155    
0.0520400970    0.0196401510    0.0003599610    
0.0522627580    0.0191836240    0.0003587762    
0.0524854190    0.0192036080    0.0003618816    
0.0527080800    0.0195298290    0.0003677680    
0.0529307410    0.0196018550    0.0003701759    
0.0531534020    0.0196606440    0.0003693809    
0.0533760630    0.0188691040    0.0003630017    
0.0535987240    0.0197033990    0.0003692080    
0.0538213850    0.0199360610    0.0003756843    
0.0540440460    0.0195304130    0.0003700827    
0.0542667070    0.0195730220    0.0003730395    
0.0544893680    0.0199426330    0.0003767458    
0.0547120290    0.0197756270    0.0003725948    
0.0549346900    0.0190796370    0.0003661721    
0.0551573510    0.0206177700    0.0003851267    
0.0553800120    0.0193139690    0.0003695819    
0.0556026730    0.0197915950    0.0003818808    
0.0558253340    0.0201244330    0.0003883029    
0.0560479950    0.0194051880    0.0003813010    
0.0562706560    0.0202939640    0.0003937051    
0.0564933170    0.0196920970    0.0003911908    
0.0567159780    0.0186310230    0.0003759434    
0.0569386390    0.0195565870    0.0003912100    
0.0571613000    0.0192629300    0.0003799018    
0.0573839610    0.0194306980    0.0003783845    
0.0576066220    0.0196495670    0.0003815630    
0.0578292830    0.0195418260    0.0003792564    
0.0580519440    0.0200052070    0.0003852145    
0.0582746050    0.0193218550    0.0003769087    
0.0584972660    0.0185613440    0.0003680026    
0.0587199270    0.0194545920    0.0003735057    
0.0589425880    0.0196954340    0.0003736124    
0.0591652490    0.0197558110    0.0003763865    
0.0593879100    0.0195906280    0.0003720261    
0.0596105710    0.0203107050    0.0003784019    
0.0598332320    0.0198562660    0.0003773428    
0.0600558930    0.0193419250    0.0003700491    
0.0602785540    0.0201064420    0.0003768927    
0.0605012150    0.0195574900    0.0003709289    
0.0607238760    0.0188575060    0.0003615762    
0.0609465370    0.0196696930    0.0003721878    
0.0611691980    0.0190468030    0.0003668277    
0.0613918590    0.0191446350    0.0003637535    
0.0616145200    0.0196713540    0.0003714222    
0.0618371810    0.0195756400    0.0003668785    
0.0620598420    0.0201878990    0.0003729557    
0.0622825030    0.0195174380    0.0003723184    
0.0625051640    0.0190697290    0.0003628546    
0.0627278250    0.0200089090    0.0003709171    
0.0629504860    0.0196172540    0.0003642833    
0.0631731470    0.0194262400    0.0003669904    
0.0633958080    0.0197907500    0.0003725493    
0.0636184690    0.0196393000    0.0003762898    
0.0638411300    0.0190556340    0.0003692647    
0.0640637910    0.0195858700    0.0003770001    
0.0642864520    0.0197829850    0.0003780725    
0.0645091130    0.0197341870    0.0003809149    
0.0647317740    0.0201461620    0.0003852947    
0.0649544350    0.0194989510    0.0003786383    
0.0651770960    0.0195558820    0.0003771221    
0.0653997570    0.0190077280    0.0003709929    
0.0656224180    0.0195050190    0.0003766318    
0.0658450790    0.0201635240    0.0003774326    
0.0660677400    0.0196586180    0.0003742632    
0.0662904010    0.0197659720    0.0003797639    
0.0665130620    0.0200143890    0.0003804852    
0.0667357230    0.0198183040    0.0003853485    
0.0669583840    0.0199985040    0.0003858013    
0.0671810450    0.0195574580    0.0003794169    
0.0674037060    0.0192056920    0.0003823590    
0.0676263670    0.0195931020    0.0003833687    
0.0678490280    0.0195394290    0.0003805019    
0.0680716890    0.0195520600    0.0003814718    
0.0682943500    0.0190460260    0.0003723793    
0.0685170110    0.0203004250    0.0003805289    
0.0687396720    0.0202281740    0.0003788419    
0.0689623330    0.0198886660    0.0003744589    
0.0691849940    0.0193717620    0.0003721212    
0.0694076550    0.0197723860    0.0003757488    
0.0696303160    0.0200930630    0.0003757847    
0.0698529770    0.0200649160    0.0003747344    
0.0700756380    0.0194780610    0.0003644741    
0.0702982990    0.0193191820    0.0003669375    
0.0705209600    0.0195838940    0.0003667756    
0.0707436210    0.0198536410    0.0003675970    
0.0709662820    0.0193122860    0.0003668727    
0.0711889430    0.0194731320    0.0003638726    
0.0714116040    0.0200920580    0.0003703645    
0.0716342650    0.0202678170    0.0003704705    
0.0718569260    0.0193861340    0.0003608636    
0.0720795870    0.0187983980    0.0003567887    
0.0723022480    0.0196844080    0.0003656564    
0.0725249090    0.0201705760    0.0003657116    
0.0727475700    0.0187900380    0.0003559894    
0.0729702310    0.0197725090    0.0003622651    
0.0731928920    0.0191213280    0.0003576736    
0.0734155530    0.0196115180    0.0003615065    
0.0736382140    0.0195908570    0.0003589972    
0.0738608750    0.0203312600    0.0003680808    
0.0740835360    0.0197132380    0.0003615435    
0.0743061970    0.0193360010    0.0003530255    
0.0745288580    0.0192949250    0.0003562764    
0.0747515190    0.0197344670    0.0003610232    
0.0749741800    0.0191503940    0.0003523485    
0.0751968410    0.0201634860    0.0003643871    
0.0754195020    0.0195634560    0.0003568216    
0.0756421630    0.0189568220    0.0003483745    
0.0758648240    0.0194404870    0.0003536388    
0.0760874850    0.0200452210    0.0003589245    
0.0763101460    0.0194615420    0.0003533210    
0.0765328070    0.0190762840    0.0003533857    
0.0767554680    0.0199871500    0.0003592697    
0.0769781290    0.0198538560    0.0003560120    
0.0772007900    0.0190027080    0.0003455038    
0.0774234510    0.0199056800    0.0003556287    
0.0776461120    0.0197157390    0.0003535922    
0.0778687730    0.0195856910    0.0003512599    
0.0780914340    0.0192531410    0.0003507535    
0.0783140950    0.0197301010    0.0003494380    
0.0785367560    0.0196813280    0.0003546329    
0.0787594170    0.0198323160    0.0003528011    
0.0789820780    0.0199153450    0.0003517273    
0.0792047390    0.0191954310    0.0003464405    
0.0794274000    0.0194530230    0.0003502350    
0.0796500610    0.0201881210    0.0003533087    
0.0798727220    0.0197929050    0.0003495104    
0.0800953830    0.0193825150    0.0003450726    
0.0803180440    0.0191240080    0.0003451515    
0.0805407050    0.0185848190    0.0003399346    
0.0807633660    0.0197729550    0.0003503069    
0.0809860270    0.0199475350    0.0003505507    
0.0812086880    0.0198585490    0.0003467453    
0.0814313490    0.0190686450    0.0003413288    
0.0816540100    0.0192312800    0.0003420009    
0.0818766710    0.0193008730    0.0003434015    
0.0820993320    0.0199123940    0.0003481635    
0.0823219930    0.0195429930    0.0003463415    
0.0825446540    0.0196895260    0.0003451118    
0.0827673150    0.0189901910    0.0003366505    
0.0829899760    0.0198741230    0.0003437833    
0.0832126370    0.0196685440    0.0003435324    
0.0834352980    0.0196225020    0.0003423629    
0.0836579590    0.0194341470    0.0003399574    
0.0838806200    0.0192926660    0.0003397776    
0.0841032810    0.0197276230    0.0003414535    
0.0843259420    0.0196591690    0.0003398109    
0.0845486030    0.0196357030    0.0003396083    
0.0847712640    0.0193971040    0.0003354816    
0.0849939250    0.0195986370    0.0003378071    
0.0852165860    0.0197842870    0.0003398479    
0.0854392470    0.0192395150    0.0003319626    
0.0856619080    0.0195239550    0.0003368704    
0.0858845690    0.0199102110    0.0003371224    
0.0861072300    0.0201397570    0.0003414009    
0.0863298910    0.0194798690    0.0003375194    
0.0865525520    0.0196104510    0.0003357245    
0.0867752130    0.0194762180    0.0003318739    
0.0869978740    0.0190811100    0.0003293275    
0.0872205350    0.0194181150    0.0003318003    
0.0874431960    0.0192877460    0.0003306849    
0.0876658570    0.0203102560    0.0003406400    
0.0878885180    0.0194627210    0.0003340286    
0.0881111790    0.0195957810    0.0003347384    
0.0883338400    0.0191538590    0.0003260970    
0.0885565010    0.0193517660    0.0003322222    
0.0887791620    0.0195754640    0.0003298039    
0.0890018230    0.0194245610    0.0003317168    
0.0892244840    0.0194622410    0.0003326029    
0.0894471450    0.0197039750    0.0003332484    
0.0896698060    0.0196507010    0.0003315423    
0.0898924670    0.0199800860    0.0003358591    
0.0901151280    0.0195176470    0.0003283641    
0.0903377890    0.0196210170    0.0003319879    
0.0905604500    0.0199366940    0.0003331121    
0.0907831110    0.0190456670    0.0003247731    
0.0910057720    0.0194388410    0.0003296139    
0.0912284330    0.0199016280    0.0003287393    
0.0914510940    0.0200592580    0.0003337190    
0.0916737550    0.0195786370    0.0003288786    
0.0918964160    0.0191067880    0.0003262426    
0.0921190770    0.0191731000    0.0003238533    
0.0923417380    0.0187125350    0.0003200712    
0.0925643990    0.0191767510    0.0003232241    
0.0927870600    0.0198561650    0.0003302488    
0.0930097210    0.0191684100    0.0003217154    
0.0932323820    0.0191772930    0.0003241554    
