# Diamond Light Source Ltd.
# Data extracted from: /dls/b21/data/2018/cm19678-3/processed/b21-386631_00487.dat
q(1/A)          Column          Error           
0.0035000000    2.0974384000    0.0246945520    
0.0037226610    1.8637639000    0.0227882140    
0.0039453220    1.5966143000    0.0191876370    
0.0041679830    1.2760013000    0.0140867830    
0.0043906440    0.9581120100    0.0116756140    
0.0046133050    0.7728247500    0.0100664410    
0.0048359660    0.5972681400    0.0083708160    
0.0050586270    0.4726342400    0.0073190911    
0.0052812880    0.4285856300    0.0065897270    
0.0055039490    0.3808928700    0.0059069133    
0.0057266100    0.3180684300    0.0052219609    
0.0059492710    0.2666288200    0.0047810898    
0.0061719320    0.2151830800    0.0041389015    
0.0063945930    0.2004515500    0.0040431373    
0.0066172539    0.1874560800    0.0036713773    
0.0068399149    0.1686417300    0.0034274227    
0.0070625759    0.1499151600    0.0031983833    
0.0072852369    0.1286450400    0.0029184795    
0.0075078979    0.1165008100    0.0027636638    
0.0077305589    0.1016953000    0.0025329020    
0.0079532199    0.0978534130    0.0024501667    
0.0081758809    0.0871830950    0.0023342382    
0.0083985419    0.0837798240    0.0021342148    
0.0086212029    0.0763315320    0.0020371379    
0.0088438639    0.0682090850    0.0019102365    
0.0090665249    0.0650252060    0.0018013974    
0.0092891859    0.0633378040    0.0018556670    
0.0095118469    0.0618940170    0.0017640856    
0.0097345079    0.0584771640    0.0016653471    
0.0099571689    0.0544981670    0.0015745392    
0.0101798300    0.0503584990    0.0015135577    
0.0104024910    0.0486175570    0.0014821324    
0.0106251520    0.0449905810    0.0014306173    
0.0108478130    0.0409859150    0.0013297587    
0.0110704740    0.0439163730    0.0013104987    
0.0112931350    0.0440567040    0.0013164458    
0.0115157960    0.0393843780    0.0012374261    
0.0117384570    0.0366839650    0.0011839699    
0.0119611180    0.0393160210    0.0012292260    
0.0121837790    0.0364823030    0.0011641971    
0.0124064400    0.0354830240    0.0011002819    
0.0126291010    0.0340680560    0.0010646268    
0.0128517620    0.0323659920    0.0010402824    
0.0130744230    0.0315582660    0.0010196013    
0.0132970840    0.0318049350    0.0010185731    
0.0135197450    0.0337212010    0.0010337897    
0.0137424060    0.0300769680    0.0009627403    
0.0139650670    0.0288698340    0.0009222130    
0.0141877280    0.0281986710    0.0009134446    
0.0144103890    0.0286349320    0.0009046119    
0.0146330500    0.0289214410    0.0009033540    
0.0148557110    0.0269446720    0.0008682799    
0.0150783720    0.0274918430    0.0008698034    
0.0153010330    0.0264278410    0.0008407816    
0.0155236940    0.0262994960    0.0008337501    
0.0157463550    0.0262383680    0.0008183522    
0.0159690160    0.0267488490    0.0008231389    
0.0161916770    0.0251960210    0.0007943885    
0.0164143380    0.0267488650    0.0008247028    
0.0166369990    0.0252681310    0.0007768377    
0.0168596600    0.0250829410    0.0007671665    
0.0170823210    0.0255267410    0.0007672229    
0.0173049820    0.0250365970    0.0007611350    
0.0175276430    0.0241260000    0.0007550443    
0.0177503040    0.0242804730    0.0007381481    
0.0179729650    0.0242412100    0.0007302364    
0.0181956260    0.0233418280    0.0007028248    
0.0184182870    0.0240027710    0.0007093468    
0.0186409480    0.0257511700    0.0007393781    
0.0188636090    0.0238350820    0.0007068649    
0.0190862700    0.0223395660    0.0006832598    
0.0193089310    0.0228116260    0.0006893649    
0.0195315920    0.0227249730    0.0006646548    
0.0197542530    0.0223233220    0.0006597146    
0.0199769140    0.0231226800    0.0006714224    
0.0201995750    0.0224419680    0.0006511075    
0.0204222360    0.0224061500    0.0006561724    
0.0206448970    0.0225813360    0.0006540508    
0.0208675580    0.0226967070    0.0006422168    
0.0210902190    0.0225255170    0.0006459635    
0.0213128800    0.0223509680    0.0006347248    
0.0215355410    0.0220503860    0.0006229320    
0.0217582020    0.0214520600    0.0006144226    
0.0219808630    0.0209394140    0.0006062396    
0.0222035240    0.0214751180    0.0006083822    
0.0224261850    0.0215685890    0.0006042783    
0.0226488460    0.0222631430    0.0006093206    
0.0228715070    0.0221526650    0.0006062969    
0.0230941680    0.0220033300    0.0006042500    
0.0233168290    0.0211458430    0.0005938344    
0.0235394900    0.0222148580    0.0006019425    
0.0237621510    0.0207414250    0.0005659793    
0.0239848120    0.0216253590    0.0005785823    
0.0242074730    0.0212348450    0.0005687452    
0.0244301340    0.0207794980    0.0005632562    
0.0246527950    0.0209172720    0.0005703532    
0.0248754560    0.0212210620    0.0005615688    
0.0250981170    0.0218830350    0.0005715320    
0.0253207780    0.0206098560    0.0005380962    
0.0255434390    0.0192296280    0.0005253134    
0.0257661000    0.0203363900    0.0005419666    
0.0259887610    0.0200195590    0.0005320138    
0.0262114220    0.0199476690    0.0005338871    
0.0264340830    0.0212576480    0.0005436401    
0.0266567440    0.0200620010    0.0005248668    
0.0268794050    0.0205795650    0.0005294244    
0.0271020660    0.0210077050    0.0005327377    
0.0273247270    0.0204624700    0.0005226211    
0.0275473880    0.0193972940    0.0005078243    
0.0277700490    0.0213101800    0.0005291292    
0.0279927100    0.0203331690    0.0005123477    
0.0282153710    0.0195145670    0.0005043686    
0.0284380320    0.0209511510    0.0005195742    
0.0286606930    0.0207713560    0.0005129121    
0.0288833540    0.0198459690    0.0005023089    
0.0291060150    0.0203539690    0.0005082144    
0.0293286760    0.0205309770    0.0005033070    
0.0295513370    0.0222469970    0.0005182135    
0.0297739980    0.0209875180    0.0005088724    
0.0299966590    0.0208012220    0.0004979562    
0.0302193200    0.0200867040    0.0004964601    
0.0304419810    0.0209612160    0.0005080854    
0.0306646420    0.0204692440    0.0004879165    
0.0308873030    0.0208347060    0.0004901266    
0.0311099640    0.0199810780    0.0004812273    
0.0313326250    0.0199602070    0.0004756477    
0.0315552860    0.0200622300    0.0004830417    
0.0317779470    0.0199340850    0.0004819160    
0.0320006080    0.0200622520    0.0004724783    
0.0322232690    0.0205110840    0.0004797340    
0.0324459300    0.0197969890    0.0004677904    
0.0326685910    0.0198639780    0.0004678088    
0.0328912520    0.0204171870    0.0004758488    
0.0331139130    0.0211534750    0.0004780523    
0.0333365740    0.0196817360    0.0004626197    
0.0335592350    0.0205316280    0.0004679592    
0.0337818960    0.0207864650    0.0004704795    
0.0340045570    0.0202003530    0.0004630625    
0.0342272170    0.0202519360    0.0004618244    
0.0344498780    0.0197970070    0.0004584164    
0.0346725390    0.0195306700    0.0004468898    
0.0348952000    0.0209338050    0.0004605566    
0.0351178610    0.0200317430    0.0004525864    
0.0353405220    0.0211668800    0.0004631137    
0.0355631830    0.0197708110    0.0004458951    
0.0357858440    0.0200725140    0.0004492846    
0.0360085050    0.0200321190    0.0004501884    
0.0362311660    0.0201908990    0.0004465964    
0.0364538270    0.0200430560    0.0004413871    
0.0366764880    0.0208001730    0.0004493201    
0.0368991490    0.0202739090    0.0004413634    
0.0371218100    0.0201103040    0.0004383213    
0.0373444710    0.0194572550    0.0004358409    
0.0375671320    0.0202183120    0.0004436359    
0.0377897930    0.0197208100    0.0004268014    
0.0380124540    0.0197819930    0.0004301450    
0.0382351150    0.0202777260    0.0004355015    
0.0384577760    0.0196773260    0.0004248664    
0.0386804370    0.0208729590    0.0004409233    
0.0389030980    0.0199342140    0.0004276311    
0.0391257590    0.0203250920    0.0004288719    
0.0393484200    0.0206379450    0.0004307056    
0.0395710810    0.0204051760    0.0004288468    
0.0397937420    0.0201438160    0.0004260916    
0.0400164030    0.0192994590    0.0004187626    
0.0402390640    0.0206554100    0.0004274550    
0.0404617250    0.0201326780    0.0004195218    
0.0406843860    0.0196426400    0.0004103811    
0.0409070470    0.0198701970    0.0004170511    
0.0411297080    0.0192987350    0.0004070340    
0.0413523690    0.0200023970    0.0004154563    
0.0415750300    0.0196942080    0.0004157450    
0.0417976910    0.0203293350    0.0004114711    
0.0420203520    0.0188713260    0.0003979309    
0.0422430130    0.0196316740    0.0004074049    
0.0424656740    0.0197252000    0.0004030590    
0.0426883350    0.0195887680    0.0004036562    
0.0429109960    0.0200294260    0.0004094465    
0.0431336570    0.0202907240    0.0004063023    
0.0433563180    0.0193180260    0.0003998640    
0.0435789790    0.0197822950    0.0003982833    
0.0438016400    0.0192280240    0.0003948002    
0.0440243010    0.0196976250    0.0003955378    
0.0442469620    0.0198620480    0.0003995652    
0.0444696230    0.0196639900    0.0003961424    
0.0446922840    0.0196663720    0.0003949899    
0.0449149450    0.0193989120    0.0003870504    
0.0451376060    0.0197069140    0.0003949289    
0.0453602670    0.0184434640    0.0003780542    
0.0455829280    0.0195218940    0.0003885002    
0.0458055890    0.0203681650    0.0003991457    
0.0460282500    0.0201242030    0.0003919638    
0.0462509110    0.0198746520    0.0003871033    
0.0464735720    0.0195347860    0.0003839958    
0.0466962330    0.0197737320    0.0003880934    
0.0469188940    0.0202373940    0.0003915041    
0.0471415550    0.0190072520    0.0003813674    
0.0473642160    0.0200185930    0.0003859017    
0.0475868770    0.0190247290    0.0003743314    
0.0478095380    0.0197128120    0.0003793732    
0.0480321990    0.0194839660    0.0003779911    
0.0482548600    0.0191473630    0.0003730792    
0.0484775210    0.0199076110    0.0003841908    
0.0487001820    0.0197393800    0.0003769639    
0.0489228430    0.0198763780    0.0003780665    
0.0491455040    0.0200066290    0.0003766798    
0.0493681650    0.0196088730    0.0003761213    
0.0495908260    0.0200494530    0.0003739242    
0.0498134870    0.0198786330    0.0003758723    
0.0500361480    0.0195049400    0.0003713375    
0.0502588090    0.0197136300    0.0003677251    
0.0504814700    0.0194439680    0.0003699756    
0.0507041310    0.0191630730    0.0003629266    
0.0509267920    0.0194674940    0.0003673112    
0.0511494530    0.0196327140    0.0003664070    
0.0513721140    0.0199521960    0.0003726292    
0.0515947750    0.0190200680    0.0003589970    
0.0518174360    0.0195481000    0.0003617538    
0.0520400970    0.0202550590    0.0003656839    
0.0522627580    0.0190429800    0.0003575870    
0.0524854190    0.0199749200    0.0003692102    
0.0527080800    0.0197864380    0.0003703093    
0.0529307410    0.0196229450    0.0003705082    
0.0531534020    0.0194178220    0.0003672247    
0.0533760630    0.0202593880    0.0003762723    
0.0535987240    0.0194890970    0.0003673267    
0.0538213850    0.0195536560    0.0003721975    
0.0540440460    0.0193900650    0.0003688832    
0.0542667070    0.0189609920    0.0003672928    
0.0544893680    0.0191806310    0.0003696108    
0.0547120290    0.0200919290    0.0003756978    
0.0549346900    0.0190159990    0.0003656923    
0.0551573510    0.0197471070    0.0003770427    
0.0553800120    0.0200072690    0.0003762919    
0.0556026730    0.0204252190    0.0003880850    
0.0558253340    0.0191042170    0.0003784683    
0.0560479950    0.0196440730    0.0003837787    
0.0562706560    0.0194295630    0.0003853677    
0.0564933170    0.0203283960    0.0003976036    
0.0567159780    0.0204435750    0.0003939478    
0.0569386390    0.0196724570    0.0003925083    
0.0571613000    0.0192617850    0.0003800270    
0.0573839610    0.0191792130    0.0003760630    
0.0576066220    0.0197526720    0.0003827003    
0.0578292830    0.0194822210    0.0003788136    
0.0580519440    0.0196632920    0.0003820457    
0.0582746050    0.0195564760    0.0003793264    
0.0584972660    0.0193048280    0.0003754354    
0.0587199270    0.0190667230    0.0003698966    
0.0589425880    0.0194542720    0.0003714515    
0.0591652490    0.0194183890    0.0003732925    
0.0593879100    0.0195622950    0.0003718906    
0.0596105710    0.0196127600    0.0003719772    
0.0598332320    0.0194040990    0.0003731557    
0.0600558930    0.0200784890    0.0003771648    
0.0602785540    0.0193644210    0.0003700058    
0.0605012150    0.0194096300    0.0003696569    
0.0607238760    0.0196064830    0.0003688193    
0.0609465370    0.0195569810    0.0003712533    
0.0611691980    0.0204108530    0.0003798724    
0.0613918590    0.0198431240    0.0003704629    
0.0616145200    0.0196995340    0.0003718217    
0.0618371810    0.0196860470    0.0003680439    
0.0620598420    0.0193681180    0.0003654362    
0.0622825030    0.0195670100    0.0003729249    
0.0625051640    0.0200300120    0.0003720121    
0.0627278250    0.0189636440    0.0003612287    
0.0629504860    0.0196584380    0.0003647965    
0.0631731470    0.0201825720    0.0003742007    
0.0633958080    0.0194891670    0.0003698327    
0.0636184690    0.0191844520    0.0003720405    
0.0638411300    0.0188330280    0.0003672335    
0.0640637910    0.0197016200    0.0003782483    
0.0642864520    0.0200864320    0.0003810980    
0.0645091130    0.0197851660    0.0003815437    
0.0647317740    0.0200500380    0.0003845126    
0.0649544350    0.0201236720    0.0003847942    
0.0651770960    0.0194680550    0.0003764096    
0.0653997570    0.0195286330    0.0003761772    
0.0656224180    0.0193662100    0.0003754242    
0.0658450790    0.0191599310    0.0003680521    
0.0660677400    0.0194873640    0.0003727634    
0.0662904010    0.0191376390    0.0003738134    
0.0665130620    0.0196306660    0.0003769556    
0.0667357230    0.0198775440    0.0003860627    
0.0669583840    0.0201841890    0.0003877276    
0.0671810450    0.0188349190    0.0003724761    
0.0674037060    0.0200574510    0.0003908862    
0.0676263670    0.0195996840    0.0003835709    
0.0678490280    0.0192123860    0.0003774397    
0.0680716890    0.0196703920    0.0003827620    
0.0682943500    0.0197008730    0.0003788629    
0.0685170110    0.0199295650    0.0003771726    
0.0687396720    0.0193764930    0.0003709142    
0.0689623330    0.0192538800    0.0003685671    
0.0691849940    0.0195001450    0.0003734865    
0.0694076550    0.0193364200    0.0003717168    
0.0696303160    0.0198683870    0.0003738121    
0.0698529770    0.0200023040    0.0003742837    
0.0700756380    0.0199629880    0.0003691158    
0.0702982990    0.0197654870    0.0003712852    
0.0705209600    0.0202303900    0.0003729144    
0.0707436210    0.0189279880    0.0003590543    
0.0709662820    0.0201700790    0.0003750667    
0.0711889430    0.0195960010    0.0003651499    
0.0714116040    0.0193344920    0.0003634457    
0.0716342650    0.0196724960    0.0003651203    
0.0718569260    0.0192790750    0.0003599951    
0.0720795870    0.0192252890    0.0003609468    
0.0723022480    0.0194402650    0.0003635123    
0.0725249090    0.0190703220    0.0003557252    
0.0727475700    0.0201939040    0.0003691811    
0.0729702310    0.0195542540    0.0003603897    
0.0731928920    0.0192087250    0.0003586190    
0.0734155530    0.0200057280    0.0003652530    
0.0736382140    0.0193876960    0.0003572593    
0.0738608750    0.0191722070    0.0003575635    
0.0740835360    0.0192032060    0.0003569641    
0.0743061970    0.0195176040    0.0003548069    
0.0745288580    0.0195787140    0.0003590159    
0.0747515190    0.0191339900    0.0003556160    
0.0749741800    0.0194690780    0.0003553959    
0.0751968410    0.0199012130    0.0003621396    
0.0754195020    0.0198836250    0.0003598588    
0.0756421630    0.0197969270    0.0003561382    
0.0758648240    0.0193836520    0.0003532484    
0.0760874850    0.0198281030    0.0003571037    
0.0763101460    0.0191610010    0.0003507083    
0.0765328070    0.0193651490    0.0003561793    
0.0767554680    0.0195814570    0.0003557326    
0.0769781290    0.0194848240    0.0003528146    
0.0772007900    0.0199153280    0.0003538302    
0.0774234510    0.0196275190    0.0003532621    
0.0776461120    0.0192539610    0.0003495524    
0.0778687730    0.0200095470    0.0003551680    
0.0780914340    0.0195227700    0.0003533280    
0.0783140950    0.0195646820    0.0003480952    
0.0785367560    0.0192926180    0.0003512396    
0.0787594170    0.0193504120    0.0003486136    
0.0789820780    0.0187920700    0.0003417870    
0.0792047390    0.0199037690    0.0003529015    
0.0794274000    0.0194670110    0.0003504868    
0.0796500610    0.0194168070    0.0003466182    
0.0798727220    0.0196589070    0.0003484505    
0.0800953830    0.0196608090    0.0003476659    
0.0803180440    0.0190941230    0.0003450057    
0.0805407050    0.0193821810    0.0003472751    
0.0807633660    0.0197374870    0.0003501184    
0.0809860270    0.0193145660    0.0003450680    
0.0812086880    0.0196668300    0.0003451915    
0.0814313490    0.0194981200    0.0003452753    
0.0816540100    0.0191477260    0.0003413798    
0.0818766710    0.0201462820    0.0003509677    
0.0820993320    0.0192444160    0.0003423970    
0.0823219930    0.0193973470    0.0003451726    
0.0825446540    0.0197460570    0.0003457311    
0.0827673150    0.0196428810    0.0003425100    
0.0829899760    0.0194301820    0.0003400441    
0.0832126370    0.0191723070    0.0003392930    
0.0834352980    0.0196067240    0.0003423482    
0.0836579590    0.0194124150    0.0003398894    
0.0838806200    0.0200431090    0.0003464474    
0.0841032810    0.0194283530    0.0003389755    
0.0843259420    0.0196086480    0.0003394960    
0.0845486030    0.0200789090    0.0003435431    
0.0847712640    0.0193820190    0.0003354717    
0.0849939250    0.0195195020    0.0003372456    
0.0852165860    0.0190857890    0.0003339147    
0.0854392470    0.0190584660    0.0003305157    
0.0856619080    0.0191889970    0.0003340882    
0.0858845690    0.0186906700    0.0003267520    
0.0861072300    0.0196619650    0.0003374481    
0.0863298910    0.0195523980    0.0003382687    
0.0865525520    0.0193197160    0.0003333464    
0.0867752130    0.0196090650    0.0003331235    
0.0869978740    0.0194190500    0.0003323504    
0.0872205350    0.0192108070    0.0003301430    
0.0874431960    0.0197328090    0.0003345986    
0.0876658570    0.0194958570    0.0003338606    
0.0878885180    0.0190062910    0.0003302073    
0.0881111790    0.0194553730    0.0003336569    
0.0883338400    0.0192176340    0.0003267568    
0.0885565010    0.0197024260    0.0003353392    
0.0887791620    0.0195061330    0.0003293377    
0.0890018230    0.0190190330    0.0003283539    
0.0892244840    0.0186514540    0.0003257182    
0.0894471450    0.0199775920    0.0003356749    
0.0896698060    0.0193065760    0.0003287446    
0.0898924670    0.0200396500    0.0003364802    
0.0901151280    0.0193271320    0.0003268750    
0.0903377890    0.0192528780    0.0003289769    
0.0905604500    0.0197505170    0.0003316722    
0.0907831110    0.0192921310    0.0003269853    
0.0910057720    0.0189382530    0.0003254591    
0.0912284330    0.0191334300    0.0003224481    
0.0914510940    0.0194625260    0.0003288358    
0.0916737550    0.0196977540    0.0003299961    
0.0918964160    0.0193546550    0.0003284699    
0.0921190770    0.0196138690    0.0003276724    
0.0923417380    0.0193560330    0.0003256451    
0.0925643990    0.0191360220    0.0003229967    
0.0927870600    0.0198484560    0.0003303034    
0.0930097210    0.0193983300    0.0003237555    
0.0932323820    0.0196516690    0.0003282581    
