# Diamond Light Source Ltd.
# Data extracted from: /dls/b21/data/2018/cm19678-3/processed/b21-386631_00489.dat
q(1/A)          Column          Error           
0.0035000000    2.1031448000    0.0247206500    
0.0037226610    1.8606886000    0.0227625260    
0.0039453220    1.6207689000    0.0193263930    
0.0041679830    1.2955906000    0.0141902130    
0.0043906440    0.9508500300    0.0116277680    
0.0046133050    0.7730130300    0.0100646250    
0.0048359660    0.5997212200    0.0083854543    
0.0050586270    0.4529789900    0.0071631221    
0.0052812880    0.4340984600    0.0066299692    
0.0055039490    0.3759937200    0.0058670290    
0.0057266100    0.3181333100    0.0052209155    
0.0059492710    0.2632118600    0.0047489199    
0.0061719320    0.2257937900    0.0042384376    
0.0063945930    0.1939733400    0.0039760657    
0.0066172539    0.1836778900    0.0036330925    
0.0068399149    0.1752229600    0.0034926045    
0.0070625759    0.1444371700    0.0031384556    
0.0072852369    0.1230752500    0.0028537390    
0.0075078979    0.1161683400    0.0027588837    
0.0077305589    0.0970313370    0.0024733906    
0.0079532199    0.0966293440    0.0024340580    
0.0081758809    0.0925643600    0.0024044719    
0.0083985419    0.0825881850    0.0021183422    
0.0086212029    0.0794368060    0.0020775337    
0.0088438639    0.0713223090    0.0019527538    
0.0090665249    0.0626418380    0.0017675417    
0.0092891859    0.0650382360    0.0018798434    
0.0095118469    0.0625098600    0.0017723045    
0.0097345079    0.0591528040    0.0016744340    
0.0099571689    0.0529194820    0.0015510975    
0.0101798300    0.0496915850    0.0015030477    
0.0104024910    0.0475495880    0.0014653203    
0.0106251520    0.0465091580    0.0014541214    
0.0108478130    0.0440655760    0.0013783960    
0.0110704740    0.0439289220    0.0013102899    
0.0112931350    0.0420644570    0.0012859480    
0.0115157960    0.0414199220    0.0012686174    
0.0117384570    0.0375019670    0.0011967359    
0.0119611180    0.0354897900    0.0011675284    
0.0121837790    0.0378711470    0.0011857916    
0.0124064400    0.0346091440    0.0010863202    
0.0126291010    0.0365411850    0.0011022593    
0.0128517620    0.0332152460    0.0010535236    
0.0130744230    0.0312758230    0.0010147217    
0.0132970840    0.0330571480    0.0010381172    
0.0135197450    0.0319587730    0.0010061078    
0.0137424060    0.0308595420    0.0009748900    
0.0139650670    0.0297650690    0.0009361196    
0.0141877280    0.0300742100    0.0009430479    
0.0144103890    0.0286747520    0.0009049672    
0.0146330500    0.0280015990    0.0008886039    
0.0148557110    0.0279070980    0.0008833838    
0.0150783720    0.0290428880    0.0008937331    
0.0153010330    0.0281227640    0.0008670620    
0.0155236940    0.0274987280    0.0008522897    
0.0157463550    0.0268602220    0.0008277428    
0.0159690160    0.0261251270    0.0008132397    
0.0161916770    0.0241295120    0.0007771593    
0.0164143380    0.0243948620    0.0007873408    
0.0166369990    0.0263985520    0.0007937844    
0.0168596600    0.0249270880    0.0007645483    
0.0170823210    0.0251425910    0.0007611980    
0.0173049820    0.0242583390    0.0007489853    
0.0175276430    0.0245365020    0.0007612107    
0.0177503040    0.0255889850    0.0007575481    
0.0179729650    0.0241386280    0.0007284696    
0.0181956260    0.0239199070    0.0007112597    
0.0184182870    0.0241349220    0.0007110820    
0.0186409480    0.0236351780    0.0007081354    
0.0188636090    0.0236321270    0.0007036363    
0.0190862700    0.0230988140    0.0006945638    
0.0193089310    0.0231934220    0.0006948999    
0.0195315920    0.0228666660    0.0006665222    
0.0197542530    0.0219785970    0.0006544032    
0.0199769140    0.0234984020    0.0006766509    
0.0201995750    0.0228248710    0.0006564402    
0.0204222360    0.0218164730    0.0006472847    
0.0206448970    0.0221133100    0.0006470418    
0.0208675580    0.0221926490    0.0006348535    
0.0210902190    0.0229932480    0.0006524384    
0.0213128800    0.0221933510    0.0006322918    
0.0215355410    0.0224591620    0.0006284896    
0.0217582020    0.0216149740    0.0006165649    
0.0219808630    0.0217161210    0.0006171943    
0.0222035240    0.0214449180    0.0006077706    
0.0224261850    0.0206588190    0.0005912180    
0.0226488460    0.0223496900    0.0006103193    
0.0228715070    0.0217744390    0.0006009172    
0.0230941680    0.0219402850    0.0006032014    
0.0233168290    0.0204497420    0.0005838020    
0.0235394900    0.0218591230    0.0005969230    
0.0237621510    0.0208832410    0.0005677394    
0.0239848120    0.0216432340    0.0005786465    
0.0242074730    0.0213285820    0.0005698269    
0.0244301340    0.0219265960    0.0005784194    
0.0246527950    0.0211533140    0.0005733890    
0.0248754560    0.0220102320    0.0005717426    
0.0250981170    0.0201840780    0.0005487317    
0.0253207780    0.0212432670    0.0005461373    
0.0255434390    0.0204944300    0.0005421503    
0.0257661000    0.0213489690    0.0005551276    
0.0259887610    0.0204596100    0.0005376666    
0.0262114220    0.0212065840    0.0005503101    
0.0264340830    0.0207307050    0.0005366976    
0.0266567440    0.0201596680    0.0005259839    
0.0268794050    0.0213293810    0.0005388200    
0.0271020660    0.0207924880    0.0005298417    
0.0273247270    0.0211571230    0.0005312574    
0.0275473880    0.0209135670    0.0005271397    
0.0277700490    0.0205751400    0.0005197665    
0.0279927100    0.0212369370    0.0005234521    
0.0282153710    0.0216654090    0.0005312767    
0.0284380320    0.0207195790    0.0005165387    
0.0286606930    0.0201259160    0.0005047276    
0.0288833540    0.0204819810    0.0005101401    
0.0291060150    0.0209884460    0.0005159187    
0.0293286760    0.0211351170    0.0005105041    
0.0295513370    0.0206049450    0.0004985716    
0.0297739980    0.0208885210    0.0005075175    
0.0299966590    0.0197164600    0.0004846519    
0.0302193200    0.0205650890    0.0005021854    
0.0304419810    0.0204192990    0.0005013230    
0.0306646420    0.0203987610    0.0004869285    
0.0308873030    0.0205686110    0.0004868396    
0.0311099640    0.0216137840    0.0005003513    
0.0313326250    0.0204692240    0.0004815288    
0.0315552860    0.0202012110    0.0004845655    
0.0317779470    0.0195727360    0.0004773838    
0.0320006080    0.0207507180    0.0004803716    
0.0322232690    0.0208687440    0.0004837524    
0.0324459300    0.0207792510    0.0004791103    
0.0326685910    0.0207107970    0.0004775319    
0.0328912520    0.0197398370    0.0004677477    
0.0331139130    0.0199638120    0.0004642747    
0.0333365740    0.0209521880    0.0004771730    
0.0335592350    0.0203166960    0.0004653628    
0.0337818960    0.0204546350    0.0004665681    
0.0340045570    0.0200820630    0.0004615651    
0.0342272170    0.0201344490    0.0004603438    
0.0344498780    0.0206655600    0.0004682230    
0.0346725390    0.0198663260    0.0004505774    
0.0348952000    0.0199287690    0.0004492291    
0.0351178610    0.0204284130    0.0004569074    
0.0353405220    0.0195338640    0.0004447562    
0.0355631830    0.0196784630    0.0004447181    
0.0357858440    0.0197689280    0.0004457393    
0.0360085050    0.0199997930    0.0004496891    
0.0362311660    0.0206229470    0.0004512129    
0.0364538270    0.0197880880    0.0004384381    
0.0366764880    0.0195750760    0.0004357555    
0.0368991490    0.0197335120    0.0004353098    
0.0371218100    0.0211770560    0.0004496606    
0.0373444710    0.0204016760    0.0004461581    
0.0375671320    0.0199336980    0.0004403692    
0.0377897930    0.0198935210    0.0004285367    
0.0380124540    0.0197606940    0.0004297835    
0.0382351150    0.0201533040    0.0004340321    
0.0384577760    0.0197479500    0.0004254996    
0.0386804370    0.0199574230    0.0004310147    
0.0389030980    0.0199130020    0.0004272744    
0.0391257590    0.0198153920    0.0004233324    
0.0393484200    0.0199786850    0.0004236425    
0.0395710810    0.0202126980    0.0004266904    
0.0397937420    0.0202127130    0.0004266907    
0.0400164030    0.0193876880    0.0004195919    
0.0402390640    0.0196439370    0.0004167317    
0.0404617250    0.0201554610    0.0004196323    
0.0406843860    0.0197421650    0.0004112951    
0.0409070470    0.0200419020    0.0004187226    
0.0411297080    0.0195873630    0.0004099426    
0.0413523690    0.0201369190    0.0004167250    
0.0415750300    0.0193577790    0.0004120542    
0.0417976910    0.0194014960    0.0004018501    
0.0420203520    0.0196062710    0.0004054831    
0.0422430130    0.0198648490    0.0004096934    
0.0424656740    0.0189148740    0.0003945740    
0.0426883350    0.0193691100    0.0004012654    
0.0429109960    0.0202515430    0.0004115861    
0.0431336570    0.0197743490    0.0004009779    
0.0433563180    0.0192236360    0.0003987654    
0.0435789790    0.0201149420    0.0004014966    
0.0438016400    0.0200508460    0.0004030372    
0.0440243010    0.0199397330    0.0003978410    
0.0442469620    0.0198982470    0.0003998083    
0.0444696230    0.0195484250    0.0003948572    
0.0446922840    0.0198447710    0.0003966575    
0.0449149450    0.0196804700    0.0003897314    
0.0451376060    0.0191176040    0.0003888617    
0.0453602670    0.0199967450    0.0003935330    
0.0455829280    0.0199505260    0.0003926234    
0.0458055890    0.0197539380    0.0003929625    
0.0460282500    0.0197000370    0.0003876939    
0.0462509110    0.0192221570    0.0003805808    
0.0464735720    0.0191986060    0.0003805623    
0.0466962330    0.0199977690    0.0003901679    
0.0469188940    0.0196801770    0.0003859600    
0.0471415550    0.0194240150    0.0003854092    
0.0473642160    0.0195678570    0.0003814172    
0.0475868770    0.0192561440    0.0003764874    
0.0478095380    0.0198541310    0.0003806156    
0.0480321990    0.0195161660    0.0003781890    
0.0482548600    0.0199639950    0.0003808370    
0.0484775210    0.0197473860    0.0003825260    
0.0487001820    0.0201663210    0.0003809036    
0.0489228430    0.0204033800    0.0003829300    
0.0491455040    0.0197819090    0.0003744452    
0.0493681650    0.0205127070    0.0003845757    
0.0495908260    0.0196958340    0.0003705001    
0.0498134870    0.0196251260    0.0003733550    
0.0500361480    0.0198181590    0.0003741941    
0.0502588090    0.0192904100    0.0003636465    
0.0504814700    0.0194955410    0.0003703540    
0.0507041310    0.0193919190    0.0003649769    
0.0509267920    0.0196565920    0.0003689793    
0.0511494530    0.0193133160    0.0003633045    
0.0513721140    0.0200375120    0.0003733122    
0.0515947750    0.0200108100    0.0003681170    
0.0518174360    0.0204328180    0.0003697377    
0.0520400970    0.0194246630    0.0003580013    
0.0522627580    0.0190583170    0.0003576229    
0.0524854190    0.0197991660    0.0003674713    
0.0527080800    0.0198783770    0.0003710564    
0.0529307410    0.0194293110    0.0003685642    
0.0531534020    0.0199613430    0.0003722162    
0.0533760630    0.0192623780    0.0003667860    
0.0535987240    0.0187715720    0.0003603925    
0.0538213850    0.0196338870    0.0003728476    
0.0540440460    0.0191258630    0.0003662507    
0.0542667070    0.0194828260    0.0003722003    
0.0544893680    0.0193825850    0.0003714393    
0.0547120290    0.0194479080    0.0003695158    
0.0549346900    0.0196581410    0.0003717031    
0.0551573510    0.0188790020    0.0003685506    
0.0553800120    0.0191888670    0.0003684041    
0.0556026730    0.0197054290    0.0003810704    
0.0558253340    0.0197295970    0.0003844968    
0.0560479950    0.0197296160    0.0003844972    
0.0562706560    0.0188525530    0.0003794876    
0.0564933170    0.0199974600    0.0003942348    
0.0567159780    0.0192249240    0.0003819103    
0.0569386390    0.0194962120    0.0003906280    
0.0571613000    0.0190703100    0.0003780192    
0.0573839610    0.0191749950    0.0003759080    
0.0576066220    0.0187922340    0.0003731675    
0.0578292830    0.0200593480    0.0003842674    
0.0580519440    0.0199852410    0.0003850442    
0.0582746050    0.0196034860    0.0003796673    
0.0584972660    0.0198769210    0.0003808426    
0.0587199270    0.0196217670    0.0003751285    
0.0589425880    0.0194921350    0.0003717004    
0.0591652490    0.0199301920    0.0003780656    
0.0593879100    0.0188792450    0.0003652300    
0.0596105710    0.0193329840    0.0003692030    
0.0598332320    0.0194067190    0.0003730682    
0.0600558930    0.0190750760    0.0003675086    
0.0602785540    0.0190983600    0.0003673441    
0.0605012150    0.0195386200    0.0003707712    
0.0607238760    0.0203573440    0.0003757016    
0.0609465370    0.0197635070    0.0003730956    
0.0611691980    0.0192256240    0.0003685668    
0.0613918590    0.0195269980    0.0003673891    
0.0616145200    0.0195613850    0.0003704037    
0.0618371810    0.0196053860    0.0003671781    
0.0620598420    0.0196802860    0.0003682581    
0.0622825030    0.0191858200    0.0003691629    
0.0625051640    0.0197486110    0.0003692781    
0.0627278250    0.0192753910    0.0003640757    
0.0629504860    0.0201539610    0.0003692540    
0.0631731470    0.0188876280    0.0003618877    
0.0633958080    0.0195264890    0.0003700748    
0.0636184690    0.0196343370    0.0003762638    
0.0638411300    0.0199523800    0.0003778751    
0.0640637910    0.0190147650    0.0003714842    
0.0642864520    0.0198358320    0.0003785988    
0.0645091130    0.0196408510    0.0003800348    
0.0647317740    0.0193009640    0.0003771475    
0.0649544350    0.0191629270    0.0003753830    
0.0651770960    0.0196308530    0.0003778659    
0.0653997570    0.0194516570    0.0003753216    
0.0656224180    0.0193181430    0.0003748447    
0.0658450790    0.0196924220    0.0003730188    
0.0660677400    0.0194328330    0.0003721290    
0.0662904010    0.0198339090    0.0003804377    
0.0665130620    0.0197924230    0.0003783911    
0.0667357230    0.0199704440    0.0003868469    
0.0669583840    0.0198519220    0.0003844068    
0.0671810450    0.0189486860    0.0003734864    
0.0674037060    0.0195276410    0.0003855725    
0.0676263670    0.0200379650    0.0003877186    
0.0678490280    0.0191192620    0.0003764101    
0.0680716890    0.0202093330    0.0003878529    
0.0682943500    0.0196598450    0.0003783539    
0.0685170110    0.0195822370    0.0003737585    
0.0687396720    0.0200530910    0.0003772205    
0.0689623330    0.0196935130    0.0003726385    
0.0691849940    0.0191595070    0.0003700982    
0.0694076550    0.0196032540    0.0003741597    
0.0696303160    0.0192519050    0.0003678559    
0.0698529770    0.0202631950    0.0003766029    
0.0700756380    0.0194802890    0.0003645157    
0.0702982990    0.0193910950    0.0003676409    
0.0705209600    0.0193250780    0.0003643648    
0.0707436210    0.0190254630    0.0003598689    
0.0709662820    0.0193632870    0.0003673779    
0.0711889430    0.0198357630    0.0003672660    
0.0714116040    0.0196710310    0.0003664844    
0.0716342650    0.0202972260    0.0003707604    
0.0718569260    0.0190188580    0.0003574493    
0.0720795870    0.0196877500    0.0003651519    
0.0723022480    0.0192790690    0.0003618927    
0.0725249090    0.0199275210    0.0003635223    
0.0727475700    0.0199118950    0.0003664835    
0.0729702310    0.0193034700    0.0003579630    
0.0731928920    0.0197458000    0.0003634880    
0.0734155530    0.0191872310    0.0003575950    
0.0736382140    0.0193299280    0.0003566189    
0.0738608750    0.0197271110    0.0003625915    
0.0740835360    0.0192313930    0.0003571180    
0.0743061970    0.0192673070    0.0003524180    
0.0745288580    0.0195010920    0.0003581953    
0.0747515190    0.0192347200    0.0003564431    
0.0749741800    0.0197166600    0.0003575404    
0.0751968410    0.0200999350    0.0003638333    
0.0754195020    0.0192011970    0.0003535227    
0.0756421630    0.0190998550    0.0003497063    
0.0758648240    0.0198094330    0.0003569992    
0.0760874850    0.0189548320    0.0003490459    
0.0763101460    0.0190211190    0.0003493202    
0.0765328070    0.0198837700    0.0003608081    
0.0767554680    0.0189948090    0.0003502575    
0.0769781290    0.0197284360    0.0003549061    
0.0772007900    0.0193944050    0.0003490665    
0.0774234510    0.0193996150    0.0003510991    
0.0776461120    0.0191598790    0.0003485920    
0.0778687730    0.0191343040    0.0003472084    
0.0780914340    0.0196643530    0.0003544997    
0.0783140950    0.0196085670    0.0003483800    
0.0785367560    0.0188975150    0.0003475194    
0.0787594170    0.0196337290    0.0003510504    
0.0789820780    0.0196194180    0.0003491243    
0.0792047390    0.0197229040    0.0003511883    
0.0794274000    0.0193354270    0.0003491947    
0.0796500610    0.0189103640    0.0003419646    
0.0798727220    0.0190915060    0.0003432814    
0.0800953830    0.0197349480    0.0003482156    
0.0803180440    0.0194626190    0.0003482136    
0.0805407050    0.0197000480    0.0003500054    
0.0807633660    0.0193469400    0.0003465324    
0.0809860270    0.0197526600    0.0003488541    
0.0812086880    0.0191099860    0.0003401668    
0.0814313490    0.0195474450    0.0003456073    
0.0816540100    0.0197261790    0.0003463933    
0.0818766710    0.0196391590    0.0003464176    
0.0820993320    0.0193484650    0.0003432176    
0.0823219930    0.0195575070    0.0003464899    
0.0825446540    0.0193529960    0.0003421693    
0.0827673150    0.0197802310    0.0003436015    
0.0829899760    0.0194660220    0.0003402548    
0.0832126370    0.0199468350    0.0003459740    
0.0834352980    0.0198457880    0.0003443250    
0.0836579590    0.0192103670    0.0003380138    
0.0838806200    0.0198873650    0.0003449944    
0.0841032810    0.0194757210    0.0003392859    
0.0843259420    0.0195615540    0.0003389856    
0.0845486030    0.0198083060    0.0003411171    
0.0847712640    0.0193819150    0.0003353694    
0.0849939250    0.0190127380    0.0003327385    
0.0852165860    0.0197398430    0.0003394854    
0.0854392470    0.0194250260    0.0003335782    
0.0856619080    0.0188925620    0.0003313974    
0.0858845690    0.0195870850    0.0003343947    
0.0861072300    0.0197658450    0.0003382362    
0.0863298910    0.0193475770    0.0003363906    
0.0865525520    0.0193712730    0.0003336900    
0.0867752130    0.0198630380    0.0003351725    
0.0869978740    0.0191003480    0.0003295123    
0.0872205350    0.0192955930    0.0003307708    
0.0874431960    0.0189270620    0.0003275971    
0.0876658570    0.0200097480    0.0003381299    
0.0878885180    0.0191324100    0.0003312010    
0.0881111790    0.0194321810    0.0003333572    
0.0883338400    0.0194892000    0.0003289580    
0.0885565010    0.0192398990    0.0003312795    
0.0887791620    0.0200722870    0.0003339820    
0.0890018230    0.0195117660    0.0003324796    
0.0892244840    0.0194701540    0.0003326895    
0.0894471450    0.0192440120    0.0003293547    
0.0896698060    0.0193452600    0.0003289744    
0.0898924670    0.0197057020    0.0003335640    
0.0901151280    0.0197685060    0.0003304865    
0.0903377890    0.0197131480    0.0003327854    
0.0905604500    0.0194324300    0.0003288911    
0.0907831110    0.0197734260    0.0003309389    
0.0910057720    0.0191783490    0.0003274167    
0.0912284330    0.0198224440    0.0003281034    
0.0914510940    0.0194007940    0.0003282147    
0.0916737550    0.0193211980    0.0003267279    
0.0918964160    0.0195769490    0.0003302510    
0.0921190770    0.0191205850    0.0003234280    
0.0923417380    0.0195469260    0.0003271481    
0.0925643990    0.0200616140    0.0003306161    
0.0927870600    0.0201111310    0.0003323813    
0.0930097210    0.0197484220    0.0003265652    
0.0932323820    0.0193110040    0.0003253021    
