# Diamond Light Source Ltd.
# Data extracted from: /dls/b21/data/2018/cm19678-3/processed/b21-386631_00498.dat
q(1/A)          Column          Error           
0.0035000000    2.1066368000    0.0247377830    
0.0037226610    1.9005460000    0.0230018860    
0.0039453220    1.6007429000    0.0192039990    
0.0041679830    1.2790770000    0.0140975620    
0.0043906440    0.9542861500    0.0116471670    
0.0046133050    0.7866883200    0.0101518740    
0.0048359660    0.6037770500    0.0084126113    
0.0050586270    0.4665574700    0.0072686965    
0.0052812880    0.4302342400    0.0065994920    
0.0055039490    0.3768977100    0.0058732749    
0.0057266100    0.3167614800    0.0052089347    
0.0059492710    0.2675084400    0.0047868685    
0.0061719320    0.2228686600    0.0042103184    
0.0063945930    0.1954684200    0.0039908139    
0.0066172539    0.1842742600    0.0036384883    
0.0068399149    0.1713472400    0.0034532904    
0.0070625759    0.1499881600    0.0031977582    
0.0072852369    0.1257538100    0.0028842314    
0.0075078979    0.1139094800    0.0027315559    
0.0077305589    0.1033079200    0.0025517854    
0.0079532199    0.0981966350    0.0024533830    
0.0081758809    0.0921019650    0.0023981309    
0.0083985419    0.0839779160    0.0021357989    
0.0086212029    0.0785459810    0.0020655695    
0.0088438639    0.0753650430    0.0020070602    
0.0090665249    0.0653670400    0.0018053336    
0.0092891859    0.0652377370    0.0018824670    
0.0095118469    0.0615383020    0.0017582372    
0.0097345079    0.0582837030    0.0016618606    
0.0099571689    0.0514505840    0.0015292099    
0.0101798300    0.0499052570    0.0015060699    
0.0104024910    0.0479880300    0.0014718593    
0.0106251520    0.0494507650    0.0014991965    
0.0108478130    0.0435793740    0.0013705832    
0.0110704740    0.0435652660    0.0013046768    
0.0112931350    0.0432713160    0.0013040866    
0.0115157960    0.0386506170    0.0012253069    
0.0117384570    0.0383698320    0.0012103386    
0.0119611180    0.0387055510    0.0012191103    
0.0121837790    0.0367472420    0.0011679040    
0.0124064400    0.0355541580    0.0011009009    
0.0126291010    0.0345035320    0.0010709394    
0.0128517620    0.0364466080    0.0011034299    
0.0130744230    0.0334395270    0.0010490913    
0.0132970840    0.0327873770    0.0010337314    
0.0135197450    0.0349582180    0.0010521187    
0.0137424060    0.0305124220    0.0009692590    
0.0139650670    0.0295214680    0.0009321536    
0.0141877280    0.0300955530    0.0009432535    
0.0144103890    0.0307512620    0.0009370334    
0.0146330500    0.0287833010    0.0009007987    
0.0148557110    0.0291015520    0.0009019673    
0.0150783720    0.0281551030    0.0008798470    
0.0153010330    0.0283288800    0.0008701146    
0.0155236940    0.0286267760    0.0008694764    
0.0157463550    0.0272354000    0.0008333897    
0.0159690160    0.0264469920    0.0008181221    
0.0161916770    0.0258245330    0.0008038826    
0.0164143380    0.0249470900    0.0007960937    
0.0166369990    0.0250789280    0.0007735842    
0.0168596600    0.0252484810    0.0007693561    
0.0170823210    0.0243293480    0.0007486839    
0.0173049820    0.0242979460    0.0007494941    
0.0175276430    0.0247894950    0.0007650204    
0.0177503040    0.0232278200    0.0007216532    
0.0179729650    0.0244836800    0.0007335574    
0.0181956260    0.0243573830    0.0007176363    
0.0184182870    0.0239188780    0.0007077954    
0.0186409480    0.0242014070    0.0007164696    
0.0188636090    0.0244634570    0.0007158078    
0.0190862700    0.0233848100    0.0006987549    
0.0193089310    0.0227707970    0.0006884455    
0.0195315920    0.0230546420    0.0006691647    
0.0197542530    0.0231608230    0.0006716810    
0.0199769140    0.0219531180    0.0006539345    
0.0201995750    0.0213464620    0.0006347382    
0.0204222360    0.0231352670    0.0006664706    
0.0206448970    0.0212366020    0.0006339990    
0.0208675580    0.0225315460    0.0006395951    
0.0210902190    0.0218579740    0.0006360408    
0.0213128800    0.0217010380    0.0006251539    
0.0215355410    0.0218376310    0.0006196475    
0.0217582020    0.0220134660    0.0006221373    
0.0219808630    0.0217101850    0.0006170256    
0.0222035240    0.0220073200    0.0006156044    
0.0224261850    0.0212451970    0.0005994679    
0.0226488460    0.0213272070    0.0005961135    
0.0228715070    0.0206576810    0.0005852246    
0.0230941680    0.0215032280    0.0005970816    
0.0233168290    0.0213272330    0.0005961143    
0.0235394900    0.0212827830    0.0005889207    
0.0237621510    0.0218033660    0.0005800327    
0.0239848120    0.0205546790    0.0005638300    
0.0242074730    0.0217793420    0.0005757381    
0.0244301340    0.0217680590    0.0005762457    
0.0246527950    0.0205260030    0.0005647457    
0.0248754560    0.0214993960    0.0005649916    
0.0250981170    0.0206558070    0.0005550310    
0.0253207780    0.0215041570    0.0005494055    
0.0255434390    0.0197719340    0.0005324355    
0.0257661000    0.0213142720    0.0005546005    
0.0259887610    0.0203692630    0.0005364048    
0.0262114220    0.0206868290    0.0005434502    
0.0264340830    0.0198499190    0.0005251007    
0.0266567440    0.0206480640    0.0005322444    
0.0268794050    0.0206839800    0.0005305329    
0.0271020660    0.0200309210    0.0005199768    
0.0273247270    0.0211513400    0.0005311122    
0.0275473880    0.0200311550    0.0005158285    
0.0277700490    0.0211077100    0.0005263784    
0.0279927100    0.0206635920    0.0005162672    
0.0282153710    0.0197970060    0.0005077825    
0.0284380320    0.0206752940    0.0005159159    
0.0286606930    0.0197154760    0.0004994862    
0.0288833540    0.0204763830    0.0005100006    
0.0291060150    0.0199684390    0.0005031574    
0.0293286760    0.0204020170    0.0005015037    
0.0295513370    0.0203460420    0.0004953617    
0.0297739980    0.0190583390    0.0004847081    
0.0299966590    0.0199492710    0.0004874383    
0.0302193200    0.0210743740    0.0005082961    
0.0304419810    0.0199215240    0.0004951071    
0.0306646420    0.0196030210    0.0004772715    
0.0308873030    0.0199869950    0.0004798415    
0.0311099640    0.0201951430    0.0004835860    
0.0313326250    0.0201465390    0.0004776530    
0.0315552860    0.0199632880    0.0004816377    
0.0317779470    0.0202774460    0.0004858354    
0.0320006080    0.0209229240    0.0004822948    
0.0322232690    0.0206724590    0.0004814062    
0.0324459300    0.0202655510    0.0004730863    
0.0326685910    0.0206500980    0.0004767665    
0.0328912520    0.0188812400    0.0004573995    
0.0331139130    0.0198612080    0.0004630168    
0.0333365740    0.0196536040    0.0004620861    
0.0335592350    0.0193200950    0.0004537434    
0.0337818960    0.0200447440    0.0004618065    
0.0340045570    0.0206174640    0.0004676136    
0.0342272170    0.0196975360    0.0004552595    
0.0344498780    0.0200978090    0.0004616832    
0.0346725390    0.0204228030    0.0004567820    
0.0348952000    0.0204092560    0.0004545503    
0.0351178610    0.0197587550    0.0004492948    
0.0353405220    0.0201258200    0.0004513832    
0.0355631830    0.0191606600    0.0004387682    
0.0357858440    0.0206276130    0.0004552548    
0.0360085050    0.0197214010    0.0004464873    
0.0362311660    0.0190875430    0.0004340321    
0.0364538270    0.0202488390    0.0004434525    
0.0366764880    0.0203261370    0.0004439757    
0.0368991490    0.0190849150    0.0004280377    
0.0371218100    0.0197203970    0.0004338609    
0.0373444710    0.0200351920    0.0004420723    
0.0375671320    0.0201033150    0.0004421783    
0.0377897930    0.0202295490    0.0004320818    
0.0380124540    0.0206711010    0.0004395123    
0.0382351150    0.0195216810    0.0004271181    
0.0384577760    0.0199258620    0.0004273536    
0.0386804370    0.0204451840    0.0004361903    
0.0389030980    0.0196234270    0.0004240983    
0.0391257590    0.0196201040    0.0004211836    
0.0393484200    0.0204492040    0.0004285435    
0.0395710810    0.0193877200    0.0004178349    
0.0397937420    0.0199820630    0.0004241912    
0.0400164030    0.0194005450    0.0004196736    
0.0402390640    0.0194618020    0.0004147385    
0.0404617250    0.0191804480    0.0004093008    
0.0406843860    0.0194883450    0.0004085867    
0.0409070470    0.0198352730    0.0004165016    
0.0411297080    0.0199251020    0.0004134052    
0.0413523690    0.0189588790    0.0004042965    
0.0415750300    0.0196681600    0.0004152877    
0.0417976910    0.0193462660    0.0004012229    
0.0420203520    0.0201290790    0.0004107975    
0.0422430130    0.0201719670    0.0004127918    
0.0424656740    0.0197572670    0.0004032095    
0.0426883350    0.0193139510    0.0004006389    
0.0429109960    0.0193930160    0.0004027124    
0.0431336570    0.0191430360    0.0003944713    
0.0433563180    0.0198634050    0.0004052912    
0.0435789790    0.0198771040    0.0003990614    
0.0438016400    0.0199400770    0.0004018674    
0.0440243010    0.0199104760    0.0003974947    
0.0442469620    0.0194912570    0.0003956444    
0.0444696230    0.0197902600    0.0003972379    
0.0446922840    0.0198393470    0.0003965491    
0.0449149450    0.0194821970    0.0003877102    
0.0451376060    0.0199347560    0.0003970311    
0.0453602670    0.0202932390    0.0003963856    
0.0455829280    0.0196747090    0.0003898467    
0.0458055890    0.0199908040    0.0003952574    
0.0460282500    0.0190844390    0.0003815362    
0.0462509110    0.0197743510    0.0003859558    
0.0464735720    0.0198193110    0.0003866125    
0.0466962330    0.0197944350    0.0003881262    
0.0469188940    0.0198791130    0.0003878528    
0.0471415550    0.0195868990    0.0003869690    
0.0473642160    0.0201794110    0.0003872787    
0.0475868770    0.0194716480    0.0003785365    
0.0478095380    0.0199435340    0.0003814195    
0.0480321990    0.0195547920    0.0003785114    
0.0482548600    0.0200093790    0.0003812175    
0.0484775210    0.0198605140    0.0003835677    
0.0487001820    0.0195278620    0.0003747743    
0.0489228430    0.0195428050    0.0003747162    
0.0491455040    0.0197977590    0.0003745440    
0.0493681650    0.0192240540    0.0003722489    
0.0495908260    0.0195720010    0.0003692830    
0.0498134870    0.0197262760    0.0003742648    
0.0500361480    0.0191205320    0.0003674987    
0.0502588090    0.0197785730    0.0003681686    
0.0504814700    0.0193003040    0.0003684445    
0.0507041310    0.0203205830    0.0003735628    
0.0509267920    0.0195542790    0.0003679675    
0.0511494530    0.0198819490    0.0003685636    
0.0513721140    0.0197678150    0.0003707407    
0.0515947750    0.0196194500    0.0003644497    
0.0518174360    0.0194573740    0.0003607550    
0.0520400970    0.0197623580    0.0003610504    
0.0522627580    0.0197776620    0.0003642598    
0.0524854190    0.0196505680    0.0003660396    
0.0527080800    0.0192635990    0.0003652236    
0.0529307410    0.0197035830    0.0003711057    
0.0531534020    0.0196297640    0.0003690614    
0.0533760630    0.0195992440    0.0003699288    
0.0535987240    0.0195965090    0.0003681759    
0.0538213850    0.0196780690    0.0003732159    
0.0540440460    0.0202565150    0.0003768695    
0.0542667070    0.0199324490    0.0003764191    
0.0544893680    0.0202098770    0.0003792316    
0.0547120290    0.0199128640    0.0003738557    
0.0549346900    0.0192592900    0.0003678627    
0.0551573510    0.0197369750    0.0003767806    
0.0553800120    0.0199331470    0.0003754294    
0.0556026730    0.0201347110    0.0003851462    
0.0558253340    0.0206231420    0.0003930536    
0.0560479950    0.0193496650    0.0003807249    
0.0562706560    0.0195194300    0.0003860884    
0.0564933170    0.0194325600    0.0003885735    
0.0567159780    0.0198112770    0.0003876376    
0.0569386390    0.0194048130    0.0003896580    
0.0571613000    0.0192448860    0.0003796936    
0.0573839610    0.0197444040    0.0003813964    
0.0576066220    0.0196908930    0.0003819337    
0.0578292830    0.0195240010    0.0003790532    
0.0580519440    0.0205137590    0.0003900490    
0.0582746050    0.0200318450    0.0003837406    
0.0584972660    0.0196015740    0.0003781439    
0.0587199270    0.0199748910    0.0003784372    
0.0589425880    0.0192671370    0.0003694984    
0.0591652490    0.0194945590    0.0003738598    
0.0593879100    0.0190789310    0.0003671062    
0.0596105710    0.0198563560    0.0003741159    
0.0598332320    0.0195878290    0.0003747537    
0.0600558930    0.0199900860    0.0003761684    
0.0602785540    0.0199549080    0.0003754400    
0.0605012150    0.0193503970    0.0003689305    
0.0607238760    0.0196031440    0.0003686261    
0.0609465370    0.0202650840    0.0003777487    
0.0611691980    0.0204635820    0.0003801959    
0.0613918590    0.0199224590    0.0003710399    
0.0616145200    0.0197173100    0.0003718262    
0.0618371810    0.0200743880    0.0003714932    
0.0620598420    0.0190962330    0.0003627030    
0.0622825030    0.0192373860    0.0003696082    
0.0625051640    0.0195706330    0.0003675601    
0.0627278250    0.0189401310    0.0003608462    
0.0629504860    0.0197155890    0.0003651661    
0.0631731470    0.0194786070    0.0003674555    
0.0633958080    0.0196684020    0.0003713664    
0.0636184690    0.0204002880    0.0003834803    
0.0638411300    0.0198825350    0.0003771616    
0.0640637910    0.0194666680    0.0003758212    
0.0642864520    0.0195486660    0.0003757969    
0.0645091130    0.0203926730    0.0003871871    
0.0647317740    0.0191409690    0.0003755298    
0.0649544350    0.0191944450    0.0003756403    
0.0651770960    0.0203308130    0.0003844910    
0.0653997570    0.0196707770    0.0003773781    
0.0656224180    0.0200327310    0.0003816624    
0.0658450790    0.0196164010    0.0003722472    
0.0660677400    0.0195343840    0.0003730491    
0.0662904010    0.0199014400    0.0003810328    
0.0665130620    0.0200112080    0.0003804247    
0.0667357230    0.0202421730    0.0003894166    
0.0669583840    0.0192437340    0.0003784209    
0.0671810450    0.0193409220    0.0003772806    
0.0674037060    0.0195527470    0.0003857676    
0.0676263670    0.0189299890    0.0003767955    
0.0678490280    0.0198400730    0.0003833875    
0.0680716890    0.0204121720    0.0003897412    
0.0682943500    0.0190866750    0.0003727468    
0.0685170110    0.0201189030    0.0003787937    
0.0687396720    0.0194517150    0.0003714704    
0.0689623330    0.0195682950    0.0003714012    
0.0691849940    0.0193543890    0.0003719248    
0.0694076550    0.0196264530    0.0003743298    
0.0696303160    0.0200617610    0.0003754620    
0.0698529770    0.0198657990    0.0003728407    
0.0700756380    0.0205046280    0.0003739256    
0.0702982990    0.0196784630    0.0003703044    
0.0705209600    0.0195258370    0.0003662024    
0.0707436210    0.0196667470    0.0003658336    
0.0709662820    0.0190583570    0.0003644238    
0.0711889430    0.0201362600    0.0003699868    
0.0714116040    0.0197066100    0.0003667655    
0.0716342650    0.0195807590    0.0003641081    
0.0718569260    0.0200748250    0.0003671883    
0.0720795870    0.0191339440    0.0003599303    
0.0723022480    0.0192058860    0.0003611558    
0.0725249090    0.0194513700    0.0003591039    
0.0727475700    0.0194546460    0.0003622016    
0.0729702310    0.0195968240    0.0003606235    
0.0731928920    0.0197738500    0.0003636964    
0.0734155530    0.0193019160    0.0003586131    
0.0736382140    0.0197587580    0.0003605037    
0.0738608750    0.0196550910    0.0003618796    
0.0740835360    0.0200415900    0.0003645131    
0.0743061970    0.0191202650    0.0003510226    
0.0745288580    0.0192063510    0.0003554295    
0.0747515190    0.0200945240    0.0003642728    
0.0749741800    0.0200223990    0.0003602526    
0.0751968410    0.0196928150    0.0003600805    
0.0754195020    0.0194952760    0.0003561709    
0.0756421630    0.0196835400    0.0003549610    
0.0758648240    0.0194566930    0.0003537580    
0.0760874850    0.0187568770    0.0003471710    
0.0763101460    0.0188684110    0.0003478676    
0.0765328070    0.0196427010    0.0003585653    
0.0767554680    0.0196740440    0.0003564162    
0.0769781290    0.0194804940    0.0003526206    
0.0772007900    0.0197219900    0.0003519540    
0.0774234510    0.0189305770    0.0003467813    
0.0776461120    0.0196428600    0.0003529100    
0.0778687730    0.0197463440    0.0003526695    
0.0780914340    0.0193970280    0.0003520338    
0.0783140950    0.0194732630    0.0003471286    
0.0785367560    0.0192756910    0.0003509315    
0.0787594170    0.0195028610    0.0003498306    
0.0789820780    0.0189991760    0.0003435145    
0.0792047390    0.0189610710    0.0003442918    
0.0794274000    0.0193553610    0.0003493269    
0.0796500610    0.0191092080    0.0003437108    
0.0798727220    0.0191850200    0.0003440740    
0.0800953830    0.0195022830    0.0003461096    
0.0803180440    0.0198808250    0.0003518868    
0.0805407050    0.0193403090    0.0003467475    
0.0807633660    0.0191679060    0.0003448782    
0.0809860270    0.0193345770    0.0003450953    
0.0812086880    0.0190321210    0.0003394266    
0.0814313490    0.0189923090    0.0003406178    
0.0816540100    0.0193011960    0.0003425948    
0.0818766710    0.0195665940    0.0003457298    
0.0820993320    0.0190388470    0.0003404139    
0.0823219930    0.0196564880    0.0003473181    
0.0825446540    0.0198073570    0.0003461154    
0.0827673150    0.0195003390    0.0003411153    
0.0829899760    0.0197044800    0.0003422857    
0.0832126370    0.0184175820    0.0003324018    
0.0834352980    0.0193446530    0.0003399034    
0.0836579590    0.0198948350    0.0003439358    
0.0838806200    0.0199537270    0.0003455223    
0.0841032810    0.0201026690    0.0003446566    
0.0843259420    0.0193036800    0.0003366978    
0.0845486030    0.0192156180    0.0003359292    
0.0847712640    0.0193476100    0.0003350267    
0.0849939250    0.0187455680    0.0003303472    
0.0852165860    0.0196235470    0.0003384376    
0.0854392470    0.0197862340    0.0003366194    
0.0856619080    0.0194104330    0.0003358629    
0.0858845690    0.0188740270    0.0003282067    
0.0861072300    0.0196852190    0.0003374995    
0.0863298910    0.0193656770    0.0003365019    
0.0865525520    0.0190843950    0.0003311646    
0.0867752130    0.0198463000    0.0003349855    
0.0869978740    0.0199134900    0.0003364072    
0.0872205350    0.0194603780    0.0003321348    
0.0874431960    0.0199365730    0.0003361742    
0.0876658570    0.0196215580    0.0003347882    
0.0878885180    0.0197003650    0.0003360350    
0.0881111790    0.0190895580    0.0003303602    
0.0883338400    0.0193950570    0.0003281177    
0.0885565010    0.0191719120    0.0003306485    
0.0887791620    0.0195501310    0.0003295642    
0.0890018230    0.0193591710    0.0003311317    
0.0892244840    0.0199649500    0.0003368443    
0.0894471450    0.0185963330    0.0003237206    
0.0896698060    0.0191386310    0.0003271680    
0.0898924670    0.0186390950    0.0003243667    
0.0901151280    0.0184208900    0.0003189794    
0.0903377890    0.0193876280    0.0003299813    
0.0905604500    0.0191544380    0.0003264856    
0.0907831110    0.0195409930    0.0003289431    
0.0910057720    0.0197375140    0.0003321101    
0.0912284330    0.0197410150    0.0003273841    
0.0914510940    0.0199894570    0.0003331113    
0.0916737550    0.0192772520    0.0003263115    
0.0918964160    0.0196941290    0.0003311926    
0.0921190770    0.0192138070    0.0003241711    
0.0923417380    0.0191474670    0.0003237438    
0.0925643990    0.0189612670    0.0003213774    
0.0927870600    0.0191884960    0.0003246232    
0.0930097210    0.0191275720    0.0003213470    
0.0932323820    0.0198973880    0.0003301590    
