# Diamond Light Source Ltd.
# Data extracted from: /dls/b21/data/2018/cm19678-3/processed/b21-386631_00501.dat
q(1/A)          Column          Error           
0.0035000000    2.0811133000    0.0245877020    
0.0037226610    1.8593803000    0.0227516290    
0.0039453220    1.6196656000    0.0193173570    
0.0041679830    1.3212098000    0.0143280050    
0.0043906440    0.9551572900    0.0116525930    
0.0046133050    0.7932537300    0.0101942450    
0.0048359660    0.5729603000    0.0081951882    
0.0050586270    0.4687180000    0.0072855765    
0.0052812880    0.4244721300    0.0065552122    
0.0055039490    0.3647319100    0.0057777614    
0.0057266100    0.3153969800    0.0051977530    
0.0059492710    0.2663999700    0.0047769862    
0.0061719320    0.2169869000    0.0041544289    
0.0063945930    0.1982424900    0.0040190711    
0.0066172539    0.1788895300    0.0035849678    
0.0068399149    0.1705849300    0.0034456329    
0.0070625759    0.1484229300    0.0031810594    
0.0072852369    0.1270131100    0.0028986644    
0.0075078979    0.1133221200    0.0027245303    
0.0077305589    0.1000322100    0.0025110272    
0.0079532199    0.0951336350    0.0024148393    
0.0081758809    0.0929154820    0.0024087217    
0.0083985419    0.0844684020    0.0021420474    
0.0086212029    0.0760487340    0.0020324879    
0.0088438639    0.0716783330    0.0019573726    
0.0090665249    0.0650192560    0.0018005418    
0.0092891859    0.0636636850    0.0018596361    
0.0095118469    0.0621423110    0.0017668617    
0.0097345079    0.0551099500    0.0016159956    
0.0099571689    0.0519515360    0.0015366511    
0.0101798300    0.0499516610    0.0015067843    
0.0104024910    0.0481243790    0.0014739629    
0.0106251520    0.0457246490    0.0014416220    
0.0108478130    0.0453906590    0.0013987893    
0.0110704740    0.0455197340    0.0013336343    
0.0112931350    0.0436258640    0.0013094308    
0.0115157960    0.0423805300    0.0012830808    
0.0117384570    0.0405849840    0.0012447976    
0.0119611180    0.0390134820    0.0012239618    
0.0121837790    0.0395689970    0.0012119270    
0.0124064400    0.0349071450    0.0010908483    
0.0126291010    0.0334737180    0.0010548464    
0.0128517620    0.0320709540    0.0010350856    
0.0130744230    0.0313995250    0.0010165972    
0.0132970840    0.0318754140    0.0010192633    
0.0135197450    0.0324572970    0.0010137956    
0.0137424060    0.0307285350    0.0009726948    
0.0139650670    0.0302578740    0.0009437172    
0.0141877280    0.0299187430    0.0009404876    
0.0144103890    0.0290957600    0.0009114705    
0.0146330500    0.0295168370    0.0009122135    
0.0148557110    0.0285989000    0.0008941523    
0.0150783720    0.0288980250    0.0008913880    
0.0153010330    0.0268862240    0.0008476778    
0.0155236940    0.0269635560    0.0008438481    
0.0157463550    0.0266238760    0.0008239883    
0.0159690160    0.0276116920    0.0008359507    
0.0161916770    0.0257749770    0.0008031186    
0.0164143380    0.0263448330    0.0008180994    
0.0166369990    0.0263918400    0.0007935825    
0.0168596600    0.0241939920    0.0007531261    
0.0170823210    0.0251361980    0.0007610045    
0.0173049820    0.0240903350    0.0007462923    
0.0175276430    0.0257343470    0.0007794709    
0.0177503040    0.0254927940    0.0007560268    
0.0179729650    0.0226159670    0.0007050298    
0.0181956260    0.0246538630    0.0007219975    
0.0184182870    0.0237308270    0.0007050143    
0.0186409480    0.0235443240    0.0007066831    
0.0188636090    0.0232700500    0.0006981364    
0.0190862700    0.0235731730    0.0007015701    
0.0193089310    0.0234581150    0.0006987650    
0.0195315920    0.0234823870    0.0006753503    
0.0197542530    0.0219340490    0.0006536565    
0.0199769140    0.0227911600    0.0006663057    
0.0201995750    0.0218753510    0.0006425594    
0.0204222360    0.0221949210    0.0006527918    
0.0206448970    0.0221455420    0.0006474308    
0.0208675580    0.0230403530    0.0006467826    
0.0210902190    0.0224691670    0.0006448781    
0.0213128800    0.0210891280    0.0006162830    
0.0215355410    0.0213984730    0.0006133911    
0.0217582020    0.0200270100    0.0005934092    
0.0219808630    0.0219035050    0.0006197726    
0.0222035240    0.0213878040    0.0006068836    
0.0224261850    0.0216684840    0.0006054161    
0.0226488460    0.0212609650    0.0005951927    
0.0228715070    0.0213544140    0.0005950175    
0.0230941680    0.0214870590    0.0005968628    
0.0233168290    0.0211443550    0.0005935586    
0.0235394900    0.0208757770    0.0005832679    
0.0237621510    0.0203069900    0.0005597803    
0.0239848120    0.0209417350    0.0005691193    
0.0242074730    0.0199077030    0.0005504493    
0.0244301340    0.0206548800    0.0005613236    
0.0246527950    0.0211790120    0.0005736642    
0.0248754560    0.0213513270    0.0005630480    
0.0250981170    0.0209097420    0.0005584376    
0.0253207780    0.0211957540    0.0005454569    
0.0255434390    0.0206182620    0.0005437166    
0.0257661000    0.0208961780    0.0005491394    
0.0259887610    0.0204967850    0.0005380864    
0.0262114220    0.0212868530    0.0005512805    
0.0264340830    0.0212394020    0.0005431735    
0.0266567440    0.0208816960    0.0005352522    
0.0268794050    0.0209429290    0.0005338486    
0.0271020660    0.0213271290    0.0005365422    
0.0273247270    0.0208450030    0.0005272571    
0.0275473880    0.0203769090    0.0005202662    
0.0277700490    0.0196772760    0.0005082345    
0.0279927100    0.0203157170    0.0005119080    
0.0282153710    0.0194587440    0.0005034305    
0.0284380320    0.0206370660    0.0005154436    
0.0286606930    0.0211584750    0.0005174474    
0.0288833540    0.0210356930    0.0005169239    
0.0291060150    0.0208816800    0.0005145394    
0.0293286760    0.0196134310    0.0004917207    
0.0295513370    0.0200810940    0.0004921305    
0.0297739980    0.0198846620    0.0004951092    
0.0299966590    0.0205689840    0.0004949561    
0.0302193200    0.0204495210    0.0005007087    
0.0304419810    0.0202418360    0.0004990763    
0.0306646420    0.0198939020    0.0004808040    
0.0308873030    0.0199297760    0.0004791587    
0.0311099640    0.0195238880    0.0004754858    
0.0313326250    0.0198638010    0.0004742939    
0.0315552860    0.0197777430    0.0004793988    
0.0317779470    0.0203942380    0.0004872372    
0.0320006080    0.0203563250    0.0004757242    
0.0322232690    0.0196975070    0.0004699216    
0.0324459300    0.0205089080    0.0004759229    
0.0326685910    0.0195937510    0.0004644164    
0.0328912520    0.0199896750    0.0004706385    
0.0331139130    0.0208006940    0.0004738457    
0.0333365740    0.0200233730    0.0004664172    
0.0335592350    0.0206205720    0.0004687705    
0.0337818960    0.0196940170    0.0004577529    
0.0340045570    0.0199921090    0.0004604717    
0.0342272170    0.0201714190    0.0004607076    
0.0344498780    0.0202572810    0.0004635157    
0.0346725390    0.0208522950    0.0004615645    
0.0348952000    0.0201059310    0.0004511641    
0.0351178610    0.0197591320    0.0004493033    
0.0353405220    0.0199945930    0.0004499135    
0.0355631830    0.0193820750    0.0004413002    
0.0357858440    0.0207385320    0.0004564815    
0.0360085050    0.0194084120    0.0004429344    
0.0362311660    0.0190484280    0.0004335912    
0.0364538270    0.0194042940    0.0004341103    
0.0366764880    0.0199289160    0.0004396203    
0.0368991490    0.0198052970    0.0004360454    
0.0371218100    0.0199021350    0.0004358596    
0.0373444710    0.0199185220    0.0004407875    
0.0375671320    0.0200258900    0.0004413302    
0.0377897930    0.0208667350    0.0004388380    
0.0380124540    0.0199799530    0.0004321063    
0.0382351150    0.0198771700    0.0004309936    
0.0384577760    0.0202745390    0.0004310805    
0.0386804370    0.0194312050    0.0004252404    
0.0389030980    0.0209528300    0.0004382325    
0.0391257590    0.0198555620    0.0004237074    
0.0393484200    0.0190036630    0.0004131231    
0.0395710810    0.0197212800    0.0004214180    
0.0397937420    0.0199824440    0.0004241993    
0.0400164030    0.0205902090    0.0004323537    
0.0402390640    0.0197096490    0.0004173750    
0.0404617250    0.0198358960    0.0004162395    
0.0406843860    0.0198056760    0.0004119038    
0.0409070470    0.0197219540    0.0004153141    
0.0411297080    0.0199941020    0.0004141243    
0.0413523690    0.0206404820    0.0004218497    
0.0415750300    0.0194405450    0.0004128817    
0.0417976910    0.0189389000    0.0003969800    
0.0420203520    0.0193581550    0.0004028580    
0.0422430130    0.0194120870    0.0004049461    
0.0424656740    0.0199798240    0.0004054780    
0.0426883350    0.0199459410    0.0004071448    
0.0429109960    0.0201376770    0.0004103752    
0.0431336570    0.0197693210    0.0004008759    
0.0433563180    0.0198885930    0.0004055520    
0.0435789790    0.0194047810    0.0003942954    
0.0438016400    0.0197865700    0.0004003214    
0.0440243010    0.0200457640    0.0003988466    
0.0442469620    0.0197727200    0.0003984946    
0.0444696230    0.0194637170    0.0003939507    
0.0446922840    0.0194671850    0.0003928158    
0.0449149450    0.0201307010    0.0003941140    
0.0451376060    0.0205044850    0.0004026685    
0.0453602670    0.0191012490    0.0003845716    
0.0455829280    0.0204475650    0.0003974336    
0.0458055890    0.0193268960    0.0003886423    
0.0460282500    0.0200077680    0.0003906605    
0.0462509110    0.0196541960    0.0003847851    
0.0464735720    0.0199403570    0.0003877950    
0.0466962330    0.0193153530    0.0003834042    
0.0469188940    0.0195086910    0.0003842259    
0.0471415550    0.0198013410    0.0003890852    
0.0473642160    0.0196520740    0.0003821885    
0.0475868770    0.0201343330    0.0003849277    
0.0478095380    0.0196156500    0.0003782747    
0.0480321990    0.0198042750    0.0003809219    
0.0482548600    0.0199153400    0.0003803242    
0.0484775210    0.0200386850    0.0003852881    
0.0487001820    0.0193196450    0.0003727745    
0.0489228430    0.0186881640    0.0003664346    
0.0491455040    0.0191037140    0.0003679238    
0.0493681650    0.0199740800    0.0003794447    
0.0495908260    0.0200740510    0.0003739929    
0.0498134870    0.0198189650    0.0003751466    
0.0500361480    0.0199755800    0.0003756295    
0.0502588090    0.0203683440    0.0003736210    
0.0504814700    0.0193147390    0.0003685858    
0.0507041310    0.0196410860    0.0003672675    
0.0509267920    0.0192499760    0.0003650966    
0.0511494530    0.0195202100    0.0003651988    
0.0513721140    0.0199837440    0.0003727636    
0.0515947750    0.0196401340    0.0003646453    
0.0518174360    0.0195982100    0.0003620617    
0.0520400970    0.0197363490    0.0003608162    
0.0522627580    0.0196572780    0.0003631529    
0.0524854190    0.0193509290    0.0003632416    
0.0527080800    0.0192293440    0.0003649022    
0.0529307410    0.0198926800    0.0003728858    
0.0531534020    0.0190125770    0.0003632166    
0.0533760630    0.0195577230    0.0003695402    
0.0535987240    0.0195899650    0.0003681180    
0.0538213850    0.0192608080    0.0003692413    
0.0540440460    0.0194014700    0.0003688332    
0.0542667070    0.0197906550    0.0003750814    
0.0544893680    0.0195555630    0.0003730456    
0.0547120290    0.0191060450    0.0003662071    
0.0549346900    0.0194564000    0.0003697439    
0.0551573510    0.0197445440    0.0003768564    
0.0553800120    0.0197496780    0.0003737013    
0.0556026730    0.0193762530    0.0003778261    
0.0558253340    0.0192301550    0.0003795507    
0.0560479950    0.0196272130    0.0003834493    
0.0562706560    0.0204438620    0.0003951289    
0.0564933170    0.0191221280    0.0003854610    
0.0567159780    0.0196068640    0.0003856362    
0.0569386390    0.0195382020    0.0003909987    
0.0571613000    0.0197771380    0.0003849120    
0.0573839610    0.0191553850    0.0003756680    
0.0576066220    0.0197801680    0.0003828021    
0.0578292830    0.0190386560    0.0003743157    
0.0580519440    0.0195203340    0.0003804909    
0.0582746050    0.0197161220    0.0003807081    
0.0584972660    0.0189016180    0.0003713345    
0.0587199270    0.0201258390    0.0003798681    
0.0589425880    0.0193383670    0.0003701843    
0.0591652490    0.0194160620    0.0003731099    
0.0593879100    0.0199975870    0.0003758440    
0.0596105710    0.0194408500    0.0003701844    
0.0598332320    0.0195451820    0.0003743491    
0.0600558930    0.0190631480    0.0003673469    
0.0602785540    0.0199129060    0.0003750482    
0.0605012150    0.0194281410    0.0003696744    
0.0607238760    0.0195896540    0.0003685027    
0.0609465370    0.0194979460    0.0003705334    
0.0611691980    0.0195103530    0.0003712387    
0.0613918590    0.0191212260    0.0003635056    
0.0616145200    0.0191917880    0.0003668411    
0.0618371810    0.0196829000    0.0003678565    
0.0620598420    0.0196752820    0.0003681645    
0.0622825030    0.0200899240    0.0003777129    
0.0625051640    0.0192672580    0.0003647036    
0.0627278250    0.0196004880    0.0003670864    
0.0629504860    0.0196077470    0.0003641695    
0.0631731470    0.0197008040    0.0003695489    
0.0633958080    0.0193181750    0.0003680487    
0.0636184690    0.0192833260    0.0003728379    
0.0638411300    0.0203837430    0.0003818895    
0.0640637910    0.0198515910    0.0003795223    
0.0642864520    0.0193901040    0.0003742733    
0.0645091130    0.0194814760    0.0003784416    
0.0647317740    0.0191118640    0.0003752477    
0.0649544350    0.0197020660    0.0003805786    
0.0651770960    0.0194149870    0.0003757348    
0.0653997570    0.0194322320    0.0003750865    
0.0656224180    0.0196259070    0.0003777707    
0.0658450790    0.0188114770    0.0003645334    
0.0660677400    0.0193566490    0.0003713517    
0.0662904010    0.0198288650    0.0003803410    
0.0665130620    0.0197729260    0.0003781566    
0.0667357230    0.0197555990    0.0003847115    
0.0669583840    0.0199733820    0.0003855319    
0.0671810450    0.0202097360    0.0003856651    
0.0674037060    0.0200174020    0.0003903281    
0.0676263670    0.0193728580    0.0003811812    
0.0678490280    0.0200108510    0.0003850377    
0.0680716890    0.0189837570    0.0003758607    
0.0682943500    0.0199897060    0.0003814663    
0.0685170110    0.0195130690    0.0003730504    
0.0687396720    0.0196152500    0.0003730322    
0.0689623330    0.0196180130    0.0003718762    
0.0691849940    0.0195405860    0.0003737131    
0.0694076550    0.0192984050    0.0003711918    
0.0696303160    0.0194789010    0.0003699711    
0.0698529770    0.0192154010    0.0003666901    
0.0700756380    0.0196935470    0.0003664590    
0.0702982990    0.0197973020    0.0003714244    
0.0705209600    0.0194506590    0.0003655003    
0.0707436210    0.0193132500    0.0003625344    
0.0709662820    0.0198600920    0.0003720136    
0.0711889430    0.0194840040    0.0003639487    
0.0714116040    0.0198298550    0.0003679141    
0.0716342650    0.0200686290    0.0003686197    
0.0718569260    0.0194640190    0.0003615625    
0.0720795870    0.0188634760    0.0003573808    
0.0723022480    0.0194643280    0.0003635811    
0.0725249090    0.0197699690    0.0003620363    
0.0727475700    0.0193808380    0.0003615174    
0.0729702310    0.0194976530    0.0003597132    
0.0731928920    0.0192390650    0.0003587480    
0.0734155530    0.0188891870    0.0003547617    
0.0736382140    0.0197788670    0.0003606905    
0.0738608750    0.0198287010    0.0003634777    
0.0740835360    0.0193392100    0.0003580721    
0.0743061970    0.0197457400    0.0003567213    
0.0745288580    0.0194106240    0.0003573180    
0.0747515190    0.0198703830    0.0003622390    
0.0749741800    0.0194199580    0.0003547949    
0.0751968410    0.0189557660    0.0003532812    
0.0754195020    0.0183829120    0.0003458638    
0.0756421630    0.0189029600    0.0003478549    
0.0758648240    0.0202353460    0.0003607707    
0.0760874850    0.0197725280    0.0003564499    
0.0763101460    0.0195870920    0.0003544341    
0.0765328070    0.0191717990    0.0003542446    
0.0767554680    0.0189706080    0.0003499898    
0.0769781290    0.0204638450    0.0003614144    
0.0772007900    0.0196595560    0.0003513998    
0.0774234510    0.0198838370    0.0003554087    
0.0776461120    0.0191993920    0.0003489069    
0.0778687730    0.0188396930    0.0003444813    
0.0780914340    0.0197999140    0.0003556743    
0.0783140950    0.0194550700    0.0003469697    
0.0785367560    0.0191099410    0.0003494227    
0.0787594170    0.0191894750    0.0003470119    
0.0789820780    0.0196765400    0.0003495877    
0.0792047390    0.0193302830    0.0003476310    
0.0794274000    0.0196205320    0.0003517151    
0.0796500610    0.0193939590    0.0003462655    
0.0798727220    0.0196235210    0.0003479873    
0.0800953830    0.0195517950    0.0003465519    
0.0803180440    0.0201365700    0.0003541462    
0.0805407050    0.0192971590    0.0003463638    
0.0807633660    0.0196460820    0.0003491568    
0.0809860270    0.0198215530    0.0003494175    
0.0812086880    0.0196802180    0.0003451608    
0.0814313490    0.0194752760    0.0003449248    
0.0816540100    0.0192772390    0.0003423854    
0.0818766710    0.0196647100    0.0003465988    
0.0820993320    0.0197148340    0.0003464078    
0.0823219930    0.0190677100    0.0003420802    
0.0825446540    0.0199952280    0.0003477562    
0.0827673150    0.0186593400    0.0003336817    
0.0829899760    0.0196751260    0.0003420339    
0.0832126370    0.0200077550    0.0003464579    
0.0834352980    0.0202886810    0.0003481016    
0.0836579590    0.0197227810    0.0003424486    
0.0838806200    0.0191284200    0.0003383045    
0.0841032810    0.0204516940    0.0003476390    
0.0843259420    0.0188870760    0.0003330479    
0.0845486030    0.0196623210    0.0003398146    
0.0847712640    0.0193827880    0.0003353343    
0.0849939250    0.0202129980    0.0003430369    
0.0852165860    0.0193320720    0.0003359180    
0.0854392470    0.0197236140    0.0003360895    
0.0856619080    0.0187773370    0.0003303433    
0.0858845690    0.0201243080    0.0003389064    
0.0861072300    0.0193210460    0.0003343662    
0.0863298910    0.0196876440    0.0003392909    
0.0865525520    0.0194180670    0.0003340503    
0.0867752130    0.0196996660    0.0003337489    
0.0869978740    0.0199366020    0.0003366056    
0.0872205350    0.0195741230    0.0003331072    
0.0874431960    0.0194777850    0.0003322867    
0.0876658570    0.0201646060    0.0003393926    
0.0878885180    0.0200159980    0.0003387195    
0.0881111790    0.0198274480    0.0003366877    
0.0883338400    0.0195786120    0.0003296698    
0.0885565010    0.0191836830    0.0003307531    
0.0887791620    0.0194060550    0.0003283507    
0.0890018230    0.0196993800    0.0003340318    
0.0892244840    0.0196016010    0.0003337682    
0.0894471450    0.0194363570    0.0003309545    
0.0896698060    0.0194689780    0.0003299827    
0.0898924670    0.0193789320    0.0003307447    
0.0901151280    0.0194762510    0.0003279927    
0.0903377890    0.0199496430    0.0003347331    
0.0905604500    0.0191881930    0.0003267762    
0.0907831110    0.0193475580    0.0003273141    
0.0910057720    0.0197043610    0.0003318342    
0.0912284330    0.0196273730    0.0003264435    
0.0914510940    0.0199509800    0.0003327938    
0.0916737550    0.0195096140    0.0003282754    
0.0918964160    0.0194828560    0.0003294145    
0.0921190770    0.0193891960    0.0003256504    
0.0923417380    0.0196569090    0.0003280254    
0.0925643990    0.0193265900    0.0003244617    
0.0927870600    0.0192987010    0.0003255571    
0.0930097210    0.0193816810    0.0003234776    
0.0932323820    0.0198320260    0.0003296194    
