# Diamond Light Source Ltd.
# Data extracted from: /dls/b21/data/2018/cm19678-3/processed/b21-386631_00510.dat
q(1/A)          Column          Error           
0.0035000000    2.0982453000    0.0246920750    
0.0037226610    1.8685213000    0.0228106040    
0.0039453220    1.5763219000    0.0190597350    
0.0041679830    1.2856682000    0.0141359060    
0.0043906440    0.9794497300    0.0118014560    
0.0046133050    0.7736830500    0.0100690830    
0.0048359660    0.5977394500    0.0083716681    
0.0050586270    0.4604638200    0.0072221290    
0.0052812880    0.4220566900    0.0065374282    
0.0055039490    0.3766417700    0.0058721392    
0.0057266100    0.3098281800    0.0051523661    
0.0059492710    0.2672439700    0.0047852016    
0.0061719320    0.2173644900    0.0041586106    
0.0063945930    0.1925915000    0.0039619159    
0.0066172539    0.1758483500    0.0035548504    
0.0068399149    0.1705619700    0.0034458721    
0.0070625759    0.1451219000    0.0031459161    
0.0072852369    0.1257244300    0.0028843163    
0.0075078979    0.1121737200    0.0027110606    
0.0077305589    0.1011314100    0.0025251309    
0.0079532199    0.0922165700    0.0023778533    
0.0081758809    0.0898803400    0.0023693778    
0.0083985419    0.0857412170    0.0021584209    
0.0086212029    0.0782972830    0.0020625985    
0.0088438639    0.0689177040    0.0019195717    
0.0090665249    0.0656854140    0.0018099895    
0.0092891859    0.0610729970    0.0018216548    
0.0095118469    0.0609030550    0.0017493945    
0.0097345079    0.0563099970    0.0016337187    
0.0099571689    0.0543753540    0.0015723040    
0.0101798300    0.0518293600    0.0015350532    
0.0104024910    0.0497180420    0.0014983744    
0.0106251520    0.0448733310    0.0014283339    
0.0108478130    0.0453168370    0.0013978425    
0.0110704740    0.0421710090    0.0012838174    
0.0112931350    0.0433232890    0.0013050604    
0.0115157960    0.0416149960    0.0012716135    
0.0117384570    0.0383810580    0.0012106927    
0.0119611180    0.0374493580    0.0011993393    
0.0121837790    0.0376119670    0.0011817383    
0.0124064400    0.0367920990    0.0011200666    
0.0126291010    0.0370073850    0.0011092791    
0.0128517620    0.0344522880    0.0010729729    
0.0130744230    0.0320994860    0.0010280063    
0.0132970840    0.0323405510    0.0010268135    
0.0135197450    0.0319910590    0.0010066255    
0.0137424060    0.0314145070    0.0009836264    
0.0139650670    0.0310610770    0.0009562915    
0.0141877280    0.0306070820    0.0009513750    
0.0144103890    0.0297606210    0.0009219516    
0.0146330500    0.0289327200    0.0009032658    
0.0148557110    0.0283270860    0.0008900147    
0.0150783720    0.0294009870    0.0008992347    
0.0153010330    0.0278292380    0.0008625335    
0.0155236940    0.0276313350    0.0008543504    
0.0157463550    0.0272433680    0.0008336335    
0.0159690160    0.0245813800    0.0007888540    
0.0161916770    0.0256568700    0.0008013860    
0.0164143380    0.0254626250    0.0008043949    
0.0166369990    0.0253249550    0.0007774831    
0.0168596600    0.0260531750    0.0007816343    
0.0170823210    0.0255118070    0.0007667741    
0.0173049820    0.0237731650    0.0007414646    
0.0175276430    0.0245133560    0.0007608588    
0.0177503040    0.0236607320    0.0007284537    
0.0179729650    0.0238972590    0.0007248252    
0.0181956260    0.0229686260    0.0006969797    
0.0184182870    0.0235068580    0.0007017754    
0.0186409480    0.0234234620    0.0007049633    
0.0188636090    0.0231088070    0.0006958086    
0.0190862700    0.0227859750    0.0006898509    
0.0193089310    0.0227358190    0.0006880172    
0.0195315920    0.0241687990    0.0006852434    
0.0197542530    0.0238106020    0.0006811375    
0.0199769140    0.0219985100    0.0006547060    
0.0201995750    0.0221456460    0.0006466054    
0.0204222360    0.0210871000    0.0006363788    
0.0206448970    0.0225491910    0.0006533939    
0.0208675580    0.0224110090    0.0006379753    
0.0210902190    0.0225678790    0.0006463815    
0.0213128800    0.0213831270    0.0006206487    
0.0215355410    0.0219671350    0.0006215731    
0.0217582020    0.0232510510    0.0006394799    
0.0219808630    0.0211552050    0.0006091771    
0.0222035240    0.0218415070    0.0006133706    
0.0224261850    0.0220128080    0.0006102908    
0.0226488460    0.0215834480    0.0005997717    
0.0228715070    0.0228859860    0.0006160701    
0.0230941680    0.0204481400    0.0005823342    
0.0233168290    0.0220501440    0.0006062217    
0.0235394900    0.0205228660    0.0005783958    
0.0237621510    0.0201273230    0.0005573747    
0.0239848120    0.0202048640    0.0005590934    
0.0242074730    0.0212985420    0.0005694309    
0.0244301340    0.0205079400    0.0005593999    
0.0246527950    0.0208428640    0.0005691713    
0.0248754560    0.0209264580    0.0005574940    
0.0250981170    0.0201844640    0.0005487422    
0.0253207780    0.0210330620    0.0005434337    
0.0255434390    0.0215417930    0.0005558363    
0.0257661000    0.0208874570    0.0005490998    
0.0259887610    0.0204882610    0.0005380481    
0.0262114220    0.0202787380    0.0005381418    
0.0264340830    0.0213146850    0.0005442097    
0.0266567440    0.0207364470    0.0005334603    
0.0268794050    0.0212889530    0.0005383143    
0.0271020660    0.0211304330    0.0005341352    
0.0273247270    0.0204104780    0.0005218041    
0.0275473880    0.0215251760    0.0005347973    
0.0277700490    0.0220724140    0.0005383516    
0.0279927100    0.0206567350    0.0005162571    
0.0282153710    0.0197767410    0.0005075968    
0.0284380320    0.0204495470    0.0005131667    
0.0286606930    0.0207465460    0.0005124557    
0.0288833540    0.0199487140    0.0005034601    
0.0291060150    0.0207098420    0.0005124880    
0.0293286760    0.0205559590    0.0005034658    
0.0295513370    0.0201107140    0.0004925606    
0.0297739980    0.0195941530    0.0004915464    
0.0299966590    0.0198359730    0.0004861232    
0.0302193200    0.0205654830    0.0005021950    
0.0304419810    0.0203950730    0.0005010303    
0.0306646420    0.0203061630    0.0004858268    
0.0308873030    0.0210414580    0.0004924084    
0.0311099640    0.0215678650    0.0004998243    
0.0313326250    0.0208774220    0.0004863111    
0.0315552860    0.0200737390    0.0004830389    
0.0317779470    0.0207957020    0.0004920768    
0.0320006080    0.0202729280    0.0004748136    
0.0322232690    0.0210149250    0.0004854484    
0.0324459300    0.0198737840    0.0004685597    
0.0326685910    0.0213277950    0.0004845975    
0.0328912520    0.0199286390    0.0004699837    
0.0331139130    0.0198886130    0.0004634039    
0.0333365740    0.0207678410    0.0004750737    
0.0335592350    0.0197201510    0.0004584842    
0.0337818960    0.0202741020    0.0004645090    
0.0340045570    0.0203582760    0.0004647330    
0.0342272170    0.0198296020    0.0004568499    
0.0344498780    0.0199869920    0.0004604760    
0.0346725390    0.0199791200    0.0004518591    
0.0348952000    0.0204759870    0.0004553594    
0.0351178610    0.0199178290    0.0004511657    
0.0353405220    0.0202836070    0.0004532155    
0.0355631830    0.0199904050    0.0004482334    
0.0357858440    0.0198095080    0.0004462008    
0.0360085050    0.0197575050    0.0004469612    
0.0362311660    0.0204456390    0.0004492733    
0.0364538270    0.0209347790    0.0004509670    
0.0366764880    0.0206910000    0.0004480083    
0.0368991490    0.0198587270    0.0004366929    
0.0371218100    0.0204613620    0.0004420012    
0.0373444710    0.0197678560    0.0004391773    
0.0375671320    0.0194281880    0.0004347537    
0.0377897930    0.0202446990    0.0004323068    
0.0380124540    0.0202658490    0.0004352464    
0.0382351150    0.0201817330    0.0004343423    
0.0384577760    0.0196933180    0.0004249147    
0.0386804370    0.0198647190    0.0004300166    
0.0389030980    0.0199408880    0.0004275775    
0.0391257590    0.0196529760    0.0004215979    
0.0393484200    0.0197724490    0.0004214543    
0.0395710810    0.0204472830    0.0004291634    
0.0397937420    0.0190781390    0.0004145463    
0.0400164030    0.0194697890    0.0004204834    
0.0402390640    0.0199714230    0.0004201950    
0.0404617250    0.0207674240    0.0004259592    
0.0406843860    0.0201624140    0.0004156536    
0.0409070470    0.0200072930    0.0004183649    
0.0411297080    0.0201111080    0.0004153911    
0.0413523690    0.0200683120    0.0004160185    
0.0415750300    0.0196300580    0.0004149460    
0.0417976910    0.0194185140    0.0004020301    
0.0420203520    0.0197743670    0.0004072215    
0.0422430130    0.0191892540    0.0004026702    
0.0424656740    0.0198453590    0.0004041665    
0.0426883350    0.0197768220    0.0004054705    
0.0429109960    0.0196329130    0.0004052548    
0.0431336570    0.0187746080    0.0003907139    
0.0433563180    0.0204068930    0.0004108585    
0.0435789790    0.0195944120    0.0003962715    
0.0438016400    0.0191195570    0.0003935698    
0.0440243010    0.0197416660    0.0003958639    
0.0442469620    0.0196576270    0.0003973874    
0.0444696230    0.0200672290    0.0004000664    
0.0446922840    0.0201385070    0.0003995861    
0.0449149450    0.0198197700    0.0003911120    
0.0451376060    0.0198298510    0.0003960429    
0.0453602670    0.0193388180    0.0003870086    
0.0455829280    0.0196804650    0.0003899607    
0.0458055890    0.0196214220    0.0003916459    
0.0460282500    0.0196088560    0.0003867993    
0.0462509110    0.0205713410    0.0003937144    
0.0464735720    0.0198477400    0.0003869463    
0.0466962330    0.0195566250    0.0003858441    
0.0469188940    0.0194761790    0.0003839581    
0.0471415550    0.0194549760    0.0003857200    
0.0473642160    0.0192782770    0.0003785881    
0.0475868770    0.0204490040    0.0003879770    
0.0478095380    0.0193583310    0.0003758368    
0.0480321990    0.0196338000    0.0003793307    
0.0482548600    0.0190853050    0.0003723652    
0.0484775210    0.0201775460    0.0003866736    
0.0487001820    0.0201163450    0.0003804350    
0.0489228430    0.0191963620    0.0003714343    
0.0491455040    0.0190734990    0.0003676830    
0.0493681650    0.0194243550    0.0003742379    
0.0495908260    0.0194243940    0.0003679417    
0.0498134870    0.0195118550    0.0003722796    
0.0500361480    0.0195783140    0.0003719264    
0.0502588090    0.0195307140    0.0003659080    
0.0504814700    0.0199110200    0.0003742832    
0.0507041310    0.0200517520    0.0003711379    
0.0509267920    0.0195045890    0.0003675534    
0.0511494530    0.0199424400    0.0003691779    
0.0513721140    0.0193701980    0.0003670468    
0.0515947750    0.0194017150    0.0003624748    
0.0518174360    0.0196437140    0.0003625314    
0.0520400970    0.0190291440    0.0003543412    
0.0522627580    0.0198572670    0.0003650455    
0.0524854190    0.0189333580    0.0003593502    
0.0527080800    0.0200242120    0.0003724186    
0.0529307410    0.0192199350    0.0003665764    
0.0531534020    0.0196424480    0.0003692346    
0.0533760630    0.0195979940    0.0003699711    
0.0535987240    0.0193531490    0.0003659362    
0.0538213850    0.0194006050    0.0003706295    
0.0540440460    0.0204728510    0.0003789320    
0.0542667070    0.0204431370    0.0003812665    
0.0544893680    0.0196392120    0.0003738938    
0.0547120290    0.0194763640    0.0003697896    
0.0549346900    0.0200872510    0.0003757417    
0.0551573510    0.0200377390    0.0003796961    
0.0553800120    0.0192245990    0.0003687505    
0.0556026730    0.0199784740    0.0003837051    
0.0558253340    0.0196475470    0.0003837002    
0.0560479950    0.0194977000    0.0003822344    
0.0562706560    0.0200369500    0.0003912303    
0.0564933170    0.0194071560    0.0003883762    
0.0567159780    0.0200598550    0.0003901190    
0.0569386390    0.0200757690    0.0003963953    
0.0571613000    0.0195202780    0.0003824566    
0.0573839610    0.0196543780    0.0003805816    
0.0576066220    0.0197781680    0.0003828351    
0.0578292830    0.0201554300    0.0003851903    
0.0580519440    0.0192956970    0.0003783470    
0.0582746050    0.0193612030    0.0003773175    
0.0584972660    0.0196292000    0.0003784656    
0.0587199270    0.0194930500    0.0003738997    
0.0589425880    0.0189821580    0.0003668093    
0.0591652490    0.0200740110    0.0003794309    
0.0593879100    0.0197133620    0.0003732146    
0.0596105710    0.0195942340    0.0003716927    
0.0598332320    0.0189839500    0.0003689858    
0.0600558930    0.0194648810    0.0003712482    
0.0602785540    0.0201373910    0.0003772079    
0.0605012150    0.0195530660    0.0003709118    
0.0607238760    0.0197891590    0.0003704250    
0.0609465370    0.0197638850    0.0003731028    
0.0611691980    0.0199678980    0.0003756179    
0.0613918590    0.0192577900    0.0003648513    
0.0616145200    0.0198002310    0.0003726618    
0.0618371810    0.0193857040    0.0003651187    
0.0620598420    0.0193567860    0.0003652224    
0.0622825030    0.0196976300    0.0003740581    
0.0625051640    0.0192172860    0.0003642801    
0.0627278250    0.0199771970    0.0003706479    
0.0629504860    0.0191056980    0.0003595262    
0.0631731470    0.0194496370    0.0003672358    
0.0633958080    0.0184817830    0.0003600423    
0.0636184690    0.0196419230    0.0003763401    
0.0638411300    0.0194016990    0.0003726276    
0.0640637910    0.0199586280    0.0003805961    
0.0642864520    0.0199084750    0.0003792951    
0.0645091130    0.0197441760    0.0003810368    
0.0647317740    0.0197582570    0.0003815929    
0.0649544350    0.0190309300    0.0003740915    
0.0651770960    0.0197330590    0.0003788519    
0.0653997570    0.0191044140    0.0003719601    
0.0656224180    0.0192894180    0.0003745695    
0.0658450790    0.0196292060    0.0003724231    
0.0660677400    0.0188987390    0.0003669831    
0.0662904010    0.0191118480    0.0003734521    
0.0665130620    0.0191634260    0.0003723335    
0.0667357230    0.0199108760    0.0003862732    
0.0669583840    0.0201872670    0.0003876437    
0.0671810450    0.0192435170    0.0003763844    
0.0674037060    0.0190026990    0.0003803584    
0.0676263670    0.0196632390    0.0003840799    
0.0678490280    0.0196680210    0.0003817774    
0.0680716890    0.0198300900    0.0003842002    
0.0682943500    0.0184878890    0.0003669070    
0.0685170110    0.0190832370    0.0003689692    
0.0687396720    0.0200605710    0.0003772944    
0.0689623330    0.0196938900    0.0003726456    
0.0691849940    0.0196388700    0.0003747030    
0.0694076550    0.0189108960    0.0003674964    
0.0696303160    0.0197583570    0.0003726665    
0.0698529770    0.0198856090    0.0003730811    
0.0700756380    0.0200468020    0.0003697816    
0.0702982990    0.0197608940    0.0003711334    
0.0705209600    0.0195040690    0.0003660518    
0.0707436210    0.0196588870    0.0003658140    
0.0709662820    0.0197888500    0.0003713965    
0.0711889430    0.0199041450    0.0003679020    
0.0714116040    0.0188793620    0.0003590374    
0.0716342650    0.0197896660    0.0003660988    
0.0718569260    0.0188512680    0.0003558744    
0.0720795870    0.0191530870    0.0003601630    
0.0723022480    0.0197889370    0.0003666504    
0.0725249090    0.0195830600    0.0003603702    
0.0727475700    0.0194468470    0.0003621820    
0.0729702310    0.0194897090    0.0003596891    
0.0731928920    0.0192175610    0.0003585965    
0.0734155530    0.0198607310    0.0003638204    
0.0736382140    0.0189421130    0.0003530267    
0.0738608750    0.0193142780    0.0003587809    
0.0740835360    0.0190924970    0.0003558294    
0.0743061970    0.0192354450    0.0003521298    
0.0745288580    0.0191988100    0.0003554117    
0.0747515190    0.0187396790    0.0003518297    
0.0749741800    0.0196975860    0.0003573708    
0.0751968410    0.0195339280    0.0003586774    
0.0754195020    0.0195335240    0.0003565723    
0.0756421630    0.0196380750    0.0003546027    
0.0758648240    0.0200800340    0.0003594327    
0.0760874850    0.0196043890    0.0003549796    
0.0763101460    0.0194256500    0.0003530186    
0.0765328070    0.0193014410    0.0003554889    
0.0767554680    0.0191566410    0.0003517497    
0.0769781290    0.0194925780    0.0003527816    
0.0772007900    0.0187979170    0.0003436600    
0.0774234510    0.0201307430    0.0003576574    
0.0776461120    0.0191412190    0.0003484255    
0.0778687730    0.0198088250    0.0003532787    
0.0780914340    0.0187572250    0.0003462299    
0.0783140950    0.0193737350    0.0003462910    
0.0785367560    0.0200674110    0.0003581183    
0.0787594170    0.0194771830    0.0003496514    
0.0789820780    0.0192346050    0.0003456868    
0.0792047390    0.0199421520    0.0003531382    
0.0794274000    0.0200295150    0.0003554104    
0.0796500610    0.0195229440    0.0003474626    
0.0798727220    0.0192153230    0.0003443960    
0.0800953830    0.0192130650    0.0003435838    
0.0803180440    0.0189957290    0.0003440149    
0.0805407050    0.0198496710    0.0003513354    
0.0807633660    0.0188817840    0.0003423445    
0.0809860270    0.0200118120    0.0003511385    
0.0812086880    0.0194676110    0.0003433382    
0.0814313490    0.0191689620    0.0003422483    
0.0816540100    0.0190574470    0.0003404744    
0.0818766710    0.0194256630    0.0003445328    
0.0820993320    0.0193853660    0.0003435480    
0.0823219930    0.0198218450    0.0003488270    
0.0825446540    0.0191597720    0.0003404602    
0.0827673150    0.0199238610    0.0003448501    
0.0829899760    0.0197578260    0.0003427988    
0.0832126370    0.0200972400    0.0003472793    
0.0834352980    0.0201269540    0.0003467588    
0.0836579590    0.0197043850    0.0003423357    
0.0838806200    0.0193431220    0.0003402443    
0.0841032810    0.0189795870    0.0003349397    
0.0843259420    0.0188099990    0.0003324131    
0.0845486030    0.0198028110    0.0003410731    
0.0847712640    0.0194693320    0.0003361281    
0.0849939250    0.0194440260    0.0003364945    
0.0852165860    0.0192848120    0.0003355530    
0.0854392470    0.0193623830    0.0003330431    
0.0856619080    0.0194335510    0.0003361120    
0.0858845690    0.0196788040    0.0003351800    
0.0861072300    0.0192221460    0.0003335550    
0.0863298910    0.0197924590    0.0003402394    
0.0865525520    0.0192509300    0.0003326551    
0.0867752130    0.0196032480    0.0003329766    
0.0869978740    0.0195611770    0.0003334668    
0.0872205350    0.0194944220    0.0003324738    
0.0874431960    0.0196759020    0.0003340180    
0.0876658570    0.0191016190    0.0003303711    
0.0878885180    0.0199010680    0.0003377918    
0.0881111790    0.0191523310    0.0003309513    
0.0883338400    0.0195617560    0.0003295729    
0.0885565010    0.0194228020    0.0003328536    
0.0887791620    0.0189056550    0.0003241340    
0.0890018230    0.0198407410    0.0003352740    
0.0892244840    0.0196751800    0.0003344398    
0.0894471450    0.0193345710    0.0003301319    
0.0896698060    0.0196757030    0.0003317753    
0.0898924670    0.0193898790    0.0003308834    
0.0901151280    0.0190671940    0.0003245744    
0.0903377890    0.0195843120    0.0003316993    
0.0905604500    0.0190487110    0.0003256309    
0.0907831110    0.0198347320    0.0003314547    
0.0910057720    0.0195029260    0.0003301789    
0.0912284330    0.0190950810    0.0003220305    
0.0914510940    0.0190568970    0.0003252959    
0.0916737550    0.0195867770    0.0003289689    
0.0918964160    0.0191093400    0.0003262861    
0.0921190770    0.0193124340    0.0003250496    
0.0923417380    0.0191694950    0.0003239773    
0.0925643990    0.0190594420    0.0003222555    
0.0927870600    0.0190018400    0.0003230877    
0.0930097210    0.0194679850    0.0003242413    
0.0932323820    0.0198264900    0.0003296185    
