# Diamond Light Source Ltd.
# Data extracted from: /dls/b21/data/2018/cm19678-3/processed/b21-386631_00512.dat
q(1/A)          Column          Error           
0.0035000000    2.0874125000    0.0245952690    
0.0037226610    1.8579653000    0.0227156170    
0.0039453220    1.6302519000    0.0193570750    
0.0041679830    1.3073381000    0.0142354470    
0.0043906440    0.9822170000    0.0118022880    
0.0046133050    0.7564517000    0.0099429885    
0.0048359660    0.5763772800    0.0082097030    
0.0050586270    0.4564069800    0.0071806142    
0.0052812880    0.4273903200    0.0065697956    
0.0055039490    0.3816598100    0.0059032107    
0.0057266100    0.3164332800    0.0052000235    
0.0059492710    0.2719121900    0.0048203501    
0.0061719320    0.2153543800    0.0041337935    
0.0063945930    0.1980097700    0.0040118804    
0.0066172539    0.1821863500    0.0036135000    
0.0068399149    0.1672587500    0.0034077714    
0.0070625759    0.1528270900    0.0032240280    
0.0072852369    0.1224181900    0.0028423266    
0.0075078979    0.1162516800    0.0027562034    
0.0077305589    0.0960188920    0.0024571811    
0.0079532199    0.0985739400    0.0024551588    
0.0081758809    0.0907610290    0.0023777689    
0.0083985419    0.0851323800    0.0021478635    
0.0086212029    0.0739692660    0.0020020964    
0.0088438639    0.0734256440    0.0019787038    
0.0090665249    0.0651116580    0.0017996537    
0.0092891859    0.0641067280    0.0018638512    
0.0095118469    0.0611409580    0.0017504605    
0.0097345079    0.0570574400    0.0016423233    
0.0099571689    0.0512825330    0.0015248888    
0.0101798300    0.0504210320    0.0015120263    
0.0104024910    0.0490445240    0.0014861977    
0.0106251520    0.0486526860    0.0014852753    
0.0108478130    0.0432174240    0.0013632511    
0.0110704740    0.0405769330    0.0012576328    
0.0112931350    0.0425015780    0.0012908935    
0.0115157960    0.0398760110    0.0012430941    
0.0117384570    0.0406016820    0.0012435562    
0.0119611180    0.0380003310    0.0012065117    
0.0121837790    0.0364744520    0.0011621727    
0.0124064400    0.0361835110    0.0011092767    
0.0126291010    0.0324647360    0.0010375775    
0.0128517620    0.0330936450    0.0010501951    
0.0130744230    0.0327687560    0.0010372768    
0.0132970840    0.0338471740    0.0010490521    
0.0135197450    0.0341166950    0.0010381380    
0.0137424060    0.0312075540    0.0009790680    
0.0139650670    0.0301557720    0.0009409905    
0.0141877280    0.0306726200    0.0009511176    
0.0144103890    0.0297948980    0.0009212470    
0.0146330500    0.0298396160    0.0009160845    
0.0148557110    0.0288369250    0.0008967857    
0.0150783720    0.0282251020    0.0008798889    
0.0153010330    0.0271948520    0.0008515038    
0.0155236940    0.0270304640    0.0008438783    
0.0157463550    0.0270941230    0.0008302336    
0.0159690160    0.0263839170    0.0008161709    
0.0161916770    0.0272607880    0.0008249490    
0.0164143380    0.0249129360    0.0007945993    
0.0166369990    0.0246858450    0.0007665820    
0.0168596600    0.0242059930    0.0007524068    
0.0170823210    0.0263169180    0.0007777361    
0.0173049820    0.0241708050    0.0007466387    
0.0175276430    0.0245183980    0.0007599180    
0.0177503040    0.0242684150    0.0007367609    
0.0179729650    0.0246226190    0.0007347581    
0.0181956260    0.0246789680    0.0007214962    
0.0184182870    0.0235275160    0.0007011434    
0.0186409480    0.0252440130    0.0007308667    
0.0188636090    0.0234439520    0.0006998974    
0.0190862700    0.0233915270    0.0006980213    
0.0193089310    0.0230071940    0.0006911842    
0.0195315920    0.0226702600    0.0006627711    
0.0197542530    0.0236885690    0.0006784799    
0.0199769140    0.0233387870    0.0006734522    
0.0201995750    0.0231972770    0.0006608938    
0.0204222360    0.0226204040    0.0006582266    
0.0206448970    0.0222433630    0.0006480788    
0.0208675580    0.0227313870    0.0006416587    
0.0210902190    0.0220274100    0.0006377393    
0.0213128800    0.0225655580    0.0006367240    
0.0215355410    0.0219784970    0.0006209011    
0.0217582020    0.0222416160    0.0006246068    
0.0219808630    0.0217808700    0.0006172919    
0.0222035240    0.0217315060    0.0006110047    
0.0224261850    0.0224938740    0.0006160971    
0.0226488460    0.0215589190    0.0005986279    
0.0228715070    0.0221796800    0.0006056767    
0.0230941680    0.0216504200    0.0005984068    
0.0233168290    0.0218581440    0.0006027683    
0.0235394900    0.0211019660    0.0005857139    
0.0237621510    0.0205660470    0.0005626620    
0.0239848120    0.0213542730    0.0005740064    
0.0242074730    0.0218033160    0.0005753675    
0.0244301340    0.0218226690    0.0005762797    
0.0246527950    0.0218411520    0.0005818621    
0.0248754560    0.0206778840    0.0005534309    
0.0250981170    0.0213058270    0.0005630240    
0.0253207780    0.0214528700    0.0005480952    
0.0255434390    0.0215413460    0.0005550861    
0.0257661000    0.0210906820    0.0005510256    
0.0259887610    0.0213071240    0.0005479601    
0.0262114220    0.0205377940    0.0005408429    
0.0264340830    0.0207726140    0.0005365254    
0.0266567440    0.0210915480    0.0005372880    
0.0268794050    0.0213134210    0.0005379022    
0.0271020660    0.0204140520    0.0005242997    
0.0273247270    0.0208481100    0.0005266622    
0.0275473880    0.0207519730    0.0005244010    
0.0277700490    0.0206121260    0.0005195417    
0.0279927100    0.0207172530    0.0005163203    
0.0282153710    0.0207242870    0.0005189186    
0.0284380320    0.0200352020    0.0005072610    
0.0286606930    0.0205773950    0.0005096788    
0.0288833540    0.0203261700    0.0005075202    
0.0291060150    0.0206670550    0.0005112727    
0.0293286760    0.0196646650    0.0004917703    
0.0295513370    0.0200809460    0.0004915368    
0.0297739980    0.0207469200    0.0005051218    
0.0299966590    0.0202937860    0.0004910426    
0.0302193200    0.0204492830    0.0005001035    
0.0304419810    0.0206719190    0.0005037438    
0.0306646420    0.0201358860    0.0004831376    
0.0308873030    0.0195715700    0.0004742620    
0.0311099640    0.0202393950    0.0004835379    
0.0313326250    0.0205503950    0.0004818411    
0.0315552860    0.0209126190    0.0004923684    
0.0317779470    0.0203452100    0.0004860659    
0.0320006080    0.0206068430    0.0004780668    
0.0322232690    0.0202764540    0.0004762041    
0.0324459300    0.0201511130    0.0004711858    
0.0326685910    0.0207326240    0.0004771482    
0.0328912520    0.0199305660    0.0004693770    
0.0331139130    0.0206214690    0.0004712325    
0.0333365740    0.0199643990    0.0004651697    
0.0335592350    0.0199012470    0.0004599677    
0.0337818960    0.0196466730    0.0004566525    
0.0340045570    0.0205153900    0.0004658980    
0.0342272170    0.0208052390    0.0004673270    
0.0344498780    0.0197642050    0.0004572892    
0.0346725390    0.0194364190    0.0004450829    
0.0348952000    0.0201282920    0.0004508720    
0.0351178610    0.0202620080    0.0004544376    
0.0353405220    0.0200071240    0.0004495132    
0.0355631830    0.0196261640    0.0004435362    
0.0357858440    0.0208791250    0.0004574753    
0.0360085050    0.0196037760    0.0004446227    
0.0362311660    0.0193275520    0.0004362312    
0.0364538270    0.0200552190    0.0004408006    
0.0366764880    0.0194263080    0.0004335193    
0.0368991490    0.0203897770    0.0004419007    
0.0371218100    0.0191686750    0.0004272383    
0.0373444710    0.0195884400    0.0004365942    
0.0375671320    0.0198322080    0.0004386626    
0.0377897930    0.0201260620    0.0004304609    
0.0380124540    0.0200904070    0.0004327779    
0.0382351150    0.0197734490    0.0004293506    
0.0384577760    0.0197320410    0.0004247626    
0.0386804370    0.0202014640    0.0004330653    
0.0389030980    0.0196589190    0.0004239751    
0.0391257590    0.0198799890    0.0004234580    
0.0393484200    0.0189311010    0.0004118377    
0.0395710810    0.0196109860    0.0004197325    
0.0397937420    0.0195301490    0.0004188666    
0.0400164030    0.0201603260    0.0004273021    
0.0402390640    0.0200237710    0.0004201819    
0.0404617250    0.0201716020    0.0004192421    
0.0406843860    0.0198093390    0.0004114464    
0.0409070470    0.0198577650    0.0004162404    
0.0411297080    0.0198005690    0.0004116196    
0.0413523690    0.0196017450    0.0004106034    
0.0415750300    0.0200061540    0.0004183411    
0.0417976910    0.0199974210    0.0004074324    
0.0420203520    0.0193450730    0.0004022375    
0.0422430130    0.0192895770    0.0004031808    
0.0424656740    0.0195049180    0.0004001482    
0.0426883350    0.0193093430    0.0004001131    
0.0429109960    0.0189296280    0.0003973972    
0.0431336570    0.0192676760    0.0003952811    
0.0433563180    0.0192962940    0.0003989870    
0.0435789790    0.0190783910    0.0003904950    
0.0438016400    0.0188179040    0.0003899299    
0.0440243010    0.0197759060    0.0003956764    
0.0442469620    0.0199415070    0.0003997105    
0.0444696230    0.0197669250    0.0003965299    
0.0446922840    0.0197208650    0.0003948915    
0.0449149450    0.0196897440    0.0003893048    
0.0451376060    0.0199187670    0.0003963983    
0.0453602670    0.0202911840    0.0003958926    
0.0455829280    0.0196817290    0.0003894510    
0.0458055890    0.0201302400    0.0003961602    
0.0460282500    0.0200738120    0.0003908341    
0.0462509110    0.0197271900    0.0003850353    
0.0464735720    0.0202309830    0.0003901410    
0.0466962330    0.0198990690    0.0003886863    
0.0469188940    0.0193636520    0.0003823346    
0.0471415550    0.0193647650    0.0003843093    
0.0473642160    0.0198272760    0.0003834267    
0.0475868770    0.0195426700    0.0003787737    
0.0478095380    0.0196776520    0.0003784164    
0.0480321990    0.0191134590    0.0003737691    
0.0482548600    0.0206354990    0.0003866740    
0.0484775210    0.0198205370    0.0003827243    
0.0487001820    0.0196750250    0.0003757349    
0.0489228430    0.0199692660    0.0003783307    
0.0491455040    0.0198707140    0.0003747857    
0.0493681650    0.0190200060    0.0003698263    
0.0495908260    0.0192611850    0.0003659020    
0.0498134870    0.0199200840    0.0003756501    
0.0500361480    0.0194624890    0.0003703280    
0.0502588090    0.0193280230    0.0003635168    
0.0504814700    0.0198998240    0.0003736768    
0.0507041310    0.0192376170    0.0003630385    
0.0509267920    0.0195836280    0.0003678042    
0.0511494530    0.0194800990    0.0003643846    
0.0513721140    0.0199148940    0.0003716733    
0.0515947750    0.0196469500    0.0003642699    
0.0518174360    0.0198513690    0.0003639544    
0.0520400970    0.0203074720    0.0003655594    
0.0522627580    0.0194360080    0.0003606690    
0.0524854190    0.0196037020    0.0003651667    
0.0527080800    0.0199775200    0.0003714860    
0.0529307410    0.0191754610    0.0003656617    
0.0531534020    0.0199221370    0.0003713561    
0.0533760630    0.0198241600    0.0003716014    
0.0535987240    0.0199224110    0.0003707819    
0.0538213850    0.0202666780    0.0003783046    
0.0540440460    0.0199493930    0.0003735553    
0.0542667070    0.0195161470    0.0003720231    
0.0544893680    0.0197428250    0.0003743767    
0.0547120290    0.0190951250    0.0003656621    
0.0549346900    0.0191362520    0.0003662482    
0.0551573510    0.0198621180    0.0003775222    
0.0553800120    0.0196387130    0.0003722017    
0.0556026730    0.0198221010    0.0003816886    
0.0558253340    0.0203871250    0.0003903317    
0.0560479950    0.0199536930    0.0003861603    
0.0562706560    0.0193052700    0.0003835064    
0.0564933170    0.0193707110    0.0003874917    
0.0567159780    0.0196126950    0.0003852297    
0.0569386390    0.0196707680    0.0003918511    
0.0571613000    0.0191317270    0.0003781240    
0.0573839610    0.0198075610    0.0003815501    
0.0576066220    0.0190970350    0.0003756814    
0.0578292830    0.0202262870    0.0003853500    
0.0580519440    0.0193920220    0.0003787822    
0.0582746050    0.0198813990    0.0003818407    
0.0584972660    0.0200569770    0.0003820550    
0.0587199270    0.0194265670    0.0003727616    
0.0589425880    0.0198503450    0.0003746015    
0.0591652490    0.0201061100    0.0003792256    
0.0593879100    0.0195830790    0.0003714811    
0.0596105710    0.0202098210    0.0003769807    
0.0598332320    0.0195053490    0.0003735177    
0.0600558930    0.0195469520    0.0003715318    
0.0602785540    0.0194633660    0.0003703447    
0.0605012150    0.0193252980    0.0003682513    
0.0607238760    0.0191760510    0.0003641533    
0.0609465370    0.0195775160    0.0003708422    
0.0611691980    0.0195480120    0.0003711499    
0.0613918590    0.0199852460    0.0003711807    
0.0616145200    0.0192575730    0.0003670274    
0.0618371810    0.0199510690    0.0003699085    
0.0620598420    0.0189888360    0.0003612500    
0.0622825030    0.0196803260    0.0003733930    
0.0625051640    0.0192966940    0.0003645431    
0.0627278250    0.0191007120    0.0003619403    
0.0629504860    0.0196078410    0.0003637324    
0.0631731470    0.0199231420    0.0003711814    
0.0633958080    0.0199222870    0.0003733096    
0.0636184690    0.0191794380    0.0003713850    
0.0638411300    0.0194211410    0.0003723149    
0.0640637910    0.0192609990    0.0003733846    
0.0642864520    0.0198984270    0.0003786915    
0.0645091130    0.0194566440    0.0003777455    
0.0647317740    0.0191688190    0.0003753544    
0.0649544350    0.0193540150    0.0003767484    
0.0651770960    0.0189330710    0.0003705961    
0.0653997570    0.0192555100    0.0003729280    
0.0656224180    0.0196077430    0.0003771417    
0.0658450790    0.0192172650    0.0003680010    
0.0660677400    0.0190613660    0.0003680651    
0.0662904010    0.0195701400    0.0003773971    
0.0665130620    0.0195522360    0.0003755881    
0.0667357230    0.0194913700    0.0003816705    
0.0669583840    0.0191458720    0.0003770071    
0.0671810450    0.0201758360    0.0003848781    
0.0674037060    0.0197566790    0.0003873114    
0.0676263670    0.0195133380    0.0003821007    
0.0678490280    0.0196671110    0.0003812573    
0.0680716890    0.0198660950    0.0003840338    
0.0682943500    0.0194333060    0.0003756675    
0.0685170110    0.0192456010    0.0003700393    
0.0687396720    0.0198370240    0.0003746839    
0.0689623330    0.0199646600    0.0003746961    
0.0691849940    0.0193438790    0.0003713801    
0.0694076550    0.0196936040    0.0003745223    
0.0696303160    0.0190885780    0.0003658051    
0.0698529770    0.0197904960    0.0003716894    
0.0700756380    0.0197482440    0.0003665262    
0.0702982990    0.0185748760    0.0003593418    
0.0705209600    0.0197670380    0.0003680177    
0.0707436210    0.0192192990    0.0003612165    
0.0709662820    0.0193674400    0.0003669287    
0.0711889430    0.0202170940    0.0003702864    
0.0714116040    0.0198026140    0.0003672192    
0.0716342650    0.0187505350    0.0003558803    
0.0718569260    0.0195780330    0.0003621837    
0.0720795870    0.0197637630    0.0003653697    
0.0723022480    0.0190516790    0.0003592738    
0.0725249090    0.0200994310    0.0003646015    
0.0727475700    0.0194822480    0.0003620260    
0.0729702310    0.0201856470    0.0003655645    
0.0731928920    0.0196466090    0.0003620918    
0.0734155530    0.0193489370    0.0003586212    
0.0736382140    0.0198822410    0.0003611969    
0.0738608750    0.0194420430    0.0003594835    
0.0740835360    0.0194183830    0.0003583728    
0.0743061970    0.0199425710    0.0003580637    
0.0745288580    0.0196001870    0.0003586267    
0.0747515190    0.0196842710    0.0003601049    
0.0749741800    0.0200134440    0.0003597423    
0.0751968410    0.0199217180    0.0003617350    
0.0754195020    0.0194163220    0.0003550249    
0.0756421630    0.0195408080    0.0003532497    
0.0758648240    0.0192177900    0.0003511600    
0.0760874850    0.0193660100    0.0003523423    
0.0763101460    0.0200134690    0.0003578401    
0.0765328070    0.0197003300    0.0003586624    
0.0767554680    0.0198847800    0.0003578924    
0.0769781290    0.0198224600    0.0003552777    
0.0772007900    0.0193679250    0.0003483643    
0.0774234510    0.0190628750    0.0003475758    
0.0776461120    0.0188369670    0.0003451824    
0.0778687730    0.0194039170    0.0003491811    
0.0780914340    0.0191213120    0.0003491058    
0.0783140950    0.0197601680    0.0003492591    
0.0785367560    0.0190958700    0.0003488739    
0.0787594170    0.0193061060    0.0003476462    
0.0789820780    0.0190468040    0.0003435344    
0.0792047390    0.0192775770    0.0003467392    
0.0794274000    0.0192274340    0.0003477552    
0.0796500610    0.0198037290    0.0003494836    
0.0798727220    0.0190284550    0.0003422583    
0.0800953830    0.0196579880    0.0003470739    
0.0803180440    0.0198644770    0.0003513224    
0.0805407050    0.0194244230    0.0003470861    
0.0807633660    0.0202674180    0.0003542086    
0.0809860270    0.0194543730    0.0003457497    
0.0812086880    0.0198080390    0.0003458634    
0.0814313490    0.0194467400    0.0003442575    
0.0816540100    0.0190307020    0.0003397798    
0.0818766710    0.0186362600    0.0003370079    
0.0820993320    0.0194852780    0.0003439709    
0.0823219930    0.0192055390    0.0003429014    
0.0825446540    0.0190360830    0.0003389049    
0.0827673150    0.0197276620    0.0003426884    
0.0829899760    0.0193727660    0.0003389874    
0.0832126370    0.0192594230    0.0003395082    
0.0834352980    0.0198705010    0.0003440812    
0.0836579590    0.0193135360    0.0003384695    
0.0838806200    0.0192137510    0.0003386505    
0.0841032810    0.0192765870    0.0003370981    
0.0843259420    0.0192635000    0.0003359459    
0.0845486030    0.0190936250    0.0003344616    
0.0847712640    0.0194577300    0.0003355779    
0.0849939250    0.0192758250    0.0003345872    
0.0852165860    0.0194428170    0.0003364736    
0.0854392470    0.0191734390    0.0003309703    
0.0856619080    0.0202511800    0.0003426502    
0.0858845690    0.0198424880    0.0003361203    
0.0861072300    0.0198114480    0.0003381758    
0.0863298910    0.0191153290    0.0003339209    
0.0865525520    0.0190388800    0.0003303748    
0.0867752130    0.0190882350    0.0003281335    
0.0869978740    0.0193727480    0.0003314124    
0.0872205350    0.0198833390    0.0003353242    
0.0874431960    0.0198946800    0.0003354201    
0.0876658570    0.0194436930    0.0003328697    
0.0878885180    0.0189042990    0.0003287828    
0.0881111790    0.0198482250    0.0003364589    
0.0883338400    0.0198527330    0.0003315704    
0.0885565010    0.0194561450    0.0003326931    
0.0887791620    0.0195090460    0.0003288249    
0.0890018230    0.0193525530    0.0003306800    
0.0892244840    0.0199683610    0.0003364711    
0.0894471450    0.0196369920    0.0003322582    
0.0896698060    0.0192324730    0.0003275778    
0.0898924670    0.0194449720    0.0003309093    
0.0901151280    0.0195782100    0.0003284546    
0.0903377890    0.0194758600    0.0003303366    
0.0905604500    0.0196417120    0.0003302178    
0.0907831110    0.0202456600    0.0003344221    
0.0910057720    0.0194953210    0.0003296724    
0.0912284330    0.0197210150    0.0003268278    
0.0914510940    0.0187013060    0.0003218151    
0.0916737550    0.0194351610    0.0003272543    
0.0918964160    0.0200027640    0.0003333794    
0.0921190770    0.0195553800    0.0003266497    
0.0923417380    0.0201775740    0.0003319416    
0.0925643990    0.0188236660    0.0003198271    
0.0927870600    0.0193070950    0.0003252363    
0.0930097210    0.0193997170    0.0003232388    
0.0932323820    0.0191940990    0.0003238847    
