# Diamond Light Source Ltd.
# Data extracted from: /dls/b21/data/2018/cm19678-3/processed/b21-386631_00508.dat
q(1/A)          Column          Error           
0.0035000000    2.0988130000    0.0246953360    
0.0037226610    1.8523583000    0.0227116600    
0.0039453220    1.6318514000    0.0193924790    
0.0041679830    1.2656104000    0.0140251600    
0.0043906440    0.9492979900    0.0116183480    
0.0046133050    0.7587391900    0.0099713333    
0.0048359660    0.5962113900    0.0083609338    
0.0050586270    0.4598945000    0.0072176398    
0.0052812880    0.4112191100    0.0064529276    
0.0055039490    0.3723364800    0.0058384626    
0.0057266100    0.3173662200    0.0052146505    
0.0059492710    0.2645861200    0.0047613314    
0.0061719320    0.2206251400    0.0041896724    
0.0063945930    0.1968283900    0.0040052458    
0.0066172539    0.1779312400    0.0035758301    
0.0068399149    0.1680546700    0.0034204399    
0.0070625759    0.1450527700    0.0031451567    
0.0072852369    0.1274440600    0.0029039654    
0.0075078979    0.1109936100    0.0026967536    
0.0077305589    0.1001850300    0.0025132800    
0.0079532199    0.0949137880    0.0024123695    
0.0081758809    0.0910665020    0.0023849534    
0.0083985419    0.0834585970    0.0021294893    
0.0086212029    0.0746020000    0.0020133311    
0.0088438639    0.0702004390    0.0019373472    
0.0090665249    0.0650366220    0.0018010227    
0.0092891859    0.0623766470    0.0018409885    
0.0095118469    0.0601489190    0.0017385243    
0.0097345079    0.0580159890    0.0016582767    
0.0099571689    0.0544659340    0.0015736080    
0.0101798300    0.0498740740    0.0015058147    
0.0104024910    0.0487694290    0.0014840065    
0.0106251520    0.0448275790    0.0014276010    
0.0108478130    0.0441523730    0.0013797616    
0.0110704740    0.0444375630    0.0013178622    
0.0112931350    0.0406104090    0.0012635348    
0.0115157960    0.0421975690    0.0012804792    
0.0117384570    0.0379989130    0.0012046465    
0.0119611180    0.0400225450    0.0012398548    
0.0121837790    0.0361636930    0.0011587595    
0.0124064400    0.0338935240    0.0010750373    
0.0126291010    0.0345466550    0.0010717617    
0.0128517620    0.0337169120    0.0010614565    
0.0130744230    0.0339429310    0.0010571096    
0.0132970840    0.0344268170    0.0010594121    
0.0135197450    0.0310089570    0.0009910506    
0.0137424060    0.0297203970    0.0009567334    
0.0139650670    0.0305014880    0.0009476351    
0.0141877280    0.0294535830    0.0009332725    
0.0144103890    0.0284180700    0.0009009134    
0.0146330500    0.0290171330    0.0009045796    
0.0148557110    0.0286904290    0.0008957016    
0.0150783720    0.0294283020    0.0008996494    
0.0153010330    0.0277221280    0.0008608692    
0.0155236940    0.0264424370    0.0008357655    
0.0157463550    0.0281104860    0.0008467936    
0.0159690160    0.0270114980    0.0008269256    
0.0161916770    0.0266078820    0.0008161005    
0.0164143380    0.0258182250    0.0008099898    
0.0166369990    0.0253486610    0.0007778445    
0.0168596600    0.0239894040    0.0007500352    
0.0170823210    0.0260186500    0.0007743509    
0.0173049820    0.0237267610    0.0007407383    
0.0175276430    0.0247257410    0.0007641454    
0.0177503040    0.0239072790    0.0007322368    
0.0179729650    0.0236772610    0.0007214789    
0.0181956260    0.0242163060    0.0007156574    
0.0184182870    0.0252037160    0.0007266609    
0.0186409480    0.0238476470    0.0007113157    
0.0188636090    0.0234019700    0.0007002060    
0.0190862700    0.0236630110    0.0007029995    
0.0193089310    0.0236517620    0.0007017369    
0.0195315920    0.0219149770    0.0006525089    
0.0197542530    0.0231284810    0.0006713079    
0.0199769140    0.0224660050    0.0006616239    
0.0201995750    0.0221832630    0.0006471523    
0.0204222360    0.0213558330    0.0006404189    
0.0206448970    0.0231738320    0.0006623799    
0.0208675580    0.0227377670    0.0006426073    
0.0210902190    0.0226047610    0.0006469073    
0.0213128800    0.0212568900    0.0006188120    
0.0215355410    0.0222483970    0.0006255377    
0.0217582020    0.0212810830    0.0006117881    
0.0219808630    0.0223128100    0.0006256201    
0.0222035240    0.0215313160    0.0006089976    
0.0224261850    0.0215389130    0.0006036839    
0.0226488460    0.0207833100    0.0005885475    
0.0228715070    0.0213269500    0.0005947141    
0.0230941680    0.0214596300    0.0005965613    
0.0233168290    0.0207833360    0.0005885482    
0.0235394900    0.0210117590    0.0005852426    
0.0237621510    0.0208680720    0.0005675367    
0.0239848120    0.0215042730    0.0005767895    
0.0242074730    0.0202936210    0.0005558332    
0.0244301340    0.0217437700    0.0005760065    
0.0246527950    0.0216043210    0.0005794730    
0.0248754560    0.0212530660    0.0005618259    
0.0250981170    0.0219745200    0.0005725561    
0.0253207780    0.0208223170    0.0005407026    
0.0255434390    0.0215416550    0.0005558327    
0.0257661000    0.0204109710    0.0005427989    
0.0259887610    0.0208131140    0.0005422951    
0.0262114220    0.0207498720    0.0005443555    
0.0264340830    0.0202724420    0.0005307359    
0.0266567440    0.0210382330    0.0005373264    
0.0268794050    0.0211118640    0.0005360690    
0.0271020660    0.0203877000    0.0005246622    
0.0273247270    0.0205704280    0.0005238430    
0.0275473880    0.0214187420    0.0005334718    
0.0277700490    0.0211662720    0.0005271836    
0.0279927100    0.0216758860    0.0005288375    
0.0282153710    0.0203628780    0.0005150622    
0.0284380320    0.0199987040    0.0005074767    
0.0286606930    0.0210502040    0.0005161907    
0.0288833540    0.0207363640    0.0005133015    
0.0291060150    0.0204814330    0.0005096524    
0.0293286760    0.0204818410    0.0005025557    
0.0295513370    0.0201950330    0.0004935906    
0.0297739980    0.0209504430    0.0005082724    
0.0299966590    0.0209557070    0.0004996540    
0.0302193200    0.0201361400    0.0004969236    
0.0304419810    0.0202103170    0.0004987542    
0.0306646420    0.0200270720    0.0004824750    
0.0308873030    0.0199466220    0.0004794252    
0.0311099640    0.0195175190    0.0004754717    
0.0313326250    0.0207753370    0.0004851191    
0.0315552860    0.0195738050    0.0004769844    
0.0317779470    0.0205044780    0.0004886175    
0.0320006080    0.0197612510    0.0004687818    
0.0322232690    0.0190635770    0.0004623597    
0.0324459300    0.0202934440    0.0004734795    
0.0326685910    0.0196540370    0.0004651925    
0.0328912520    0.0204161950    0.0004756965    
0.0331139130    0.0200072550    0.0004647825    
0.0333365740    0.0202569380    0.0004691923    
0.0335592350    0.0198585970    0.0004600893    
0.0337818960    0.0192735770    0.0004529008    
0.0340045570    0.0194988380    0.0004548163    
0.0342272170    0.0206083400    0.0004657326    
0.0344498780    0.0195200800    0.0004550642    
0.0346725390    0.0197746040    0.0004495389    
0.0348952000    0.0194834550    0.0004441845    
0.0351178610    0.0196928730    0.0004486093    
0.0353405220    0.0199898070    0.0004499197    
0.0355631830    0.0204023440    0.0004528267    
0.0357858440    0.0197792300    0.0004458583    
0.0360085050    0.0198382680    0.0004478723    
0.0362311660    0.0201394680    0.0004458953    
0.0364538270    0.0199340570    0.0004400550    
0.0366764880    0.0200603440    0.0004411265    
0.0368991490    0.0198586000    0.0004366901    
0.0371218100    0.0198883550    0.0004357669    
0.0373444710    0.0197677290    0.0004391744    
0.0375671320    0.0199923240    0.0004410191    
0.0377897930    0.0211400200    0.0004417613    
0.0380124540    0.0196955120    0.0004290768    
0.0382351150    0.0199105220    0.0004314126    
0.0384577760    0.0193264660    0.0004209370    
0.0386804370    0.0197249620    0.0004284999    
0.0389030980    0.0194731830    0.0004225321    
0.0391257590    0.0194177040    0.0004190654    
0.0393484200    0.0192692560    0.0004160555    
0.0395710810    0.0199697520    0.0004241210    
0.0397937420    0.0198166370    0.0004224921    
0.0400164030    0.0201325770    0.0004275791    
0.0402390640    0.0197325940    0.0004176737    
0.0404617250    0.0197625630    0.0004155248    
0.0406843860    0.0207021170    0.0004211786    
0.0409070470    0.0195085170    0.0004131158    
0.0411297080    0.0193302200    0.0004072454    
0.0413523690    0.0199819430    0.0004151210    
0.0415750300    0.0192089150    0.0004104694    
0.0417976910    0.0195099460    0.0004029742    
0.0420203520    0.0202857880    0.0004124525    
0.0422430130    0.0187666490    0.0003982103    
0.0424656740    0.0193266710    0.0003988485    
0.0426883350    0.0198764510    0.0004064892    
0.0429109960    0.0193149150    0.0004019581    
0.0431336570    0.0194981470    0.0003981702    
0.0433563180    0.0194224070    0.0004008243    
0.0435789790    0.0197866230    0.0003982091    
0.0438016400    0.0189168980    0.0003914772    
0.0440243010    0.0198685460    0.0003971327    
0.0442469620    0.0196414350    0.0003972224    
0.0444696230    0.0201468580    0.0004008581    
0.0446922840    0.0195913120    0.0003941188    
0.0449149450    0.0204062050    0.0003968547    
0.0451376060    0.0193472300    0.0003911925    
0.0453602670    0.0199815100    0.0003933856    
0.0455829280    0.0202521280    0.0003955826    
0.0458055890    0.0201528700    0.0003969131    
0.0460282500    0.0200054830    0.0003906904    
0.0462509110    0.0188531750    0.0003769128    
0.0464735720    0.0196816510    0.0003853226    
0.0466962330    0.0203101360    0.0003932058    
0.0469188940    0.0199983420    0.0003890699    
0.0471415550    0.0196077980    0.0003872307    
0.0473642160    0.0195234980    0.0003809871    
0.0475868770    0.0199188800    0.0003829138    
0.0478095380    0.0192487560    0.0003747704    
0.0480321990    0.0202199740    0.0003849504    
0.0482548600    0.0198625400    0.0003798705    
0.0484775210    0.0197698670    0.0003827461    
0.0487001820    0.0194111410    0.0003737060    
0.0489228430    0.0204108270    0.0003830023    
0.0491455040    0.0199239180    0.0003757892    
0.0493681650    0.0193665490    0.0003736795    
0.0495908260    0.0186157970    0.0003602008    
0.0498134870    0.0193980830    0.0003711914    
0.0500361480    0.0196700390    0.0003727954    
0.0502588090    0.0193797730    0.0003644902    
0.0504814700    0.0200093920    0.0003752054    
0.0507041310    0.0196394630    0.0003673014    
0.0509267920    0.0193867170    0.0003664399    
0.0511494530    0.0195595940    0.0003656159    
0.0513721140    0.0195369970    0.0003686226    
0.0515947750    0.0197537310    0.0003657471    
0.0518174360    0.0200182620    0.0003659701    
0.0520400970    0.0196096580    0.0003597043    
0.0522627580    0.0197027930    0.0003636217    
0.0524854190    0.0200654110    0.0003699361    
0.0527080800    0.0200725680    0.0003728668    
0.0529307410    0.0198071030    0.0003721326    
0.0531534020    0.0198713670    0.0003713788    
0.0533760630    0.0199051760    0.0003728581    
0.0535987240    0.0192008020    0.0003644919    
0.0538213850    0.0196128950    0.0003726506    
0.0540440460    0.0196310870    0.0003710589    
0.0542667070    0.0200874760    0.0003779342    
0.0544893680    0.0197743320    0.0003751766    
0.0547120290    0.0193779460    0.0003688529    
0.0549346900    0.0195810790    0.0003709762    
0.0551573510    0.0202462610    0.0003816654    
0.0553800120    0.0195639810    0.0003719899    
0.0556026730    0.0195435540    0.0003795044    
0.0558253340    0.0200670460    0.0003877735    
0.0560479950    0.0201419990    0.0003884972    
0.0562706560    0.0192805710    0.0003837737    
0.0564933170    0.0192982220    0.0003872834    
0.0567159780    0.0192251690    0.0003819151    
0.0569386390    0.0198408370    0.0003940679    
0.0571613000    0.0192428990    0.0003797283    
0.0573839610    0.0196395130    0.0003804364    
0.0576066220    0.0200596320    0.0003855483    
0.0578292830    0.0201332170    0.0003849768    
0.0580519440    0.0199632400    0.0003848347    
0.0582746050    0.0195449100    0.0003791021    
0.0584972660    0.0190307160    0.0003726502    
0.0587199270    0.0194929250    0.0003738973    
0.0589425880    0.0191946810    0.0003688558    
0.0591652490    0.0191128600    0.0003702347    
0.0593879100    0.0197344330    0.0003734128    
0.0596105710    0.0197844800    0.0003734916    
0.0598332320    0.0198372760    0.0003771863    
0.0600558930    0.0201445000    0.0003776725    
0.0602785540    0.0199535530    0.0003754809    
0.0605012150    0.0194403660    0.0003698401    
0.0607238760    0.0190124480    0.0003630817    
0.0609465370    0.0197496720    0.0003729674    
0.0611691980    0.0197063390    0.0003731485    
0.0613918590    0.0194028250    0.0003662214    
0.0616145200    0.0191688580    0.0003666709    
0.0618371810    0.0194612240    0.0003658280    
0.0620598420    0.0193084260    0.0003647647    
0.0622825030    0.0190582050    0.0003679355    
0.0625051640    0.0199076820    0.0003707647    
0.0627278250    0.0191862390    0.0003632350    
0.0629504860    0.0194641440    0.0003628820    
0.0631731470    0.0195881890    0.0003685404    
0.0633958080    0.0190918750    0.0003659355    
0.0636184690    0.0193028970    0.0003730769    
0.0638411300    0.0203534050    0.0003816562    
0.0640637910    0.0198133470    0.0003792072    
0.0642864520    0.0193591510    0.0003740244    
0.0645091130    0.0195822740    0.0003794701    
0.0647317740    0.0194854530    0.0003789481    
0.0649544350    0.0196558540    0.0003801828    
0.0651770960    0.0193765320    0.0003754127    
0.0653997570    0.0199588430    0.0003801857    
0.0656224180    0.0194565850    0.0003761878    
0.0658450790    0.0195089600    0.0003712795    
0.0660677400    0.0195898560    0.0003736318    
0.0662904010    0.0190022650    0.0003723788    
0.0665130620    0.0196624610    0.0003771492    
0.0667357230    0.0191988480    0.0003793024    
0.0669583840    0.0194427750    0.0003804273    
0.0671810450    0.0199795600    0.0003835138    
0.0674037060    0.0200227480    0.0003904324    
0.0676263670    0.0191979810    0.0003795075    
0.0678490280    0.0197716440    0.0003827806    
0.0680716890    0.0191823630    0.0003778722    
0.0682943500    0.0200897050    0.0003824703    
0.0685170110    0.0196966280    0.0003748510    
0.0687396720    0.0187121990    0.0003643928    
0.0689623330    0.0198347860    0.0003739751    
0.0691849940    0.0194242690    0.0003726489    
0.0694076550    0.0190250390    0.0003686026    
0.0696303160    0.0203135130    0.0003778645    
0.0698529770    0.0201654610    0.0003756959    
0.0700756380    0.0193577610    0.0003633699    
0.0702982990    0.0194958970    0.0003686353    
0.0705209600    0.0190917440    0.0003621607    
0.0707436210    0.0194885850    0.0003642249    
0.0709662820    0.0200466250    0.0003738065    
0.0711889430    0.0197612140    0.0003665775    
0.0714116040    0.0203199350    0.0003724825    
0.0716342650    0.0190174630    0.0003588839    
0.0718569260    0.0196640440    0.0003634641    
0.0720795870    0.0203788080    0.0003715076    
0.0723022480    0.0196257720    0.0003651346    
0.0725249090    0.0200139850    0.0003643124    
0.0727475700    0.0193455430    0.0003612363    
0.0729702310    0.0191444000    0.0003564874    
0.0731928920    0.0192241300    0.0003586566    
0.0734155530    0.0198539390    0.0003637571    
0.0736382140    0.0194222850    0.0003574721    
0.0738608750    0.0191275440    0.0003570411    
0.0740835360    0.0195101650    0.0003596993    
0.0743061970    0.0196672140    0.0003560588    
0.0745288580    0.0197381990    0.0003603686    
0.0747515190    0.0199417440    0.0003629373    
0.0749741800    0.0193992100    0.0003546527    
0.0751968410    0.0195206310    0.0003585542    
0.0754195020    0.0196440510    0.0003575785    
0.0756421630    0.0201245760    0.0003589670    
0.0758648240    0.0193464520    0.0003528049    
0.0760874850    0.0195785530    0.0003547445    
0.0763101460    0.0192394820    0.0003513218    
0.0765328070    0.0186531390    0.0003494666    
0.0767554680    0.0193567390    0.0003535809    
0.0769781290    0.0192626050    0.0003506932    
0.0772007900    0.0190365390    0.0003458332    
0.0774234510    0.0193617360    0.0003507584    
0.0776461120    0.0188556920    0.0003458160    
0.0778687730    0.0202749340    0.0003574098    
0.0780914340    0.0204059410    0.0003611247    
0.0783140950    0.0189527150    0.0003425065    
0.0785367560    0.0194473690    0.0003525412    
0.0787594170    0.0191506620    0.0003467071    
0.0789820780    0.0195948170    0.0003489076    
0.0792047390    0.0195855810    0.0003499658    
0.0794274000    0.0200419990    0.0003555200    
0.0796500610    0.0198505700    0.0003503648    
0.0798727220    0.0199435630    0.0003508603    
0.0800953830    0.0199686790    0.0003502738    
0.0803180440    0.0193008830    0.0003467660    
0.0805407050    0.0197376100    0.0003503411    
0.0807633660    0.0197133990    0.0003498012    
0.0809860270    0.0192476910    0.0003443683    
0.0812086880    0.0194553760    0.0003432292    
0.0814313490    0.0198287800    0.0003480877    
0.0816540100    0.0196108570    0.0003453815    
0.0818766710    0.0193827650    0.0003441511    
0.0820993320    0.0196226870    0.0003456434    
0.0823219930    0.0196682520    0.0003474718    
0.0825446540    0.0190749520    0.0003397046    
0.0827673150    0.0192612000    0.0003390657    
0.0829899760    0.0185860350    0.0003324771    
0.0832126370    0.0195090210    0.0003421582    
0.0834352980    0.0190813530    0.0003376305    
0.0836579590    0.0197875240    0.0003430560    
0.0838806200    0.0196183010    0.0003426549    
0.0841032810    0.0201261530    0.0003449072    
0.0843259420    0.0197909060    0.0003409692    
0.0845486030    0.0189978880    0.0003340683    
0.0847712640    0.0193357370    0.0003349718    
0.0849939250    0.0192459100    0.0003347748    
0.0852165860    0.0198218340    0.0003401919    
0.0854392470    0.0197059680    0.0003359840    
0.0856619080    0.0197589650    0.0003389133    
0.0858845690    0.0192333810    0.0003313639    
0.0861072300    0.0195808800    0.0003366520    
0.0863298910    0.0193302770    0.0003362423    
0.0865525520    0.0200440620    0.0003394374    
0.0867752130    0.0195465640    0.0003324938    
0.0869978740    0.0194871510    0.0003328342    
0.0872205350    0.0198061610    0.0003351205    
0.0874431960    0.0195907220    0.0003332932    
0.0876658570    0.0195528930    0.0003342497    
0.0878885180    0.0195167970    0.0003345136    
0.0881111790    0.0188891440    0.0003286684    
0.0883338400    0.0200780180    0.0003338925    
0.0885565010    0.0194112690    0.0003327537    
0.0887791620    0.0192278510    0.0003268833    
0.0890018230    0.0192967250    0.0003306445    
0.0892244840    0.0197262170    0.0003348722    
0.0894471450    0.0189342300    0.0003266951    
0.0896698060    0.0194406120    0.0003297862    
0.0898924670    0.0194462180    0.0003313627    
0.0901151280    0.0189676200    0.0003237248    
0.0903377890    0.0193482320    0.0003296930    
0.0905604500    0.0195328750    0.0003297422    
0.0907831110    0.0194468860    0.0003281970    
0.0910057720    0.0195083910    0.0003302241    
0.0912284330    0.0195837370    0.0003261240    
0.0914510940    0.0193677250    0.0003279370    
0.0916737550    0.0195369250    0.0003285490    
0.0918964160    0.0197944750    0.0003320828    
0.0921190770    0.0190880030    0.0003231543    
0.0923417380    0.0191693730    0.0003239753    
0.0925643990    0.0192282280    0.0003236782    
0.0927870600    0.0187160610    0.0003206479    
0.0930097210    0.0199592820    0.0003283061    
0.0932323820    0.0205551930    0.0003356202    
