# Diamond Light Source Ltd.
# Data extracted from: /dls/b21/data/2018/cm19678-3/processed/b21-386631_00509.dat
q(1/A)          Column          Error           
0.0035000000    2.0138927000    0.0241918850    
0.0037226610    1.8779017000    0.0228689530    
0.0039453220    1.5953816000    0.0191755920    
0.0041679830    1.2996331000    0.0142131930    
0.0043906440    0.9641905600    0.0117097610    
0.0046133050    0.7669467600    0.0100256620    
0.0048359660    0.5934615600    0.0083420815    
0.0050586270    0.4574519200    0.0071988362    
0.0052812880    0.4154157000    0.0064861214    
0.0055039490    0.3899563600    0.0059753340    
0.0057266100    0.3111450700    0.0051635667    
0.0059492710    0.2717271000    0.0048254169    
0.0061719320    0.2199328600    0.0041833201    
0.0063945930    0.2010882600    0.0040485745    
0.0066172539    0.1750038000    0.0035464839    
0.0068399149    0.1660537400    0.0034002001    
0.0070625759    0.1382481200    0.0030706645    
0.0072852369    0.1275901900    0.0029057869    
0.0075078979    0.1150028600    0.0027451752    
0.0077305589    0.0982411260    0.0024889124    
0.0079532199    0.0988485580    0.0024619987    
0.0081758809    0.0889524820    0.0023572361    
0.0083985419    0.0808592570    0.0020961786    
0.0086212029    0.0790660200    0.0020728047    
0.0088438639    0.0686038840    0.0019152937    
0.0090665249    0.0660911350    0.0018156631    
0.0092891859    0.0643396640    0.0018698335    
0.0095118469    0.0577934300    0.0017042353    
0.0097345079    0.0564579350    0.0016359466    
0.0099571689    0.0558813610    0.0015940100    
0.0101798300    0.0500613420    0.0015087206    
0.0104024910    0.0512585980    0.0015214889    
0.0106251520    0.0459691510    0.0014457423    
0.0108478130    0.0447177350    0.0013886424    
0.0110704740    0.0435433570    0.0013046058    
0.0112931350    0.0441926770    0.0013181570    
0.0115157960    0.0422021310    0.0012806176    
0.0117384570    0.0373537240    0.0011944404    
0.0119611180    0.0372226860    0.0011957650    
0.0121837790    0.0376529250    0.0011824417    
0.0124064400    0.0364889250    0.0011154990    
0.0126291010    0.0365123470    0.0011018909    
0.0128517620    0.0335534580    0.0010589377    
0.0130744230    0.0320039730    0.0010265279    
0.0132970840    0.0326372820    0.0010315658    
0.0135197450    0.0328179290    0.0010196034    
0.0137424060    0.0315717100    0.0009861346    
0.0139650670    0.0320948040    0.0009721236    
0.0141877280    0.0300778440    0.0009431619    
0.0144103890    0.0284211420    0.0009010108    
0.0146330500    0.0287100430    0.0008998289    
0.0148557110    0.0280782700    0.0008861423    
0.0150783720    0.0276986010    0.0008728570    
0.0153010330    0.0284737300    0.0008725083    
0.0155236940    0.0266566470    0.0008391893    
0.0157463550    0.0287513090    0.0008564375    
0.0159690160    0.0262042390    0.0008145193    
0.0161916770    0.0261601530    0.0008092489    
0.0164143380    0.0247790260    0.0007935639    
0.0166369990    0.0255662450    0.0007812179    
0.0168596600    0.0260089200    0.0007810099    
0.0170823210    0.0257218360    0.0007699630    
0.0173049820    0.0257877180    0.0007722812    
0.0175276430    0.0247520330    0.0007645928    
0.0177503040    0.0235958500    0.0007274912    
0.0179729650    0.0231521370    0.0007134720    
0.0181956260    0.0237112780    0.0007081939    
0.0184182870    0.0226920830    0.0006895411    
0.0186409480    0.0228953680    0.0006970066    
0.0188636090    0.0229854400    0.0006939841    
0.0190862700    0.0235402440    0.0007012114    
0.0193089310    0.0232378700    0.0006956075    
0.0195315920    0.0234329070    0.0006747650    
0.0197542530    0.0239689200    0.0006834329    
0.0199769140    0.0226438170    0.0006642729    
0.0201995750    0.0222800680    0.0006485979    
0.0204222360    0.0225681810    0.0006583815    
0.0206448970    0.0225893550    0.0006540088    
0.0208675580    0.0221590050    0.0006344105    
0.0210902190    0.0221443220    0.0006403196    
0.0213128800    0.0221419850    0.0006315978    
0.0215355410    0.0231654590    0.0006383341    
0.0217582020    0.0220045560    0.0006221340    
0.0219808630    0.0216661160    0.0006165206    
0.0222035240    0.0212752400    0.0006053980    
0.0224261850    0.0220658120    0.0006110561    
0.0226488460    0.0217356590    0.0006019134    
0.0228715070    0.0223243990    0.0006084953    
0.0230941680    0.0205497340    0.0005838087    
0.0233168290    0.0210522780    0.0005923760    
0.0235394900    0.0212911740    0.0005891529    
0.0237621510    0.0225992310    0.0005906404    
0.0239848120    0.0200057780    0.0005563604    
0.0242074730    0.0207373590    0.0005619076    
0.0244301340    0.0220360690    0.0005798966    
0.0246527950    0.0208449830    0.0005692292    
0.0248754560    0.0215078730    0.0005652144    
0.0250981170    0.0217530980    0.0005696949    
0.0253207780    0.0207543570    0.0005398487    
0.0255434390    0.0219312600    0.0005608669    
0.0257661000    0.0199512110    0.0005366798    
0.0259887610    0.0209001520    0.0005434572    
0.0262114220    0.0196952280    0.0005303699    
0.0264340830    0.0215252970    0.0005469195    
0.0266567440    0.0204503300    0.0005297942    
0.0268794050    0.0207193620    0.0005310911    
0.0271020660    0.0213486340    0.0005369133    
0.0273247270    0.0210262650    0.0005296439    
0.0275473880    0.0204244200    0.0005209701    
0.0277700490    0.0210109780    0.0005252744    
0.0279927100    0.0203878580    0.0005129122    
0.0282153710    0.0208992880    0.0005218303    
0.0284380320    0.0202455650    0.0005106268    
0.0286606930    0.0209258860    0.0005146920    
0.0288833540    0.0209165110    0.0005155542    
0.0291060150    0.0204075470    0.0005087598    
0.0293286760    0.0203484000    0.0005009430    
0.0295513370    0.0202454770    0.0004942333    
0.0297739980    0.0212486850    0.0005119051    
0.0299966590    0.0205767020    0.0004951418    
0.0302193200    0.0210336260    0.0005079045    
0.0304419810    0.0197816630    0.0004934633    
0.0306646420    0.0212265740    0.0004967405    
0.0308873030    0.0197182900    0.0004766990    
0.0311099640    0.0197397320    0.0004781966    
0.0313326250    0.0205396720    0.0004823859    
0.0315552860    0.0211568740    0.0004959248    
0.0317779470    0.0203553110    0.0004868633    
0.0320006080    0.0201971370    0.0004739493    
0.0322232690    0.0199852750    0.0004734306    
0.0324459300    0.0201188670    0.0004714640    
0.0326685910    0.0193588420    0.0004617107    
0.0328912520    0.0196313740    0.0004664890    
0.0331139130    0.0197826520    0.0004621913    
0.0333365740    0.0209547200    0.0004772307    
0.0335592350    0.0204684000    0.0004671252    
0.0337818960    0.0203826010    0.0004657740    
0.0340045570    0.0193736280    0.0004533781    
0.0342272170    0.0202000410    0.0004611208    
0.0344498780    0.0205513490    0.0004669555    
0.0346725390    0.0193883610    0.0004451511    
0.0348952000    0.0205185800    0.0004558559    
0.0351178610    0.0200527220    0.0004527139    
0.0353405220    0.0198603090    0.0004484843    
0.0355631830    0.0202135710    0.0004507513    
0.0357858440    0.0200527590    0.0004489549    
0.0360085050    0.0201235580    0.0004511056    
0.0362311660    0.0201515180    0.0004460528    
0.0364538270    0.0200819440    0.0004417083    
0.0366764880    0.0199460960    0.0004398923    
0.0368991490    0.0200816360    0.0004391593    
0.0371218100    0.0198523090    0.0004353953    
0.0373444710    0.0204822060    0.0004470648    
0.0375671320    0.0202085380    0.0004434214    
0.0377897930    0.0200344120    0.0004300775    
0.0380124540    0.0196602470    0.0004287156    
0.0382351150    0.0195106810    0.0004270819    
0.0384577760    0.0199245500    0.0004274238    
0.0386804370    0.0197922620    0.0004292535    
0.0389030980    0.0196311640    0.0004242655    
0.0391257590    0.0198358770    0.0004235767    
0.0393484200    0.0197834440    0.0004215929    
0.0395710810    0.0190170070    0.0004139025    
0.0397937420    0.0193323190    0.0004173199    
0.0400164030    0.0199712780    0.0004258859    
0.0402390640    0.0206100580    0.0004268822    
0.0404617250    0.0197996510    0.0004159370    
0.0406843860    0.0203444280    0.0004175468    
0.0409070470    0.0193268930    0.0004112105    
0.0411297080    0.0195983110    0.0004100819    
0.0413523690    0.0197426030    0.0004126497    
0.0415750300    0.0198601300    0.0004173918    
0.0417976910    0.0198533500    0.0004065272    
0.0420203520    0.0197428310    0.0004069173    
0.0422430130    0.0191236010    0.0004020013    
0.0424656740    0.0195757210    0.0004014319    
0.0426883350    0.0200116230    0.0004078911    
0.0429109960    0.0192668070    0.0004014790    
0.0431336570    0.0196791560    0.0004000357    
0.0433563180    0.0197471450    0.0004041831    
0.0435789790    0.0198448670    0.0003988163    
0.0438016400    0.0196886640    0.0003994047    
0.0440243010    0.0201009180    0.0003994699    
0.0442469620    0.0194587720    0.0003953924    
0.0444696230    0.0205957290    0.0004053209    
0.0446922840    0.0207907620    0.0004060262    
0.0449149450    0.0207634750    0.0004003353    
0.0451376060    0.0195945500    0.0003937062    
0.0453602670    0.0191393990    0.0003850276    
0.0455829280    0.0198911150    0.0003920621    
0.0458055890    0.0199205050    0.0003946396    
0.0460282500    0.0197253100    0.0003879659    
0.0462509110    0.0195711380    0.0003840432    
0.0464735720    0.0199252050    0.0003877203    
0.0466962330    0.0196956530    0.0003872328    
0.0469188940    0.0203941550    0.0003929225    
0.0471415550    0.0195716770    0.0003868948    
0.0473642160    0.0196594480    0.0003823320    
0.0475868770    0.0195529440    0.0003794007    
0.0478095380    0.0198492330    0.0003805917    
0.0480321990    0.0198190360    0.0003811353    
0.0482548600    0.0196975730    0.0003783101    
0.0484775210    0.0187937800    0.0003731982    
0.0487001820    0.0201040000    0.0003803376    
0.0489228430    0.0192701910    0.0003721668    
0.0491455040    0.0191392360    0.0003683348    
0.0493681650    0.0201546380    0.0003812274    
0.0495908260    0.0200118800    0.0003734834    
0.0498134870    0.0202100010    0.0003789005    
0.0500361480    0.0197145620    0.0003732373    
0.0502588090    0.0193133090    0.0003638843    
0.0504814700    0.0197652800    0.0003729298    
0.0507041310    0.0198751690    0.0003695189    
0.0509267920    0.0196589680    0.0003690239    
0.0511494530    0.0191721150    0.0003619959    
0.0513721140    0.0198382130    0.0003714734    
0.0515947750    0.0197490940    0.0003657240    
0.0518174360    0.0197260080    0.0003633084    
0.0520400970    0.0200407030    0.0003636558    
0.0522627580    0.0197317690    0.0003639086    
0.0524854190    0.0194741480    0.0003644646    
0.0527080800    0.0198322900    0.0003706484    
0.0529307410    0.0194666210    0.0003689402    
0.0531534020    0.0195125570    0.0003680305    
0.0533760630    0.0199352680    0.0003731600    
0.0535987240    0.0200609530    0.0003725868    
0.0538213850    0.0196858280    0.0003733630    
0.0540440460    0.0197875250    0.0003725546    
0.0542667070    0.0202034290    0.0003790439    
0.0544893680    0.0193920460    0.0003715524    
0.0547120290    0.0195977150    0.0003709587    
0.0549346900    0.0196886330    0.0003720138    
0.0551573510    0.0197087790    0.0003765856    
0.0553800120    0.0196792770    0.0003731046    
0.0556026730    0.0203637550    0.0003874070    
0.0558253340    0.0198069220    0.0003852729    
0.0560479950    0.0185779070    0.0003731286    
0.0562706560    0.0196188030    0.0003871462    
0.0564933170    0.0193624920    0.0003879488    
0.0567159780    0.0200011940    0.0003895679    
0.0569386390    0.0194437750    0.0003901259    
0.0571613000    0.0196496640    0.0003837415    
0.0573839610    0.0195826740    0.0003799061    
0.0576066220    0.0195207910    0.0003803553    
0.0578292830    0.0197893740    0.0003816958    
0.0580519440    0.0193124980    0.0003785309    
0.0582746050    0.0195249610    0.0003789290    
0.0584972660    0.0198355360    0.0003804690    
0.0587199270    0.0188423290    0.0003676246    
0.0589425880    0.0199198240    0.0003757789    
0.0591652490    0.0196672160    0.0003755858    
0.0593879100    0.0197718980    0.0003737873    
0.0596105710    0.0194622480    0.0003704576    
0.0598332320    0.0197103130    0.0003759977    
0.0600558930    0.0193252320    0.0003699329    
0.0602785540    0.0197437160    0.0003735216    
0.0605012150    0.0197872670    0.0003731455    
0.0607238760    0.0195068560    0.0003677921    
0.0609465370    0.0194207320    0.0003698684    
0.0611691980    0.0195742050    0.0003719155    
0.0613918590    0.0198680970    0.0003706064    
0.0616145200    0.0198513470    0.0003731614    
0.0618371810    0.0196421430    0.0003675444    
0.0620598420    0.0191657870    0.0003634345    
0.0622825030    0.0195788640    0.0003729476    
0.0625051640    0.0196750320    0.0003686118    
0.0627278250    0.0192845980    0.0003641846    
0.0629504860    0.0199128150    0.0003670604    
0.0631731470    0.0195903070    0.0003685802    
0.0633958080    0.0201952430    0.0003763815    
0.0636184690    0.0198891090    0.0003787200    
0.0638411300    0.0198474300    0.0003769028    
0.0640637910    0.0187993110    0.0003693959    
0.0642864520    0.0201779000    0.0003818724    
0.0645091130    0.0197461840    0.0003810755    
0.0647317740    0.0199003060    0.0003829816    
0.0649544350    0.0195108930    0.0003787987    
0.0651770960    0.0209862380    0.0003907164    
0.0653997570    0.0197654460    0.0003783597    
0.0656224180    0.0192768320    0.0003744663    
0.0658450790    0.0197160020    0.0003732646    
0.0660677400    0.0193140240    0.0003710121    
0.0662904010    0.0194203130    0.0003764730    
0.0665130620    0.0203374370    0.0003835887    
0.0667357230    0.0194182640    0.0003814843    
0.0669583840    0.0198766540    0.0003846694    
0.0671810450    0.0197682090    0.0003815006    
0.0674037060    0.0194767020    0.0003850926    
0.0676263670    0.0200103750    0.0003874750    
0.0678490280    0.0203074070    0.0003879531    
0.0680716890    0.0195417720    0.0003814163    
0.0682943500    0.0189412730    0.0003713975    
0.0685170110    0.0194847180    0.0003728492    
0.0687396720    0.0195374490    0.0003723615    
0.0689623330    0.0197311530    0.0003730170    
0.0691849940    0.0196122680    0.0003744682    
0.0694076550    0.0198341770    0.0003763797    
0.0696303160    0.0201540270    0.0003763986    
0.0698529770    0.0194536180    0.0003690253    
0.0700756380    0.0193871400    0.0003636652    
0.0702982990    0.0197210770    0.0003707782    
0.0705209600    0.0191487740    0.0003627208    
0.0707436210    0.0199876600    0.0003688790    
0.0709662820    0.0198117760    0.0003716305    
0.0711889430    0.0193620990    0.0003628764    
0.0714116040    0.0194958620    0.0003648710    
0.0716342650    0.0198797330    0.0003669497    
0.0718569260    0.0190077190    0.0003573662    
0.0720795870    0.0195478890    0.0003638746    
0.0723022480    0.0193561330    0.0003626372    
0.0725249090    0.0196712710    0.0003611993    
0.0727475700    0.0194555710    0.0003622817    
0.0729702310    0.0197638840    0.0003622287    
0.0731928920    0.0188782220    0.0003554345    
0.0734155530    0.0195294830    0.0003607920    
0.0736382140    0.0193125230    0.0003564798    
0.0738608750    0.0194495500    0.0003600534    
0.0740835360    0.0191010710    0.0003559274    
0.0743061970    0.0199530010    0.0003586558    
0.0745288580    0.0194573880    0.0003578153    
0.0747515190    0.0194154100    0.0003581350    
0.0749741800    0.0193040410    0.0003538008    
0.0751968410    0.0201616440    0.0003644133    
0.0754195020    0.0191970080    0.0003535055    
0.0756421630    0.0201331550    0.0003590629    
0.0758648240    0.0199276480    0.0003580844    
0.0760874850    0.0195421000    0.0003544332    
0.0763101460    0.0196906810    0.0003554367    
0.0765328070    0.0195260350    0.0003575693    
0.0767554680    0.0197334770    0.0003570245    
0.0769781290    0.0193668530    0.0003516599    
0.0772007900    0.0192710810    0.0003479759    
0.0774234510    0.0192557940    0.0003498163    
0.0776461120    0.0190670490    0.0003477675    
0.0778687730    0.0195966010    0.0003513990    
0.0780914340    0.0195261160    0.0003532728    
0.0783140950    0.0200071180    0.0003519240    
0.0785367560    0.0199607950    0.0003571839    
0.0787594170    0.0198181500    0.0003527165    
0.0789820780    0.0197149900    0.0003499947    
0.0792047390    0.0200755150    0.0003543351    
0.0794274000    0.0194323720    0.0003500902    
0.0796500610    0.0195682220    0.0003478829    
0.0798727220    0.0198346010    0.0003499195    
0.0800953830    0.0195284070    0.0003464096    
0.0803180440    0.0192219700    0.0003460751    
0.0805407050    0.0197210870    0.0003502134    
0.0807633660    0.0194299780    0.0003472963    
0.0809860270    0.0195270570    0.0003468771    
0.0812086880    0.0196633790    0.0003450778    
0.0814313490    0.0193053580    0.0003434813    
0.0816540100    0.0191932210    0.0003417025    
0.0818766710    0.0187615140    0.0003386092    
0.0820993320    0.0190767990    0.0003408202    
0.0823219930    0.0191485360    0.0003428687    
0.0825446540    0.0193129810    0.0003418361    
0.0827673150    0.0194005790    0.0003403087    
0.0829899760    0.0195457010    0.0003409710    
0.0832126370    0.0192530620    0.0003399246    
0.0834352980    0.0191610880    0.0003383535    
0.0836579590    0.0191591550    0.0003375833    
0.0838806200    0.0195366250    0.0003419593    
0.0841032810    0.0193539360    0.0003382439    
0.0843259420    0.0195815430    0.0003391792    
0.0845486030    0.0194053210    0.0003376498    
0.0847712640    0.0195235460    0.0003366129    
0.0849939250    0.0191955760    0.0003343548    
0.0852165860    0.0189422620    0.0003325764    
0.0854392470    0.0192956040    0.0003324852    
0.0856619080    0.0189529830    0.0003319470    
0.0858845690    0.0197664480    0.0003359426    
0.0861072300    0.0197913880    0.0003384751    
0.0863298910    0.0193557650    0.0003364821    
0.0865525520    0.0191149160    0.0003314947    
0.0867752130    0.0192715120    0.0003301640    
0.0869978740    0.0197109850    0.0003347583    
0.0872205350    0.0197969600    0.0003350608    
0.0874431960    0.0199727880    0.0003365457    
0.0876658570    0.0200235950    0.0003382673    
0.0878885180    0.0193124790    0.0003327760    
0.0881111790    0.0193144220    0.0003323657    
0.0883338400    0.0196692550    0.0003304940    
0.0885565010    0.0196814920    0.0003350800    
0.0887791620    0.0196578790    0.0003305363    
0.0890018230    0.0198710890    0.0003355473    
0.0892244840    0.0197226640    0.0003348601    
0.0894471450    0.0190941260    0.0003280894    
0.0896698060    0.0193867630    0.0003293470    
0.0898924670    0.0190022060    0.0003275756    
0.0901151280    0.0200361280    0.0003327361    
0.0903377890    0.0189064570    0.0003259250    
0.0905604500    0.0197688050    0.0003317455    
0.0907831110    0.0189227410    0.0003237614    
0.0910057720    0.0198012010    0.0003327111    
0.0912284330    0.0192816930    0.0003236167    
0.0914510940    0.0190199630    0.0003249970    
0.0916737550    0.0195500890    0.0003286774    
0.0918964160    0.0197631840    0.0003318382    
0.0921190770    0.0198889060    0.0003298821    
0.0923417380    0.0188374090    0.0003211752    
0.0925643990    0.0191867130    0.0003233461    
0.0927870600    0.0194707630    0.0003270665    
0.0930097210    0.0191351140    0.0003214737    
0.0932323820    0.0198339870    0.0003296976    
