# Diamond Light Source Ltd.
# Data extracted from: /dls/b21/data/2018/cm19678-3/processed/b21-386631_00504.dat
q(1/A)          Column          Error           
0.0035000000    2.0689125000    0.0245155220    
0.0037226610    1.8702375000    0.0228179580    
0.0039453220    1.5869498000    0.0191212650    
0.0041679830    1.2727308000    0.0140626800    
0.0043906440    0.9511768800    0.0116282880    
0.0046133050    0.7832971100    0.0101300650    
0.0048359660    0.5968727100    0.0083644527    
0.0050586270    0.4689444900    0.0072873365    
0.0052812880    0.4209289600    0.0065277958    
0.0055039490    0.3868812500    0.0059506110    
0.0057266100    0.3202795500    0.0052378309    
0.0059492710    0.2736810000    0.0048418265    
0.0061719320    0.2267704000    0.0042470538    
0.0063945930    0.2009313500    0.0040462356    
0.0066172539    0.1807574600    0.0036036359    
0.0068399149    0.1683577900    0.0034230661    
0.0070625759    0.1486274600    0.0031832505    
0.0072852369    0.1256900600    0.0028835277    
0.0075078979    0.1127325800    0.0027174341    
0.0077305589    0.0972587930    0.0024759730    
0.0079532199    0.1001600300    0.0024778123    
0.0081758809    0.0894186630    0.0023629616    
0.0083985419    0.0815350940    0.0021045257    
0.0086212029    0.0748536830    0.0020164551    
0.0088438639    0.0704489510    0.0019405142    
0.0090665249    0.0660164840    0.0018142971    
0.0092891859    0.0617081450    0.0018308524    
0.0095118469    0.0605347490    0.0017438584    
0.0097345079    0.0585217440    0.0016652666    
0.0099571689    0.0538150640    0.0015639685    
0.0101798300    0.0503152760    0.0015122586    
0.0104024910    0.0482598140    0.0014760355    
0.0106251520    0.0472700150    0.0014657809    
0.0108478130    0.0443992200    0.0013834285    
0.0110704740    0.0431362970    0.0012982500    
0.0112931350    0.0415035250    0.0012771827    
0.0115157960    0.0437401250    0.0013034994    
0.0117384570    0.0396304930    0.0012300727    
0.0119611180    0.0395510690    0.0012323657    
0.0121837790    0.0357086070    0.0011512917    
0.0124064400    0.0343276310    0.0010817555    
0.0126291010    0.0364986520    0.0011014776    
0.0128517620    0.0349773840    0.0010809709    
0.0130744230    0.0321894500    0.0010293051    
0.0132970840    0.0327228180    0.0010327230    
0.0135197450    0.0300507070    0.0009754872    
0.0137424060    0.0317753990    0.0009891250    
0.0139650670    0.0306993800    0.0009505773    
0.0141877280    0.0298300510    0.0009390926    
0.0144103890    0.0304663160    0.0009326909    
0.0146330500    0.0279944790    0.0008883779    
0.0148557110    0.0273688400    0.0008747119    
0.0150783720    0.0277432040    0.0008733957    
0.0153010330    0.0269664010    0.0008489408    
0.0155236940    0.0258807890    0.0008267315    
0.0157463550    0.0271339120    0.0008318434    
0.0159690160    0.0256629290    0.0008059113    
0.0161916770    0.0259251220    0.0008054544    
0.0164143380    0.0251508050    0.0007993451    
0.0166369990    0.0260100410    0.0007878214    
0.0168596600    0.0269369160    0.0007946719    
0.0170823210    0.0256891480    0.0007693293    
0.0173049820    0.0234429940    0.0007361971    
0.0175276430    0.0234678360    0.0007443546    
0.0177503040    0.0244614230    0.0007405755    
0.0179729650    0.0247478900    0.0007375118    
0.0181956260    0.0240829760    0.0007135892    
0.0184182870    0.0223065590    0.0006835303    
0.0186409480    0.0225049800    0.0006909091    
0.0188636090    0.0228302020    0.0006915069    
0.0190862700    0.0233643770    0.0006984562    
0.0193089310    0.0239784820    0.0007064728    
0.0195315920    0.0234046950    0.0006742322    
0.0197542530    0.0238820110    0.0006820648    
0.0199769140    0.0220898940    0.0006559747    
0.0201995750    0.0234796690    0.0006657049    
0.0204222360    0.0226941140    0.0006600920    
0.0206448970    0.0221266140    0.0006471541    
0.0208675580    0.0222051630    0.0006349518    
0.0210902190    0.0229318760    0.0006514843    
0.0213128800    0.0216294130    0.0006241274    
0.0215355410    0.0221193750    0.0006236380    
0.0217582020    0.0218732220    0.0006201583    
0.0219808630    0.0217106000    0.0006170374    
0.0222035240    0.0215427880    0.0006090785    
0.0224261850    0.0217868910    0.0006070680    
0.0226488460    0.0219774390    0.0006051384    
0.0228715070    0.0218186400    0.0006014503    
0.0230941680    0.0219844440    0.0006037314    
0.0233168290    0.0206611510    0.0005867373    
0.0235394900    0.0214298570    0.0005909577    
0.0237621510    0.0213254250    0.0005736456    
0.0239848120    0.0213593330    0.0005747657    
0.0242074730    0.0205469410    0.0005592169    
0.0244301340    0.0210515020    0.0005666874    
0.0246527950    0.0220336310    0.0005851241    
0.0248754560    0.0214404140    0.0005642214    
0.0250981170    0.0212975120    0.0005635919    
0.0253207780    0.0215045670    0.0005494160    
0.0255434390    0.0205178950    0.0005423916    
0.0257661000    0.0212569540    0.0005538596    
0.0259887610    0.0201012580    0.0005328694    
0.0262114220    0.0204873470    0.0005408288    
0.0264340830    0.0214755500    0.0005461847    
0.0266567440    0.0203054600    0.0005278153    
0.0268794050    0.0206979820    0.0005307175    
0.0271020660    0.0206522200    0.0005279843    
0.0273247270    0.0211250700    0.0005307874    
0.0275473880    0.0193673620    0.0005072145    
0.0277700490    0.0207930660    0.0005224454    
0.0279927100    0.0212960310    0.0005241132    
0.0282153710    0.0203704660    0.0005150894    
0.0284380320    0.0197745060    0.0005045568    
0.0286606930    0.0209053830    0.0005143433    
0.0288833540    0.0205148810    0.0005104847    
0.0291060150    0.0207548940    0.0005129750    
0.0293286760    0.0216721630    0.0005168837    
0.0295513370    0.0194780590    0.0004846848    
0.0297739980    0.0206366550    0.0005043843    
0.0299966590    0.0205094330    0.0004942391    
0.0302193200    0.0196771470    0.0004911618    
0.0304419810    0.0207586490    0.0005054073    
0.0306646420    0.0202541300    0.0004851376    
0.0308873030    0.0196417730    0.0004756840    
0.0311099640    0.0199407680    0.0004805353    
0.0313326250    0.0200110240    0.0004760483    
0.0315552860    0.0202193150    0.0004847210    
0.0317779470    0.0201497860    0.0004843083    
0.0320006080    0.0203563250    0.0004757242    
0.0322232690    0.0196638740    0.0004695202    
0.0324459300    0.0206524820    0.0004775858    
0.0326685910    0.0200340600    0.0004696056    
0.0328912520    0.0206877630    0.0004787859    
0.0331139130    0.0201962120    0.0004669098    
0.0333365740    0.0201972060    0.0004684374    
0.0335592350    0.0205672890    0.0004681644    
0.0337818960    0.0204600730    0.0004665708    
0.0340045570    0.0200345330    0.0004609600    
0.0342272170    0.0197084340    0.0004553897    
0.0344498780    0.0200345570    0.0004609605    
0.0346725390    0.0199327910    0.0004512731    
0.0348952000    0.0203185310    0.0004535432    
0.0351178610    0.0209647050    0.0004628072    
0.0353405220    0.0206931390    0.0004577053    
0.0355631830    0.0206681850    0.0004557065    
0.0357858440    0.0193519440    0.0004409572    
0.0360085050    0.0192062410    0.0004406214    
0.0362311660    0.0199959150    0.0004442440    
0.0364538270    0.0196762260    0.0004371415    
0.0366764880    0.0193567480    0.0004332635    
0.0368991490    0.0197188940    0.0004350932    
0.0371218100    0.0198353170    0.0004351274    
0.0373444710    0.0208159280    0.0004506077    
0.0375671320    0.0200258900    0.0004413302    
0.0377897930    0.0203499120    0.0004333694    
0.0380124540    0.0188585340    0.0004198048    
0.0382351150    0.0195687790    0.0004276371    
0.0384577760    0.0196696020    0.0004246007    
0.0386804370    0.0198965120    0.0004303017    
0.0389030980    0.0195321440    0.0004231148    
0.0391257590    0.0194577280    0.0004194411    
0.0393484200    0.0203508040    0.0004275152    
0.0395710810    0.0198473530    0.0004227628    
0.0397937420    0.0203516560    0.0004281003    
0.0400164030    0.0193918370    0.0004195834    
0.0402390640    0.0206465200    0.0004271795    
0.0404617250    0.0193904400    0.0004115392    
0.0406843860    0.0209107510    0.0004232391    
0.0409070470    0.0195382910    0.0004133757    
0.0411297080    0.0196338480    0.0004103765    
0.0413523690    0.0201576640    0.0004168866    
0.0415750300    0.0205541890    0.0004245429    
0.0417976910    0.0197294070    0.0004051803    
0.0420203520    0.0201126960    0.0004106342    
0.0422430130    0.0197922190    0.0004088918    
0.0424656740    0.0194778600    0.0004003521    
0.0426883350    0.0190483740    0.0003978786    
0.0429109960    0.0194268370    0.0004030672    
0.0431336570    0.0199156400    0.0004023567    
0.0433563180    0.0202193800    0.0004089106    
0.0435789790    0.0199656130    0.0003999527    
0.0438016400    0.0199161590    0.0004016302    
0.0440243010    0.0197203970    0.0003955965    
0.0442469620    0.0196442210    0.0003971976    
0.0444696230    0.0200059260    0.0003994003    
0.0446922840    0.0193720690    0.0003918550    
0.0449149450    0.0200458270    0.0003932823    
0.0451376060    0.0191364650    0.0003890040    
0.0453602670    0.0193180450    0.0003867478    
0.0455829280    0.0194665150    0.0003877823    
0.0458055890    0.0199208490    0.0003945690    
0.0460282500    0.0194204260    0.0003848837    
0.0462509110    0.0202719210    0.0003907852    
0.0464735720    0.0200082320    0.0003884544    
0.0466962330    0.0191631440    0.0003818905    
0.0469188940    0.0199173290    0.0003882292    
0.0471415550    0.0200918620    0.0003919291    
0.0473642160    0.0196520740    0.0003821885    
0.0475868770    0.0192218120    0.0003761038    
0.0478095380    0.0194843440    0.0003770065    
0.0480321990    0.0192401130    0.0003754571    
0.0482548600    0.0201550220    0.0003826060    
0.0484775210    0.0194979000    0.0003800536    
0.0487001820    0.0195929690    0.0003754021    
0.0489228430    0.0196365830    0.0003756177    
0.0491455040    0.0194580110    0.0003713199    
0.0493681650    0.0197362070    0.0003771785    
0.0495908260    0.0195932770    0.0003694872    
0.0498134870    0.0195207220    0.0003723133    
0.0500361480    0.0196435960    0.0003724950    
0.0502588090    0.0196761490    0.0003672176    
0.0504814700    0.0200814200    0.0003758299    
0.0507041310    0.0199638590    0.0003702729    
0.0509267920    0.0198247050    0.0003705067    
0.0511494530    0.0199848140    0.0003695193    
0.0513721140    0.0197960050    0.0003710085    
0.0515947750    0.0197349160    0.0003655241    
0.0518174360    0.0195246330    0.0003613814    
0.0520400970    0.0194131270    0.0003578495    
0.0522627580    0.0193352470    0.0003601660    
0.0524854190    0.0195623020    0.0003652201    
0.0527080800    0.0196378890    0.0003687582    
0.0529307410    0.0197528860    0.0003715733    
0.0531534020    0.0200881060    0.0003733488    
0.0533760630    0.0192714450    0.0003668257    
0.0535987240    0.0191472540    0.0003639347    
0.0538213850    0.0196076580    0.0003725511    
0.0540440460    0.0202078190    0.0003764198    
0.0542667070    0.0195845020    0.0003731228    
0.0544893680    0.0196765410    0.0003741978    
0.0547120290    0.0192885420    0.0003679519    
0.0549346900    0.0195688240    0.0003708106    
0.0551573510    0.0195431430    0.0003749295    
0.0553800120    0.0197355360    0.0003735674    
0.0556026730    0.0193615180    0.0003776824    
0.0558253340    0.0200167400    0.0003872355    
0.0560479950    0.0193500340    0.0003807321    
0.0562706560    0.0198252770    0.0003891051    
0.0564933170    0.0203031770    0.0003971863    
0.0567159780    0.0193413930    0.0003830167    
0.0569386390    0.0194599560    0.0003902150    
0.0571613000    0.0192003050    0.0003792572    
0.0573839610    0.0189933010    0.0003740753    
0.0576066220    0.0193578950    0.0003786940    
0.0578292830    0.0196642010    0.0003804154    
0.0580519440    0.0198837450    0.0003840164    
0.0582746050    0.0200983880    0.0003843811    
0.0584972660    0.0203314590    0.0003851235    
0.0587199270    0.0191435660    0.0003704821    
0.0589425880    0.0198485770    0.0003750359    
0.0591652490    0.0196096490    0.0003749654    
0.0593879100    0.0199975870    0.0003758440    
0.0596105710    0.0193210190    0.0003690418    
0.0598332320    0.0192440460    0.0003714541    
0.0600558930    0.0194949530    0.0003714841    
0.0602785540    0.0194961410    0.0003711027    
0.0605012150    0.0201385830    0.0003763728    
0.0607238760    0.0197629530    0.0003701291    
0.0609465370    0.0199133950    0.0003744602    
0.0611691980    0.0198352900    0.0003743174    
0.0613918590    0.0192041510    0.0003642930    
0.0616145200    0.0193600750    0.0003684460    
0.0618371810    0.0194491530    0.0003656657    
0.0620598420    0.0193721610    0.0003653174    
0.0622825030    0.0197277510    0.0003742928    
0.0625051640    0.0193224850    0.0003652259    
0.0627278250    0.0193461150    0.0003646966    
0.0629504860    0.0198985820    0.0003668604    
0.0631731470    0.0202761610    0.0003749064    
0.0633958080    0.0198160300    0.0003727611    
0.0636184690    0.0198672320    0.0003784406    
0.0638411300    0.0194464780    0.0003730064    
0.0640637910    0.0191550440    0.0003728045    
0.0642864520    0.0189999900    0.0003704892    
0.0645091130    0.0193932580    0.0003775838    
0.0647317740    0.0198044290    0.0003819862    
0.0649544350    0.0197976360    0.0003815005    
0.0651770960    0.0199458090    0.0003808367    
0.0653997570    0.0193453510    0.0003742470    
0.0656224180    0.0197422520    0.0003788888    
0.0658450790    0.0197651190    0.0003736591    
0.0660677400    0.0194635130    0.0003723753    
0.0662904010    0.0200331370    0.0003822951    
0.0665130620    0.0192666700    0.0003732841    
0.0667357230    0.0195533230    0.0003827369    
0.0669583840    0.0195045580    0.0003809804    
0.0671810450    0.0193412910    0.0003772878    
0.0674037060    0.0197129540    0.0003873485    
0.0676263670    0.0196503630    0.0003839016    
0.0678490280    0.0197145040    0.0003821760    
0.0680716890    0.0199809430    0.0003856060    
0.0682943500    0.0197785980    0.0003794466    
0.0685170110    0.0194988050    0.0003729140    
0.0687396720    0.0192250730    0.0003693035    
0.0689623330    0.0199775240    0.0003752682    
0.0691849940    0.0196406480    0.0003746687    
0.0694076550    0.0197339220    0.0003753569    
0.0696303160    0.0197951170    0.0003729621    
0.0698529770    0.0194883070    0.0003692849    
0.0700756380    0.0194344210    0.0003640401    
0.0702982990    0.0196161220    0.0003697209    
0.0705209600    0.0199039590    0.0003697348    
0.0707436210    0.0198644740    0.0003676715    
0.0709662820    0.0195743860    0.0003693280    
0.0711889430    0.0199258960    0.0003680526    
0.0714116040    0.0201097260    0.0003705013    
0.0716342650    0.0197639430    0.0003658108    
0.0718569260    0.0189468590    0.0003567268    
0.0720795870    0.0195337860    0.0003636751    
0.0723022480    0.0193284990    0.0003623103    
0.0725249090    0.0198230070    0.0003625216    
0.0727475700    0.0192527120    0.0003603204    
0.0729702310    0.0187676520    0.0003529151    
0.0731928920    0.0197541580    0.0003635187    
0.0734155530    0.0196287630    0.0003616401    
0.0736382140    0.0193776330    0.0003570133    
0.0738608750    0.0195621860    0.0003610267    
0.0740835360    0.0199756740    0.0003639166    
0.0743061970    0.0200937390    0.0003598510    
0.0745288580    0.0191869840    0.0003552536    
0.0747515190    0.0196920850    0.0003606101    
0.0749741800    0.0199709250    0.0003597927    
0.0751968410    0.0193376470    0.0003568220    
0.0754195020    0.0193199520    0.0003545691    
0.0756421630    0.0198439480    0.0003564078    
0.0758648240    0.0198622850    0.0003574296    
0.0760874850    0.0193741220    0.0003528405    
0.0763101460    0.0193369620    0.0003521637    
0.0765328070    0.0195841660    0.0003580340    
0.0767554680    0.0197067040    0.0003567153    
0.0769781290    0.0187085250    0.0003455665    
0.0772007900    0.0194397210    0.0003494296    
0.0774234510    0.0192168080    0.0003493965    
0.0776461120    0.0199983090    0.0003560922    
0.0778687730    0.0197467200    0.0003526762    
0.0780914340    0.0192504490    0.0003507045    
0.0783140950    0.0191704220    0.0003444221    
0.0785367560    0.0197041320    0.0003548135    
0.0787594170    0.0197165890    0.0003517456    
0.0789820780    0.0190181710    0.0003436894    
0.0792047390    0.0194990800    0.0003491455    
0.0794274000    0.0186243740    0.0003426703    
0.0796500610    0.0199998270    0.0003516326    
0.0798727220    0.0193026340    0.0003451304    
0.0800953830    0.0198159260    0.0003488849    
0.0803180440    0.0191088760    0.0003449908    
0.0805407050    0.0199810150    0.0003524476    
0.0807633660    0.0198694740    0.0003511363    
0.0809860270    0.0192302330    0.0003441661    
0.0812086880    0.0193714850    0.0003424427    
0.0814313490    0.0198662480    0.0003483699    
0.0816540100    0.0191069670    0.0003408699    
0.0818766710    0.0195364220    0.0003454664    
0.0820993320    0.0192522450    0.0003423196    
0.0823219930    0.0191045320    0.0003424103    
0.0825446540    0.0205758520    0.0003527692    
0.0827673150    0.0189875350    0.0003366034    
0.0829899760    0.0195859370    0.0003412578    
0.0832126370    0.0195218100    0.0003422247    
0.0834352980    0.0193330760    0.0003398049    
0.0836579590    0.0197762950    0.0003429129    
0.0838806200    0.0188232750    0.0003355953    
0.0841032810    0.0197603190    0.0003417125    
0.0843259420    0.0192218280    0.0003359864    
0.0845486030    0.0200029470    0.0003427454    
0.0847712640    0.0190927130    0.0003328156    
0.0849939250    0.0199451990    0.0003407569    
0.0852165860    0.0198223780    0.0003401511    
0.0854392470    0.0194716280    0.0003339357    
0.0856619080    0.0191841500    0.0003339026    
0.0858845690    0.0198560600    0.0003366401    
0.0861072300    0.0193152600    0.0003343162    
0.0863298910    0.0201261870    0.0003430489    
0.0865525520    0.0199640030    0.0003387137    
0.0867752130    0.0194452220    0.0003315865    
0.0869978740    0.0191068570    0.0003295265    
0.0872205350    0.0196024670    0.0003333483    
0.0874431960    0.0191319920    0.0003293240    
0.0876658570    0.0190792590    0.0003301325    
0.0878885180    0.0195689050    0.0003349151    
0.0881111790    0.0190956390    0.0003304159    
0.0883338400    0.0198506140    0.0003319519    
0.0885565010    0.0193946810    0.0003325671    
0.0887791620    0.0197449530    0.0003312054    
0.0890018230    0.0192519250    0.0003302163    
0.0892244840    0.0193685870    0.0003317784    
0.0894471450    0.0194476270    0.0003310504    
0.0896698060    0.0191949250    0.0003276520    
0.0898924670    0.0200450300    0.0003363809    
0.0901151280    0.0195646290    0.0003287361    
0.0903377890    0.0194610110    0.0003306083    
0.0905604500    0.0191659330    0.0003265866    
0.0907831110    0.0194970670    0.0003285763    
0.0910057720    0.0193020030    0.0003284288    
0.0912284330    0.0196002260    0.0003262177    
0.0914510940    0.0191071990    0.0003256804    
0.0916737550    0.0190621960    0.0003244894    
0.0918964160    0.0195329830    0.0003298380    
0.0921190770    0.0195642180    0.0003271169    
0.0923417380    0.0192573110    0.0003246742    
0.0925643990    0.0193211430    0.0003244160    
0.0927870600    0.0196996130    0.0003289213    
0.0930097210    0.0195652390    0.0003250058    
0.0932323820    0.0195197540    0.0003270141    
