# Diamond Light Source Ltd.
# Data extracted from: /dls/b21/data/2018/cm19678-3/processed/b21-386631_00523.dat
q(1/A)          Column          Error           
0.0035000000    2.0892446000    0.0245166520    
0.0037226610    1.8891524000    0.0228222430    
0.0039453220    1.5969779000    0.0190889010    
0.0041679830    1.2941616000    0.0141120630    
0.0043906440    0.9639698800    0.0116496610    
0.0046133050    0.7604358300    0.0099329149    
0.0048359660    0.5913507500    0.0082854420    
0.0050586270    0.4671153000    0.0072379669    
0.0052812880    0.4203800200    0.0064920168    
0.0055039490    0.3791632000    0.0058624918    
0.0057266100    0.3137985700    0.0051595139    
0.0059492710    0.2712970900    0.0047973997    
0.0061719320    0.2229299800    0.0041905908    
0.0063945930    0.1946367400    0.0039631103    
0.0066172539    0.1821454900    0.0035999664    
0.0068399149    0.1651494200    0.0033739111    
0.0070625759    0.1472621400    0.0031532854    
0.0072852369    0.1252645200    0.0028647330    
0.0075078979    0.1154732700    0.0027369790    
0.0077305589    0.0986308810    0.0024813291    
0.0079532199    0.0967054680    0.0024229427    
0.0081758809    0.0876290060    0.0023278927    
0.0083985419    0.0861825380    0.0021532181    
0.0086212029    0.0754769780    0.0020150493    
0.0088438639    0.0743752310    0.0019842216    
0.0090665249    0.0654294340    0.0017974848    
0.0092891859    0.0661701550    0.0018867293    
0.0095118469    0.0642795900    0.0017883060    
0.0097345079    0.0561273280    0.0016229636    
0.0099571689    0.0533412750    0.0015495451    
0.0101798300    0.0500552810    0.0015010581    
0.0104024910    0.0473921800    0.0014556392    
0.0106251520    0.0456889650    0.0014340962    
0.0108478130    0.0466606900    0.0014113706    
0.0110704740    0.0422173940    0.0012781418    
0.0112931350    0.0402470900    0.0012516250    
0.0115157960    0.0405485310    0.0012489781    
0.0117384570    0.0379250300    0.0011974998    
0.0119611180    0.0395120380    0.0012258058    
0.0121837790    0.0365774820    0.0011595841    
0.0124064400    0.0363261620    0.0011074226    
0.0126291010    0.0329534920    0.0010415603    
0.0128517620    0.0348056110    0.0010731030    
0.0130744230    0.0326614380    0.0010318141    
0.0132970840    0.0321814060    0.0010191954    
0.0135197450    0.0325207180    0.0010098823    
0.0137424060    0.0305237770    0.0009647643    
0.0139650670    0.0314528220    0.0009575223    
0.0141877280    0.0311820970    0.0009554996    
0.0144103890    0.0304271080    0.0009275868    
0.0146330500    0.0285901200    0.0008934413    
0.0148557110    0.0290153530    0.0008962873    
0.0150783720    0.0284832800    0.0008806922    
0.0153010330    0.0288768260    0.0008742529    
0.0155236940    0.0269913130    0.0008402029    
0.0157463550    0.0267460480    0.0008218861    
0.0159690160    0.0267940800    0.0008195020    
0.0161916770    0.0249812680    0.0007868360    
0.0164143380    0.0256882970    0.0008039378    
0.0166369990    0.0242940840    0.0007577117    
0.0168596600    0.0257949550    0.0007738874    
0.0170823210    0.0240724440    0.0007411292    
0.0173049820    0.0249342260    0.0007555826    
0.0175276430    0.0249952360    0.0007644840    
0.0177503040    0.0244476530    0.0007367896    
0.0179729650    0.0237910070    0.0007196192    
0.0181956260    0.0239136250    0.0007076400    
0.0184182870    0.0238131990    0.0007028244    
0.0186409480    0.0231913060    0.0006979763    
0.0188636090    0.0238961870    0.0007040482    
0.0190862700    0.0237388060    0.0007006287    
0.0193089310    0.0235411770    0.0006966187    
0.0195315920    0.0232175340    0.0006682861    
0.0197542530    0.0246549510    0.0006896658    
0.0199769140    0.0227257770    0.0006621343    
0.0201995750    0.0217205390    0.0006371879    
0.0204222360    0.0229316840    0.0006603319    
0.0206448970    0.0225318990    0.0006498985    
0.0208675580    0.0220450380    0.0006296013    
0.0210902190    0.0222342230    0.0006383981    
0.0213128800    0.0227050790    0.0006363687    
0.0215355410    0.0221847490    0.0006215410    
0.0217582020    0.0217145940    0.0006149198    
0.0219808630    0.0225086300    0.0006252397    
0.0222035240    0.0215227040    0.0006058528    
0.0224261850    0.0208565090    0.0005910945    
0.0226488460    0.0231021930    0.0006174321    
0.0228715070    0.0218710130    0.0005992621    
0.0230941680    0.0212306540    0.0005904242    
0.0233168290    0.0210560240    0.0005894555    
0.0235394900    0.0223691570    0.0006008527    
0.0237621510    0.0210892740    0.0005677042    
0.0239848120    0.0207551640    0.0005638408    
0.0242074730    0.0210874470    0.0005637871    
0.0244301340    0.0214679690    0.0005695003    
0.0246527950    0.0204208420    0.0005605808    
0.0248754560    0.0207778700    0.0005527515    
0.0250981170    0.0206638510    0.0005524620    
0.0253207780    0.0204631560    0.0005333579    
0.0255434390    0.0216690850    0.0005547066    
0.0257661000    0.0205803930    0.0005423410    
0.0259887610    0.0215162980    0.0005486424    
0.0262114220    0.0214633980    0.0005508871    
0.0264340830    0.0219426140    0.0005494245    
0.0266567440    0.0205988610    0.0005290462    
0.0268794050    0.0203771510    0.0005240438    
0.0271020660    0.0197312470    0.0005135839    
0.0273247270    0.0200893130    0.0005151106    
0.0275473880    0.0198515790    0.0005110347    
0.0277700490    0.0200075930    0.0005100063    
0.0279927100    0.0204392260    0.0005109807    
0.0282153710    0.0208706320    0.0005188554    
0.0284380320    0.0203233650    0.0005090395    
0.0286606930    0.0200020200    0.0005006767    
0.0288833540    0.0204806510    0.0005075941    
0.0291060150    0.0203664610    0.0005056967    
0.0293286760    0.0201446720    0.0004959276    
0.0295513370    0.0207355590    0.0004976693    
0.0297739980    0.0206940950    0.0005026452    
0.0299966590    0.0207717330    0.0004949862    
0.0302193200    0.0204223620    0.0004979583    
0.0304419810    0.0210703560    0.0005067274    
0.0306646420    0.0202890360    0.0004832093    
0.0308873030    0.0205134580    0.0004837757    
0.0311099640    0.0204939730    0.0004848014    
0.0313326250    0.0196386580    0.0004693196    
0.0315552860    0.0208184610    0.0004894737    
0.0317779470    0.0202322120    0.0004829529    
0.0320006080    0.0197086530    0.0004658332    
0.0322232690    0.0195187160    0.0004655237    
0.0324459300    0.0196221210    0.0004632706    
0.0326685910    0.0203314940    0.0004707929    
0.0328912520    0.0209602010    0.0004795996    
0.0331139130    0.0195952800    0.0004576888    
0.0333365740    0.0199486960    0.0004632972    
0.0335592350    0.0205800880    0.0004660472    
0.0337818960    0.0208002200    0.0004681600    
0.0340045570    0.0204821130    0.0004638285    
0.0342272170    0.0202166390    0.0004589951    
0.0344498780    0.0201460200    0.0004600075    
0.0346725390    0.0201453580    0.0004514809    
0.0348952000    0.0217168220    0.0004666240    
0.0351178610    0.0205905850    0.0004564429    
0.0353405220    0.0205638310    0.0004540683    
0.0355631830    0.0201306040    0.0004475678    
0.0357858440    0.0197425330    0.0004432329    
0.0360085050    0.0202824820    0.0004506106    
0.0362311660    0.0194023900    0.0004354868    
0.0364538270    0.0208619450    0.0004479453    
0.0366764880    0.0208028670    0.0004469860    
0.0368991490    0.0201563020    0.0004377669    
0.0371218100    0.0204287250    0.0004394545    
0.0373444710    0.0213880830    0.0004545515    
0.0375671320    0.0199676820    0.0004385590    
0.0377897930    0.0206015900    0.0004339341    
0.0380124540    0.0201020090    0.0004313299    
0.0382351150    0.0210552950    0.0004414389    
0.0384577760    0.0198158400    0.0004241169    
0.0386804370    0.0195941030    0.0004249558    
0.0389030980    0.0206600610    0.0004330574    
0.0391257590    0.0188940560    0.0004113239    
0.0393484200    0.0191851270    0.0004130852    
0.0395710810    0.0196560150    0.0004186872    
0.0397937420    0.0197630490    0.0004198257    
0.0400164030    0.0197263710    0.0004211423    
0.0402390640    0.0199222850    0.0004175928    
0.0404617250    0.0203366870    0.0004194246    
0.0406843860    0.0198947080    0.0004108338    
0.0409070470    0.0196011180    0.0004120392    
0.0411297080    0.0194785470    0.0004067753    
0.0413523690    0.0192887820    0.0004058324    
0.0415750300    0.0196352380    0.0004129390    
0.0417976910    0.0199430110    0.0004053993    
0.0420203520    0.0197776500    0.0004052321    
0.0422430130    0.0198356590    0.0004073623    
0.0424656740    0.0193389820    0.0003969947    
0.0426883350    0.0199182670    0.0004048963    
0.0429109960    0.0200429270    0.0004074304    
0.0431336570    0.0190313040    0.0003914216    
0.0433563180    0.0201882550    0.0004066215    
0.0435789790    0.0196699850    0.0003950625    
0.0438016400    0.0197803060    0.0003983240    
0.0440243010    0.0193102230    0.0003895693    
0.0442469620    0.0198684360    0.0003975278    
0.0444696230    0.0191892130    0.0003892728    
0.0446922840    0.0205355060    0.0004015009    
0.0449149450    0.0200971030    0.0003918822    
0.0451376060    0.0192574050    0.0003883457    
0.0453602670    0.0195842250    0.0003875216    
0.0455829280    0.0188045270    0.0003792901    
0.0458055890    0.0203789470    0.0003971516    
0.0460282500    0.0190821190    0.0003796732    
0.0462509110    0.0198228290    0.0003845651    
0.0464735720    0.0195091130    0.0003817253    
0.0466962330    0.0197019630    0.0003853512    
0.0469188940    0.0192606620    0.0003799309    
0.0471415550    0.0191864370    0.0003811457    
0.0473642160    0.0201471960    0.0003851033    
0.0475868770    0.0199256520    0.0003810775    
0.0478095380    0.0194554430    0.0003749065    
0.0480321990    0.0199543910    0.0003805153    
0.0482548600    0.0197880840    0.0003772754    
0.0484775210    0.0197501260    0.0003806557    
0.0487001820    0.0196890180    0.0003745028    
0.0489228430    0.0191911110    0.0003695384    
0.0491455040    0.0200423670    0.0003750334    
0.0493681650    0.0194103040    0.0003722440    
0.0495908260    0.0195976040    0.0003677425    
0.0498134870    0.0190020020    0.0003655583    
0.0500361480    0.0191604150    0.0003661077    
0.0502588090    0.0193778640    0.0003626627    
0.0504814700    0.0193653780    0.0003672853    
0.0507041310    0.0197033850    0.0003660721    
0.0509267920    0.0196953050    0.0003675111    
0.0511494530    0.0196500530    0.0003646409    
0.0513721140    0.0196740250    0.0003680765    
0.0515947750    0.0194440890    0.0003610677    
0.0518174360    0.0201511990    0.0003653602    
0.0520400970    0.0199053850    0.0003606072    
0.0522627580    0.0206371670    0.0003702963    
0.0524854190    0.0200354840    0.0003678249    
0.0527080800    0.0199217550    0.0003696192    
0.0529307410    0.0202893020    0.0003747651    
0.0531534020    0.0195577190    0.0003666070    
0.0533760630    0.0198463190    0.0003704580    
0.0535987240    0.0192024390    0.0003626977    
0.0538213850    0.0187736800    0.0003627807    
0.0540440460    0.0205963130    0.0003781847    
0.0542667070    0.0197477070    0.0003728638    
0.0544893680    0.0197053270    0.0003726620    
0.0547120290    0.0200479890    0.0003733131    
0.0549346900    0.0194428000    0.0003678287    
0.0551573510    0.0200457230    0.0003778850    
0.0553800120    0.0204486580    0.0003784194    
0.0556026730    0.0194375330    0.0003765945    
0.0558253340    0.0194379770    0.0003797523    
0.0560479950    0.0191560720    0.0003769887    
0.0562706560    0.0196719680    0.0003857249    
0.0564933170    0.0190685990    0.0003830612    
0.0567159780    0.0191549330    0.0003793242    
0.0569386390    0.0196985600    0.0003907030    
0.0571613000    0.0194232560    0.0003796096    
0.0573839610    0.0200432920    0.0003824192    
0.0576066220    0.0200737120    0.0003837688    
0.0578292830    0.0197224350    0.0003791374    
0.0580519440    0.0192366630    0.0003758911    
0.0582746050    0.0194823660    0.0003766159    
0.0584972660    0.0189216910    0.0003697364    
0.0587199270    0.0191436320    0.0003686926    
0.0589425880    0.0194607250    0.0003695593    
0.0591652490    0.0198750520    0.0003756703    
0.0593879100    0.0192101670    0.0003665902    
0.0596105710    0.0197351160    0.0003711733    
0.0598332320    0.0190798260    0.0003680786    
0.0600558930    0.0198748650    0.0003732739    
0.0602785540    0.0194550990    0.0003689206    
0.0605012150    0.0196170230    0.0003696722    
0.0607238760    0.0192634980    0.0003636565    
0.0609465370    0.0196028690    0.0003697338    
0.0611691980    0.0190214460    0.0003647866    
0.0613918590    0.0193201430    0.0003636260    
0.0616145200    0.0190414910    0.0003636363    
0.0618371810    0.0197042160    0.0003662772    
0.0620598420    0.0193696170    0.0003635284    
0.0622825030    0.0197977860    0.0003731448    
0.0625051640    0.0200933590    0.0003706404    
0.0627278250    0.0195408940    0.0003647569    
0.0629504860    0.0199679890    0.0003657239    
0.0631731470    0.0197580250    0.0003682970    
0.0633958080    0.0196111050    0.0003690368    
0.0636184690    0.0194258290    0.0003724048    
0.0638411300    0.0194078050    0.0003708347    
0.0640637910    0.0193081100    0.0003724826    
0.0642864520    0.0197326210    0.0003757402    
0.0645091130    0.0194975220    0.0003767681    
0.0647317740    0.0195259450    0.0003774583    
0.0649544350    0.0198688800    0.0003803397    
0.0651770960    0.0193286380    0.0003730869    
0.0653997570    0.0205211960    0.0003835905    
0.0656224180    0.0194439050    0.0003741981    
0.0658450790    0.0191828030    0.0003663349    
0.0660677400    0.0197133220    0.0003729466    
0.0662904010    0.0195221050    0.0003755640    
0.0665130620    0.0198688060    0.0003772407    
0.0667357230    0.0193574000    0.0003789745    
0.0669583840    0.0192059760    0.0003762263    
0.0671810450    0.0194682480    0.0003766951    
0.0674037060    0.0191234080    0.0003796689    
0.0676263670    0.0197357540    0.0003828758    
0.0678490280    0.0196932030    0.0003801238    
0.0680716890    0.0193977100    0.0003781007    
0.0682943500    0.0189318690    0.0003694419    
0.0685170110    0.0197558100    0.0003735499    
0.0687396720    0.0195596390    0.0003707031    
0.0689623330    0.0192892610    0.0003669654    
0.0691849940    0.0195999480    0.0003724718    
0.0694076550    0.0192820580    0.0003692418    
0.0696303160    0.0197713050    0.0003709366    
0.0698529770    0.0196469370    0.0003689932    
0.0700756380    0.0200304530    0.0003677945    
0.0702982990    0.0197030640    0.0003687489    
0.0705209600    0.0195624320    0.0003647778    
0.0707436210    0.0193899070    0.0003614979    
0.0709662820    0.0199032750    0.0003706183    
0.0711889430    0.0195385500    0.0003626967    
0.0714116040    0.0192330680    0.0003605848    
0.0716342650    0.0200830290    0.0003669702    
0.0718569260    0.0189105370    0.0003546626    
0.0720795870    0.0192247720    0.0003590437    
0.0723022480    0.0201914170    0.0003685203    
0.0725249090    0.0197435240    0.0003600460    
0.0727475700    0.0195679930    0.0003615035    
0.0729702310    0.0194082720    0.0003571537    
0.0731928920    0.0196365940    0.0003606842    
0.0734155530    0.0203699380    0.0003666244    
0.0736382140    0.0194383630    0.0003558445    
0.0738608750    0.0202050250    0.0003651378    
0.0740835360    0.0193957100    0.0003568621    
0.0743061970    0.0196064400    0.0003537432    
0.0745288580    0.0200964030    0.0003618185    
0.0747515190    0.0193322040    0.0003555733    
0.0749741800    0.0195986500    0.0003547013    
0.0751968410    0.0199402240    0.0003605880    
0.0754195020    0.0193205890    0.0003528617    
0.0756421630    0.0189616300    0.0003467109    
0.0758648240    0.0196262130    0.0003535824    
0.0760874850    0.0194164490    0.0003515189    
0.0763101460    0.0195189460    0.0003521074    
0.0765328070    0.0192786820    0.0003535142    
0.0767554680    0.0193184850    0.0003514776    
0.0769781290    0.0185977010    0.0003428767    
0.0772007900    0.0196379810    0.0003495100    
0.0774234510    0.0198242670    0.0003531612    
0.0776461120    0.0199939010    0.0003543325    
0.0778687730    0.0195064470    0.0003488303    
0.0780914340    0.0199317370    0.0003551321    
0.0783140950    0.0195310320    0.0003459666    
0.0785367560    0.0202924630    0.0003583318    
0.0787594170    0.0191784900    0.0003452363    
0.0789820780    0.0195975690    0.0003471997    
0.0792047390    0.0197878400    0.0003500217    
0.0794274000    0.0194313800    0.0003483244    
0.0796500610    0.0191457650    0.0003423803    
0.0798727220    0.0185909640    0.0003370717    
0.0800953830    0.0200993920    0.0003496736    
0.0803180440    0.0192454140    0.0003445482    
0.0805407050    0.0195113260    0.0003465977    
0.0807633660    0.0193460650    0.0003448064    
0.0809860270    0.0195877620    0.0003456724    
0.0812086880    0.0199940900    0.0003462213    
0.0814313490    0.0191120740    0.0003400423    
0.0816540100    0.0193021850    0.0003409514    
0.0818766710    0.0196082340    0.0003444284    
0.0820993320    0.0193559890    0.0003415822    
0.0823219930    0.0190905350    0.0003406310    
0.0825446540    0.0195389110    0.0003421042    
0.0827673150    0.0197086610    0.0003412787    
0.0829899760    0.0196503300    0.0003401667    
0.0832126370    0.0192801370    0.0003384564    
0.0834352980    0.0190165680    0.0003353835    
0.0836579590    0.0197446350    0.0003409827    
0.0838806200    0.0192817700    0.0003380167    
0.0841032810    0.0194527760    0.0003374047    
0.0843259420    0.0196821220    0.0003383426    
0.0845486030    0.0200427580    0.0003414286    
0.0847712640    0.0195981180    0.0003355626    
0.0849939250    0.0194185130    0.0003346031    
0.0852165860    0.0196486230    0.0003370207    
0.0854392470    0.0199304910    0.0003362150    
0.0856619080    0.0193387860    0.0003336257    
0.0858845690    0.0194950670    0.0003319542    
0.0861072300    0.0197708890    0.0003366020    
0.0863298910    0.0196310360    0.0003371657    
0.0865525520    0.0195666540    0.0003337057    
0.0867752130    0.0193305580    0.0003290099    
0.0869978740    0.0192434770    0.0003291046    
0.0872205350    0.0196605100    0.0003322284    
0.0874431960    0.0198065060    0.0003334599    
0.0876658570    0.0193931670    0.0003312290    
0.0878885180    0.0193518690    0.0003314434    
0.0881111790    0.0197212340    0.0003341622    
0.0883338400    0.0196097670    0.0003283378    
0.0885565010    0.0201226280    0.0003371140    
0.0887791620    0.0197361720    0.0003295317    
0.0890018230    0.0194028900    0.0003299067    
0.0892244840    0.0188160130    0.0003254314    
0.0894471450    0.0197959220    0.0003323879    
0.0896698060    0.0195914720    0.0003294197    
0.0898924670    0.0192983290    0.0003284614    
0.0901151280    0.0197862940    0.0003289957    
0.0903377890    0.0191788390    0.0003266169    
0.0905604500    0.0194771880    0.0003276370    
0.0907831110    0.0192652340    0.0003250388    
0.0910057720    0.0197357780    0.0003304940    
0.0912284330    0.0201210450    0.0003289263    
0.0914510940    0.0194617680    0.0003271001    
0.0916737550    0.0192340050    0.0003243734    
0.0918964160    0.0196094440    0.0003288861    
0.0921190770    0.0191264400    0.0003218735    
0.0923417380    0.0193644040    0.0003240025    
0.0925643990    0.0196905280    0.0003259199    
0.0927870600    0.0196511130    0.0003269288    
0.0930097210    0.0199006020    0.0003261956    
0.0932323820    0.0194780670    0.0003250863    
