# Diamond Light Source Ltd.
# Data extracted from: /dls/b21/data/2018/cm19678-3/processed/b21-386631_00514.dat
q(1/A)          Column          Error           
0.0035000000    2.0990082000    0.0245855630    
0.0037226610    1.8752201000    0.0227487500    
0.0039453220    1.6197381000    0.0192335940    
0.0041679830    1.2742912000    0.0140099690    
0.0043906440    0.9400852200    0.0115099050    
0.0046133050    0.7720685500    0.0100133620    
0.0048359660    0.5899382000    0.0082794777    
0.0050586270    0.4591404400    0.0071793296    
0.0052812880    0.4309157700    0.0065759934    
0.0055039490    0.3798870000    0.0058708765    
0.0057266100    0.3113799800    0.0051420373    
0.0059492710    0.2769898000    0.0048497773    
0.0061719320    0.2229056000    0.0041923553    
0.0063945930    0.1984567200    0.0040037158    
0.0066172539    0.1848827100    0.0036286406    
0.0068399149    0.1650996200    0.0033750074    
0.0070625759    0.1470643800    0.0031526666    
0.0072852369    0.1264329800    0.0028794323    
0.0075078979    0.1122065900    0.0026992710    
0.0077305589    0.1002868600    0.0025032631    
0.0079532199    0.0966152150    0.0024229640    
0.0081758809    0.0910550120    0.0023740919    
0.0083985419    0.0843798820    0.0021315936    
0.0086212029    0.0792643300    0.0020659694    
0.0088438639    0.0689884100    0.0019119241    
0.0090665249    0.0683585140    0.0018381524    
0.0092891859    0.0620329830    0.0018276643    
0.0095118469    0.0608050140    0.0017401295    
0.0097345079    0.0568853550    0.0016346636    
0.0099571689    0.0544734010    0.0015666477    
0.0101798300    0.0494270730    0.0014923187    
0.0104024910    0.0483770810    0.0014713867    
0.0106251520    0.0460929030    0.0014411070    
0.0108478130    0.0454658980    0.0013938465    
0.0110704740    0.0448914110    0.0013186257    
0.0112931350    0.0426230400    0.0012886523    
0.0115157960    0.0402020460    0.0012442221    
0.0117384570    0.0386045340    0.0012087549    
0.0119611180    0.0369992820    0.0011867525    
0.0121837790    0.0381945350    0.0011855027    
0.0124064400    0.0360903960    0.0011043482    
0.0126291010    0.0337757010    0.0010549757    
0.0128517620    0.0348718550    0.0010746347    
0.0130744230    0.0312569240    0.0010098654    
0.0132970840    0.0324381980    0.0010237405    
0.0135197450    0.0315471820    0.0009951248    
0.0137424060    0.0327504340    0.0009998094    
0.0139650670    0.0313368690    0.0009562104    
0.0141877280    0.0298050470    0.0009346076    
0.0144103890    0.0292672610    0.0009101685    
0.0146330500    0.0271641070    0.0008712891    
0.0148557110    0.0271030760    0.0008666608    
0.0150783720    0.0270112770    0.0008580415    
0.0153010330    0.0269173040    0.0008444709    
0.0155236940    0.0273835120    0.0008466878    
0.0157463550    0.0266703840    0.0008211132    
0.0159690160    0.0267944930    0.0008198982    
0.0161916770    0.0239383600    0.0007706031    
0.0164143380    0.0263171600    0.0008141058    
0.0166369990    0.0258074630    0.0007813272    
0.0168596600    0.0253779480    0.0007679717    
0.0170823210    0.0237756060    0.0007368961    
0.0173049820    0.0257830140    0.0007687009    
0.0175276430    0.0264466780    0.0007867412    
0.0177503040    0.0253155120    0.0007501098    
0.0179729650    0.0226153420    0.0007019473    
0.0181956260    0.0243136660    0.0007138738    
0.0184182870    0.0240019670    0.0007059402    
0.0186409480    0.0237810970    0.0007071321    
0.0188636090    0.0226731540    0.0006861208    
0.0190862700    0.0226644020    0.0006849158    
0.0193089310    0.0221192300    0.0006755735    
0.0195315920    0.0235669500    0.0006736164    
0.0197542530    0.0226508480    0.0006613562    
0.0199769140    0.0225736150    0.0006602279    
0.0201995750    0.0218160520    0.0006388912    
0.0204222360    0.0218876750    0.0006454323    
0.0206448970    0.0220279750    0.0006428957    
0.0208675580    0.0220840180    0.0006304575    
0.0210902190    0.0219251320    0.0006342468    
0.0213128800    0.0219768690    0.0006263784    
0.0215355410    0.0235305460    0.0006404203    
0.0217582020    0.0205848790    0.0005989952    
0.0219808630    0.0221302130    0.0006202566    
0.0222035240    0.0222772270    0.0006166743    
0.0224261850    0.0216309270    0.0006022548    
0.0226488460    0.0212246940    0.0005920929    
0.0228715070    0.0213987700    0.0005930391    
0.0230941680    0.0212015550    0.0005903001    
0.0233168290    0.0215550660    0.0005966836    
0.0235394900    0.0218573410    0.0005942216    
0.0237621510    0.0213082020    0.0005709147    
0.0239848120    0.0202076330    0.0005566186    
0.0242074730    0.0209566420    0.0005623032    
0.0244301340    0.0210649850    0.0005643982    
0.0246527950    0.0216263380    0.0005771643    
0.0248754560    0.0215924600    0.0005637507    
0.0250981170    0.0211566220    0.0005592764    
0.0253207780    0.0206913550    0.0005365787    
0.0255434390    0.0207658350    0.0005432807    
0.0257661000    0.0215584520    0.0005553425    
0.0259887610    0.0207526020    0.0005390741    
0.0262114220    0.0206629680    0.0005407746    
0.0264340830    0.0210684340    0.0005386250    
0.0266567440    0.0204688600    0.0005276250    
0.0268794050    0.0209766060    0.0005319490    
0.0271020660    0.0214226240    0.0005353983    
0.0273247270    0.0214701480    0.0005327728    
0.0275473880    0.0211741020    0.0005280341    
0.0277700490    0.0207293250    0.0005193705    
0.0279927100    0.0204586800    0.0005114670    
0.0282153710    0.0213036580    0.0005244598    
0.0284380320    0.0208276660    0.0005155616    
0.0286606930    0.0205479270    0.0005077046    
0.0288833540    0.0208527260    0.0005124278    
0.0291060150    0.0207126210    0.0005102188    
0.0293286760    0.0207504300    0.0005035682    
0.0295513370    0.0199781660    0.0004887282    
0.0297739980    0.0203838360    0.0004991004    
0.0299966590    0.0199296180    0.0004850793    
0.0302193200    0.0207456310    0.0005021227    
0.0304419810    0.0202731410    0.0004972852    
0.0306646420    0.0198360590    0.0004780120    
0.0308873030    0.0205329820    0.0004842361    
0.0311099640    0.0192851950    0.0004705106    
0.0313326250    0.0187480140    0.0004587721    
0.0315552860    0.0207806790    0.0004892620    
0.0317779470    0.0205053330    0.0004864331    
0.0320006080    0.0208625640    0.0004795042    
0.0322232690    0.0205597230    0.0004780038    
0.0324459300    0.0198707060    0.0004664177    
0.0326685910    0.0195870060    0.0004623127    
0.0328912520    0.0206616040    0.0004763977    
0.0331139130    0.0201168510    0.0004639606    
0.0333365740    0.0201400030    0.0004657349    
0.0335592350    0.0202405020    0.0004624061    
0.0337818960    0.0202188310    0.0004617905    
0.0340045570    0.0203333880    0.0004623614    
0.0342272170    0.0208200090    0.0004660158    
0.0344498780    0.0208801230    0.0004685365    
0.0346725390    0.0196581390    0.0004462001    
0.0348952000    0.0200213730    0.0004482522    
0.0351178610    0.0196075250    0.0004456256    
0.0353405220    0.0198106470    0.0004458873    
0.0355631830    0.0200601200    0.0004469962    
0.0357858440    0.0200601330    0.0004469965    
0.0360085050    0.0202416620    0.0004503711    
0.0362311660    0.0197045870    0.0004390739    
0.0364538270    0.0198901790    0.0004375962    
0.0366764880    0.0194575610    0.0004324970    
0.0368991490    0.0200517690    0.0004368380    
0.0371218100    0.0196154800    0.0004308234    
0.0373444710    0.0194068370    0.0004331927    
0.0375671320    0.0198227830    0.0004371727    
0.0377897930    0.0207218330    0.0004354057    
0.0380124540    0.0191762260    0.0004214810    
0.0382351150    0.0205936130    0.0004367801    
0.0384577760    0.0200345910    0.0004266544    
0.0386804370    0.0196035270    0.0004252602    
0.0389030980    0.0190805890    0.0004163726    
0.0391257590    0.0199248630    0.0004225962    
0.0393484200    0.0195416940    0.0004171046    
0.0395710810    0.0197015030    0.0004193708    
0.0397937420    0.0200228830    0.0004227776    
0.0400164030    0.0206271080    0.0004308549    
0.0402390640    0.0192928940    0.0004111390    
0.0404617250    0.0194988550    0.0004108894    
0.0406843860    0.0195145210    0.0004070829    
0.0409070470    0.0196024340    0.0004122491    
0.0411297080    0.0204579110    0.0004170743    
0.0413523690    0.0196575580    0.0004098884    
0.0415750300    0.0198973190    0.0004158835    
0.0417976910    0.0192690970    0.0003986804    
0.0420203520    0.0196634990    0.0004042532    
0.0422430130    0.0200136420    0.0004093805    
0.0424656740    0.0193981750    0.0003977910    
0.0426883350    0.0196076830    0.0004019183    
0.0429109960    0.0197967200    0.0004051129    
0.0431336570    0.0205079380    0.0004065164    
0.0433563180    0.0208796850    0.0004137228    
0.0435789790    0.0198713760    0.0003972686    
0.0438016400    0.0201363440    0.0004020841    
0.0440243010    0.0198478070    0.0003951427    
0.0442469620    0.0196485070    0.0003955096    
0.0444696230    0.0196896390    0.0003945035    
0.0446922840    0.0198243100    0.0003946748    
0.0449149450    0.0195043300    0.0003862433    
0.0451376060    0.0198479700    0.0003944430    
0.0453602670    0.0196872930    0.0003887249    
0.0455829280    0.0195116100    0.0003865391    
0.0458055890    0.0197010960    0.0003906764    
0.0460282500    0.0194481080    0.0003834793    
0.0462509110    0.0199462440    0.0003859439    
0.0464735720    0.0189221130    0.0003761175    
0.0466962330    0.0194415760    0.0003829784    
0.0469188940    0.0197515910    0.0003849255    
0.0471415550    0.0192577490    0.0003820350    
0.0473642160    0.0196285030    0.0003802945    
0.0475868770    0.0196747000    0.0003788503    
0.0478095380    0.0201609360    0.0003818250    
0.0480321990    0.0195957040    0.0003772593    
0.0482548600    0.0195693210    0.0003753626    
0.0484775210    0.0194825240    0.0003782480    
0.0487001820    0.0193512490    0.0003714532    
0.0489228430    0.0201566680    0.0003789008    
0.0491455040    0.0200122720    0.0003749300    
0.0493681650    0.0198289300    0.0003764157    
0.0495908260    0.0192778070    0.0003649032    
0.0498134870    0.0187737130    0.0003635287    
0.0500361480    0.0198368450    0.0003726913    
0.0502588090    0.0198446980    0.0003671798    
0.0504814700    0.0194674810    0.0003684275    
0.0507041310    0.0193817490    0.0003632446    
0.0509267920    0.0197071860    0.0003677969    
0.0511494530    0.0195468420    0.0003638551    
0.0513721140    0.0196445000    0.0003679752    
0.0515947750    0.0194693070    0.0003614736    
0.0518174360    0.0192354590    0.0003571319    
0.0520400970    0.0190938770    0.0003533480    
0.0522627580    0.0201048080    0.0003656629    
0.0524854190    0.0200613120    0.0003682370    
0.0527080800    0.0197553810    0.0003682477    
0.0529307410    0.0200245280    0.0003724889    
0.0531534020    0.0193493410    0.0003648222    
0.0533760630    0.0192837870    0.0003653438    
0.0535987240    0.0198927200    0.0003693349    
0.0538213850    0.0192336190    0.0003673724    
0.0540440460    0.0201154630    0.0003739218    
0.0542667070    0.0196255650    0.0003718858    
0.0544893680    0.0195971030    0.0003718140    
0.0547120290    0.0200670700    0.0003736684    
0.0549346900    0.0194125480    0.0003677173    
0.0551573510    0.0193588980    0.0003715316    
0.0553800120    0.0203489570    0.0003776753    
0.0556026730    0.0193172700    0.0003756063    
0.0558253340    0.0199243240    0.0003846567    
0.0560479950    0.0197535430    0.0003830048    
0.0562706560    0.0204325930    0.0003932983    
0.0564933170    0.0197029460    0.0003895659    
0.0567159780    0.0196769290    0.0003846409    
0.0569386390    0.0199655200    0.0003935286    
0.0571613000    0.0196273970    0.0003817808    
0.0573839610    0.0194342790    0.0003767437    
0.0576066220    0.0197623440    0.0003809620    
0.0578292830    0.0199965430    0.0003819446    
0.0580519440    0.0197622620    0.0003811729    
0.0582746050    0.0193260130    0.0003752801    
0.0584972660    0.0198581200    0.0003789552    
0.0587199270    0.0200787220    0.0003777695    
0.0589425880    0.0191912370    0.0003671661    
0.0591652490    0.0191547860    0.0003689758    
0.0593879100    0.0195575610    0.0003700660    
0.0596105710    0.0192997060    0.0003672306    
0.0598332320    0.0200788280    0.0003777714    
0.0600558930    0.0202656930    0.0003771055    
0.0602785540    0.0198097300    0.0003724449    
0.0605012150    0.0194543980    0.0003683119    
0.0607238760    0.0198453070    0.0003692829    
0.0609465370    0.0203335130    0.0003767404    
0.0611691980    0.0195857380    0.0003703341    
0.0613918590    0.0196467970    0.0003668615    
0.0616145200    0.0195044780    0.0003682057    
0.0618371810    0.0194639950    0.0003642108    
0.0620598420    0.0192173220    0.0003622687    
0.0622825030    0.0199996600    0.0003752209    
0.0625051640    0.0192844430    0.0003632759    
0.0627278250    0.0191982890    0.0003617172    
0.0629504860    0.0194103810    0.0003607529    
0.0631731470    0.0195019610    0.0003660767    
0.0633958080    0.0204777980    0.0003772827    
0.0636184690    0.0196586980    0.0003748085    
0.0638411300    0.0190503750    0.0003675789    
0.0640637910    0.0198515470    0.0003778677    
0.0642864520    0.0188132460    0.0003670572    
0.0645091130    0.0195598050    0.0003775489    
0.0647317740    0.0195810470    0.0003781704    
0.0649544350    0.0194068110    0.0003760699    
0.0651770960    0.0197074480    0.0003769043    
0.0653997570    0.0198732610    0.0003776658    
0.0656224180    0.0200534920    0.0003801994    
0.0658450790    0.0195651940    0.0003701442    
0.0660677400    0.0193436580    0.0003696090    
0.0662904010    0.0205025330    0.0003850623    
0.0665130620    0.0194432180    0.0003733561    
0.0667357230    0.0196580320    0.0003820877    
0.0669583840    0.0194529400    0.0003788176    
0.0671810450    0.0196983520    0.0003790950    
0.0674037060    0.0186134610    0.0003747508    
0.0676263670    0.0195612300    0.0003813605    
0.0678490280    0.0205712230    0.0003886902    
0.0680716890    0.0191653560    0.0003760082    
0.0682943500    0.0193900790    0.0003740639    
0.0685170110    0.0197109830    0.0003733034    
0.0687396720    0.0201338160    0.0003762837    
0.0689623330    0.0195032810    0.0003691712    
0.0691849940    0.0194485600    0.0003712071    
0.0694076550    0.0192013240    0.0003686433    
0.0696303160    0.0197065320    0.0003705047    
0.0698529770    0.0201095870    0.0003734901    
0.0700756380    0.0198670040    0.0003664651    
0.0702982990    0.0191691910    0.0003638918    
0.0705209600    0.0189955250    0.0003596245    
0.0707436210    0.0198333620    0.0003657823    
0.0709662820    0.0193764980    0.0003658549    
0.0711889430    0.0200558460    0.0003676415    
0.0714116040    0.0188859690    0.0003574863    
0.0716342650    0.0194041050    0.0003608856    
0.0718569260    0.0198340160    0.0003633920    
0.0720795870    0.0193504600    0.0003603869    
0.0723022480    0.0195239300    0.0003625503    
0.0725249090    0.0188882250    0.0003523285    
0.0727475700    0.0195999870    0.0003619710    
0.0729702310    0.0198411990    0.0003612869    
0.0731928920    0.0197613850    0.0003620006    
0.0734155530    0.0199005630    0.0003625482    
0.0736382140    0.0198546080    0.0003598054    
0.0738608750    0.0188900630    0.0003532241    
0.0740835360    0.0191578550    0.0003548360    
0.0743061970    0.0197400920    0.0003551158    
0.0745288580    0.0197503860    0.0003588607    
0.0747515190    0.0193375110    0.0003557913    
0.0749741800    0.0195337710    0.0003542822    
0.0751968410    0.0202594390    0.0003636357    
0.0754195020    0.0196421570    0.0003559553    
0.0756421630    0.0193033020    0.0003499871    
0.0758648240    0.0199636990    0.0003567792    
0.0760874850    0.0197534300    0.0003547249    
0.0763101460    0.0202877440    0.0003591454    
0.0765328070    0.0189790900    0.0003509235    
0.0767554680    0.0198105320    0.0003560949    
0.0769781290    0.0200454090    0.0003561413    
0.0772007900    0.0193266740    0.0003468936    
0.0774234510    0.0198620280    0.0003536655    
0.0776461120    0.0198809350    0.0003534982    
0.0778687730    0.0197622850    0.0003512775    
0.0780914340    0.0190703430    0.0003475387    
0.0783140950    0.0194637430    0.0003455344    
0.0785367560    0.0199824310    0.0003557531    
0.0787594170    0.0193460370    0.0003469060    
0.0789820780    0.0196285350    0.0003476392    
0.0792047390    0.0190196120    0.0003433232    
0.0794274000    0.0190873770    0.0003453916    
0.0796500610    0.0195071860    0.0003457612    
0.0798727220    0.0196180040    0.0003464219    
0.0800953830    0.0191747050    0.0003416979    
0.0803180440    0.0194551340    0.0003465852    
0.0805407050    0.0197209430    0.0003486203    
0.0807633660    0.0197458630    0.0003485167    
0.0809860270    0.0196247230    0.0003461630    
0.0812086880    0.0190289660    0.0003379225    
0.0814313490    0.0192150450    0.0003411194    
0.0816540100    0.0197606190    0.0003451406    
0.0818766710    0.0198509620    0.0003467186    
0.0820993320    0.0194709520    0.0003427581    
0.0823219930    0.0195832280    0.0003451626    
0.0825446540    0.0197913340    0.0003444707    
0.0827673150    0.0197274190    0.0003416035    
0.0829899760    0.0198399650    0.0003419667    
0.0832126370    0.0193817470    0.0003395086    
0.0834352980    0.0195260750    0.0003400084    
0.0836579590    0.0190384350    0.0003349886    
0.0838806200    0.0184460290    0.0003307674    
0.0841032810    0.0195591570    0.0003384869    
0.0843259420    0.0198638640    0.0003400629    
0.0845486030    0.0194389040    0.0003364059    
0.0847712640    0.0198813180    0.0003381392    
0.0849939250    0.0188829720    0.0003301138    
0.0852165860    0.0195226690    0.0003360985    
0.0854392470    0.0197053430    0.0003344696    
0.0856619080    0.0197662280    0.0003374531    
0.0858845690    0.0190213960    0.0003280526    
0.0861072300    0.0196004130    0.0003353071    
0.0863298910    0.0189193760    0.0003311553    
0.0865525520    0.0196992110    0.0003349935    
0.0867752130    0.0192985100    0.0003288935    
0.0869978740    0.0203378380    0.0003384942    
0.0872205350    0.0190554660    0.0003272319    
0.0874431960    0.0198422160    0.0003339191    
0.0876658570    0.0194625890    0.0003319792    
0.0878885180    0.0190861820    0.0003293169    
0.0881111790    0.0194566280    0.0003320708    
0.0883338400    0.0190176220    0.0003234963    
0.0885565010    0.0193616610    0.0003308357    
0.0887791620    0.0186589890    0.0003205652    
0.0890018230    0.0191237760    0.0003276810    
0.0892244840    0.0193071640    0.0003298082    
0.0894471450    0.0188818430    0.0003247776    
0.0896698060    0.0194715120    0.0003285658    
0.0898924670    0.0195852950    0.0003310519    
0.0901151280    0.0195696760    0.0003273455    
0.0903377890    0.0193362820    0.0003281108    
0.0905604500    0.0191095620    0.0003246847    
0.0907831110    0.0192671020    0.0003252092    
0.0910057720    0.0197988800    0.0003311794    
0.0912284330    0.0200809920    0.0003287551    
0.0914510940    0.0197664420    0.0003298074    
0.0916737550    0.0194932390    0.0003267074    
0.0918964160    0.0194790340    0.0003279466    
0.0921190770    0.0194048940    0.0003243623    
0.0923417380    0.0191169440    0.0003220788    
0.0925643990    0.0196984690    0.0003261407    
0.0927870600    0.0197079260    0.0003275568    
0.0930097210    0.0195930810    0.0003238194    
0.0932323820    0.0197952990    0.0003278788    
