# Diamond Light Source Ltd.
# Data extracted from: /dls/b21/data/2018/cm19678-3/processed/b21-386631_00517.dat
q(1/A)          Column          Error           
0.0035000000    2.0356392000    0.0242046590    
0.0037226610    1.8330491000    0.0224850540    
0.0039453220    1.6281682000    0.0192780520    
0.0041679830    1.2623229000    0.0139400250    
0.0043906440    0.9602498400    0.0116293580    
0.0046133050    0.7564400400    0.0099086556    
0.0048359660    0.5940130100    0.0083056407    
0.0050586270    0.4668430700    0.0072372247    
0.0052812880    0.4263560400    0.0065392338    
0.0055039490    0.3774929500    0.0058506704    
0.0057266100    0.3142566300    0.0051642539    
0.0059492710    0.2630828100    0.0047251068    
0.0061719320    0.2219109800    0.0041817924    
0.0063945930    0.1925307100    0.0039423558    
0.0066172539    0.1773030900    0.0035524620    
0.0068399149    0.1685905400    0.0034095242    
0.0070625759    0.1516407400    0.0032004256    
0.0072852369    0.1249186300    0.0028613156    
0.0075078979    0.1164903700    0.0027495258    
0.0077305589    0.1019154700    0.0025227837    
0.0079532199    0.0998999490    0.0024631015    
0.0081758809    0.0893324690    0.0023508545    
0.0083985419    0.0825555430    0.0021078202    
0.0086212029    0.0723841090    0.0019737043    
0.0088438639    0.0721262280    0.0019543605    
0.0090665249    0.0628853960    0.0017625263    
0.0092891859    0.0647959170    0.0018673873    
0.0095118469    0.0607203860    0.0017384196    
0.0097345079    0.0558668590    0.0016194993    
0.0099571689    0.0557930960    0.0015850567    
0.0101798300    0.0527760450    0.0015416047    
0.0104024910    0.0480809890    0.0014664564    
0.0106251520    0.0484080790    0.0014764326    
0.0108478130    0.0480022300    0.0014317865    
0.0110704740    0.0445172800    0.0013127430    
0.0112931350    0.0420534680    0.0012796463    
0.0115157960    0.0411411400    0.0012583095    
0.0117384570    0.0404358720    0.0012367387    
0.0119611180    0.0370922020    0.0011879012    
0.0121837790    0.0361500040    0.0011530061    
0.0124064400    0.0358670680    0.0011006104    
0.0126291010    0.0351395260    0.0010757558    
0.0128517620    0.0341237150    0.0010627399    
0.0130744230    0.0326085650    0.0010311734    
0.0132970840    0.0330654110    0.0010332941    
0.0135197450    0.0319369370    0.0010009661    
0.0137424060    0.0298642070    0.0009544642    
0.0139650670    0.0306773630    0.0009458236    
0.0141877280    0.0317503920    0.0009643495    
0.0144103890    0.0297596790    0.0009175302    
0.0146330500    0.0277071470    0.0008797028    
0.0148557110    0.0291094100    0.0008979084    
0.0150783720    0.0284395640    0.0008801824    
0.0153010330    0.0266370910    0.0008398231    
0.0155236940    0.0276817850    0.0008510425    
0.0157463550    0.0263519090    0.0008159620    
0.0159690160    0.0266036140    0.0008167384    
0.0161916770    0.0254121790    0.0007937431    
0.0164143380    0.0265034280    0.0008167476    
0.0166369990    0.0243505490    0.0007587350    
0.0168596600    0.0255956660    0.0007710377    
0.0170823210    0.0262728480    0.0007744074    
0.0173049820    0.0230196210    0.0007261313    
0.0175276430    0.0240924450    0.0007506928    
0.0177503040    0.0233462250    0.0007201373    
0.0179729650    0.0239741980    0.0007225209    
0.0181956260    0.0242787800    0.0007131570    
0.0184182870    0.0241334650    0.0007076684    
0.0186409480    0.0242507990    0.0007138766    
0.0188636090    0.0235109490    0.0006984820    
0.0190862700    0.0233133680    0.0006944533    
0.0193089310    0.0226014730    0.0006827025    
0.0195315920    0.0229761500    0.0006649287    
0.0197542530    0.0226764610    0.0006615403    
0.0199769140    0.0219238030    0.0006504692    
0.0201995750    0.0227385180    0.0006520717    
0.0204222360    0.0219512150    0.0006461832    
0.0206448970    0.0216402990    0.0006370307    
0.0208675580    0.0225930120    0.0006374987    
0.0210902190    0.0220592580    0.0006360014    
0.0213128800    0.0214825190    0.0006191159    
0.0215355410    0.0228550960    0.0006309808    
0.0217582020    0.0227331640    0.0006292955    
0.0219808630    0.0226387570    0.0006271629    
0.0222035240    0.0216161430    0.0006072813    
0.0224261850    0.0219034220    0.0006058626    
0.0226488460    0.0213941130    0.0005942809    
0.0228715070    0.0219942600    0.0006010617    
0.0230941680    0.0207294760    0.0005835239    
0.0233168290    0.0215757250    0.0005967983    
0.0235394900    0.0213765930    0.0005874819    
0.0237621510    0.0216476070    0.0005752787    
0.0239848120    0.0220808080    0.0005816785    
0.0242074730    0.0205073390    0.0005560833    
0.0244301340    0.0215818770    0.0005711170    
0.0246527950    0.0219064370    0.0005807234    
0.0248754560    0.0219625510    0.0005683984    
0.0250981170    0.0214547900    0.0005630422    
0.0253207780    0.0219728310    0.0005527865    
0.0255434390    0.0205124410    0.0005398011    
0.0257661000    0.0209599020    0.0005474220    
0.0259887610    0.0211185730    0.0005436507    
0.0262114220    0.0202833630    0.0005356306    
0.0264340830    0.0212352670    0.0005405984    
0.0266567440    0.0212183210    0.0005370436    
0.0268794050    0.0199803910    0.0005190150    
0.0271020660    0.0208754190    0.0005283646    
0.0273247270    0.0201761830    0.0005163207    
0.0275473880    0.0205302640    0.0005197952    
0.0277700490    0.0197160330    0.0005063723    
0.0279927100    0.0204341720    0.0005110140    
0.0282153710    0.0215108110    0.0005268524    
0.0284380320    0.0202927820    0.0005087524    
0.0286606930    0.0206740580    0.0005091144    
0.0288833540    0.0199220670    0.0005007188    
0.0291060150    0.0196958570    0.0004973955    
0.0293286760    0.0202499940    0.0004973162    
0.0295513370    0.0204088250    0.0004938261    
0.0297739980    0.0203477240    0.0004985151    
0.0299966590    0.0196467960    0.0004814871    
0.0302193200    0.0201021300    0.0004941321    
0.0304419810    0.0203956210    0.0004986421    
0.0306646420    0.0210910730    0.0004927606    
0.0308873030    0.0208407850    0.0004877123    
0.0311099640    0.0209721000    0.0004905167    
0.0313326250    0.0202968350    0.0004772095    
0.0315552860    0.0196290170    0.0004753750    
0.0317779470    0.0207126990    0.0004887464    
0.0320006080    0.0199584230    0.0004688643    
0.0322232690    0.0192039910    0.0004618426    
0.0324459300    0.0202532180    0.0004707506    
0.0326685910    0.0201755920    0.0004690730    
0.0328912520    0.0202984610    0.0004720572    
0.0331139130    0.0199021270    0.0004613455    
0.0333365740    0.0204836660    0.0004695570    
0.0335592350    0.0200177410    0.0004597226    
0.0337818960    0.0207132120    0.0004672681    
0.0340045570    0.0197648280    0.0004557206    
0.0342272170    0.0201930050    0.0004588135    
0.0344498780    0.0205214010    0.0004643612    
0.0346725390    0.0210841990    0.0004619686    
0.0348952000    0.0193479140    0.0004405224    
0.0351178610    0.0202643400    0.0004528980    
0.0353405220    0.0205916630    0.0004544613    
0.0355631830    0.0201979400    0.0004484005    
0.0357858440    0.0197699040    0.0004436239    
0.0360085050    0.0206206390    0.0004544373    
0.0362311660    0.0201919790    0.0004443435    
0.0364538270    0.0212547040    0.0004522277    
0.0366764880    0.0201862150    0.0004403945    
0.0368991490    0.0198690710    0.0004347187    
0.0371218100    0.0188098520    0.0004217625    
0.0373444710    0.0195310080    0.0004344517    
0.0375671320    0.0197632390    0.0004363905    
0.0377897930    0.0194298690    0.0004214930    
0.0380124540    0.0197207470    0.0004273006    
0.0382351150    0.0207392030    0.0004381956    
0.0384577760    0.0201229950    0.0004274721    
0.0386804370    0.0196752680    0.0004259155    
0.0389030980    0.0206133850    0.0004326497    
0.0391257590    0.0193222180    0.0004160370    
0.0393484200    0.0206249110    0.0004283861    
0.0395710810    0.0198329560    0.0004206469    
0.0397937420    0.0195385530    0.0004175133    
0.0400164030    0.0192391320    0.0004159873    
0.0402390640    0.0197021460    0.0004153577    
0.0404617250    0.0191415370    0.0004069905    
0.0406843860    0.0198003820    0.0004099361    
0.0409070470    0.0199377900    0.0004156413    
0.0411297080    0.0198173310    0.0004103750    
0.0413523690    0.0202356770    0.0004157528    
0.0415750300    0.0189650270    0.0004059071    
0.0417976910    0.0200577210    0.0004066404    
0.0420203520    0.0202004290    0.0004096178    
0.0422430130    0.0202448730    0.0004116206    
0.0424656740    0.0204958180    0.0004087734    
0.0426883350    0.0201151720    0.0004069696    
0.0429109960    0.0197356590    0.0004043717    
0.0431336570    0.0198680080    0.0004000090    
0.0433563180    0.0196141780    0.0004008741    
0.0435789790    0.0196218560    0.0003946534    
0.0438016400    0.0197637100    0.0003982321    
0.0440243010    0.0196241490    0.0003927973    
0.0442469620    0.0199077720    0.0003979963    
0.0444696230    0.0194887570    0.0003923734    
0.0446922840    0.0199621510    0.0003959310    
0.0449149450    0.0205022060    0.0003958870    
0.0451376060    0.0196564010    0.0003924223    
0.0453602670    0.0194612210    0.0003863757    
0.0455829280    0.0197300220    0.0003885851    
0.0458055890    0.0196433460    0.0003899916    
0.0460282500    0.0203135870    0.0003918068    
0.0462509110    0.0199124190    0.0003855060    
0.0464735720    0.0195762610    0.0003824539    
0.0466962330    0.0191891530    0.0003803750    
0.0469188940    0.0201076340    0.0003882680    
0.0471415550    0.0194057730    0.0003833905    
0.0473642160    0.0197056170    0.0003809316    
0.0475868770    0.0195103140    0.0003771562    
0.0478095380    0.0193037980    0.0003735131    
0.0480321990    0.0194538110    0.0003757831    
0.0482548600    0.0201121770    0.0003804242    
0.0484775210    0.0204401530    0.0003873214    
0.0487001820    0.0197962250    0.0003755919    
0.0489228430    0.0198746130    0.0003761326    
0.0491455040    0.0197059470    0.0003719428    
0.0493681650    0.0194247820    0.0003724532    
0.0495908260    0.0199501700    0.0003711057    
0.0498134870    0.0204443700    0.0003792503    
0.0500361480    0.0187757660    0.0003624827    
0.0502588090    0.0198876410    0.0003674714    
0.0504814700    0.0192542310    0.0003662990    
0.0507041310    0.0200102020    0.0003689810    
0.0509267920    0.0195518220    0.0003662392    
0.0511494530    0.0188587260    0.0003572908    
0.0513721140    0.0200052370    0.0003712320    
0.0515947750    0.0189752130    0.0003567551    
0.0518174360    0.0197148170    0.0003614509    
0.0520400970    0.0190894660    0.0003532059    
0.0522627580    0.0197542960    0.0003623574    
0.0524854190    0.0198471520    0.0003661612    
0.0527080800    0.0202242790    0.0003724855    
0.0529307410    0.0201238470    0.0003733045    
0.0531534020    0.0195582360    0.0003666811    
0.0533760630    0.0206493560    0.0003779500    
0.0535987240    0.0190931910    0.0003617328    
0.0538213850    0.0195522040    0.0003702963    
0.0540440460    0.0199163680    0.0003719601    
0.0542667070    0.0197903850    0.0003733370    
0.0544893680    0.0199947890    0.0003754600    
0.0547120290    0.0193253870    0.0003665928    
0.0549346900    0.0195058400    0.0003684941    
0.0551573510    0.0200034160    0.0003775574    
0.0553800120    0.0197348090    0.0003718258    
0.0556026730    0.0194959730    0.0003772315    
0.0558253340    0.0191410270    0.0003769117    
0.0560479950    0.0193043270    0.0003785162    
0.0562706560    0.0195432130    0.0003845331    
0.0564933170    0.0195915760    0.0003883519    
0.0567159780    0.0195153580    0.0003829486    
0.0569386390    0.0196129790    0.0003899270    
0.0571613000    0.0196903640    0.0003822831    
0.0573839610    0.0198537900    0.0003806790    
0.0576066220    0.0201033180    0.0003841242    
0.0578292830    0.0190518110    0.0003727061    
0.0580519440    0.0193321070    0.0003768936    
0.0582746050    0.0202107620    0.0003836641    
0.0584972660    0.0195937730    0.0003763165    
0.0587199270    0.0192574190    0.0003698566    
0.0589425880    0.0195102030    0.0003700987    
0.0591652490    0.0196765640    0.0003738603    
0.0593879100    0.0193014080    0.0003675292    
0.0596105710    0.0192956260    0.0003670865    
0.0598332320    0.0199891790    0.0003768191    
0.0600558930    0.0191670320    0.0003666360    
0.0602785540    0.0196654050    0.0003709793    
0.0605012150    0.0192063030    0.0003658509    
0.0607238760    0.0202322580    0.0003727589    
0.0609465370    0.0195474910    0.0003692810    
0.0611691980    0.0200224070    0.0003743324    
0.0613918590    0.0188824280    0.0003595512    
0.0616145200    0.0192987800    0.0003661540    
0.0618371810    0.0193847240    0.0003633642    
0.0620598420    0.0198001040    0.0003676153    
0.0622825030    0.0193057390    0.0003685483    
0.0625051640    0.0195264450    0.0003654434    
0.0627278250    0.0194733560    0.0003641948    
0.0629504860    0.0198884230    0.0003650635    
0.0631731470    0.0194701780    0.0003656734    
0.0633958080    0.0195490460    0.0003685221    
0.0636184690    0.0189475200    0.0003678610    
0.0638411300    0.0202161290    0.0003785500    
0.0640637910    0.0197898470    0.0003771719    
0.0642864520    0.0194108390    0.0003727344    
0.0645091130    0.0187692700    0.0003697347    
0.0647317740    0.0196866130    0.0003790797    
0.0649544350    0.0195559200    0.0003774037    
0.0651770960    0.0192999220    0.0003728801    
0.0653997570    0.0193597630    0.0003726478    
0.0656224180    0.0199915670    0.0003795031    
0.0658450790    0.0198829100    0.0003730305    
0.0660677400    0.0198760540    0.0003745535    
0.0662904010    0.0201004780    0.0003811588    
0.0665130620    0.0199909590    0.0003784701    
0.0667357230    0.0190975140    0.0003764930    
0.0669583840    0.0199947400    0.0003839467    
0.0671810450    0.0196797680    0.0003788075    
0.0674037060    0.0193342340    0.0003818282    
0.0676263670    0.0188738280    0.0003744925    
0.0678490280    0.0186143220    0.0003696346    
0.0680716890    0.0206067970    0.0003897800    
0.0682943500    0.0197684170    0.0003775873    
0.0685170110    0.0193817190    0.0003700662    
0.0687396720    0.0192718390    0.0003680353    
0.0689623330    0.0191568730    0.0003657731    
0.0691849940    0.0195507070    0.0003720739    
0.0694076550    0.0192327580    0.0003688391    
0.0696303160    0.0193610640    0.0003671375    
0.0698529770    0.0197514210    0.0003700429    
0.0700756380    0.0198758820    0.0003664419    
0.0702982990    0.0200418960    0.0003719763    
0.0705209600    0.0208082490    0.0003762849    
0.0707436210    0.0192151960    0.0003599336    
0.0709662820    0.0192618320    0.0003646662    
0.0711889430    0.0192899920    0.0003604504    
0.0714116040    0.0199166230    0.0003670059    
0.0716342650    0.0196747200    0.0003632892    
0.0718569260    0.0192237740    0.0003576555    
0.0720795870    0.0203925340    0.0003698575    
0.0723022480    0.0197011370    0.0003640875    
0.0725249090    0.0193765900    0.0003567519    
0.0727475700    0.0192613810    0.0003587279    
0.0729702310    0.0189816650    0.0003532734    
0.0731928920    0.0197964490    0.0003622177    
0.0734155530    0.0193214590    0.0003571318    
0.0736382140    0.0196672760    0.0003580013    
0.0738608750    0.0190112560    0.0003542538    
0.0740835360    0.0194293140    0.0003572386    
0.0743061970    0.0197415450    0.0003550270    
0.0745288580    0.0198498470    0.0003596601    
0.0747515190    0.0194965290    0.0003571488    
0.0749741800    0.0198179800    0.0003567479    
0.0751968410    0.0200195150    0.0003613725    
0.0754195020    0.0195212990    0.0003547568    
0.0756421630    0.0196093350    0.0003526494    
0.0758648240    0.0189900090    0.0003478700    
0.0760874850    0.0195256490    0.0003525726    
0.0763101460    0.0193293440    0.0003504592    
0.0765328070    0.0202976060    0.0003628045    
0.0767554680    0.0189483550    0.0003481601    
0.0769781290    0.0193635910    0.0003499317    
0.0772007900    0.0196640710    0.0003498081    
0.0774234510    0.0200898060    0.0003555857    
0.0776461120    0.0191345600    0.0003466998    
0.0778687730    0.0192517220    0.0003466107    
0.0780914340    0.0189707920    0.0003465310    
0.0783140950    0.0190970060    0.0003421655    
0.0785367560    0.0199709760    0.0003555491    
0.0787594170    0.0197141860    0.0003500908    
0.0789820780    0.0198449620    0.0003494503    
0.0792047390    0.0199687450    0.0003516845    
0.0794274000    0.0190077240    0.0003445713    
0.0796500610    0.0189508750    0.0003406976    
0.0798727220    0.0192582740    0.0003431327    
0.0800953830    0.0196262230    0.0003455985    
0.0803180440    0.0196784690    0.0003484689    
0.0805407050    0.0199190530    0.0003502666    
0.0807633660    0.0190521330    0.0003422416    
0.0809860270    0.0193876800    0.0003439674    
0.0812086880    0.0194618720    0.0003416467    
0.0814313490    0.0198516290    0.0003466245    
0.0816540100    0.0195444480    0.0003431492    
0.0818766710    0.0199364190    0.0003473644    
0.0820993320    0.0196829110    0.0003445199    
0.0823219930    0.0191281510    0.0003410308    
0.0825446540    0.0190968860    0.0003382763    
0.0827673150    0.0192668070    0.0003374952    
0.0829899760    0.0191982710    0.0003362946    
0.0832126370    0.0193646920    0.0003392619    
0.0834352980    0.0198403260    0.0003426353    
0.0836579590    0.0198934790    0.0003423302    
0.0838806200    0.0194906030    0.0003399064    
0.0841032810    0.0191615520    0.0003349328    
0.0843259420    0.0194393680    0.0003363132    
0.0845486030    0.0191077470    0.0003334325    
0.0847712640    0.0191744450    0.0003319784    
0.0849939250    0.0190970890    0.0003318850    
0.0852165860    0.0201302460    0.0003411906    
0.0854392470    0.0194954610    0.0003325883    
0.0856619080    0.0195303430    0.0003353374    
0.0858845690    0.0192027450    0.0003295183    
0.0861072300    0.0193426640    0.0003329996    
0.0863298910    0.0196558340    0.0003374423    
0.0865525520    0.0193178440    0.0003316399    
0.0867752130    0.0193490680    0.0003292296    
0.0869978740    0.0193577290    0.0003301425    
0.0872205350    0.0197297180    0.0003328755    
0.0874431960    0.0195949600    0.0003317370    
0.0876658570    0.0193665400    0.0003310641    
0.0878885180    0.0190809190    0.0003291771    
0.0881111790    0.0197740020    0.0003346722    
0.0883338400    0.0189957200    0.0003232173    
0.0885565010    0.0192545150    0.0003298244    
0.0887791620    0.0198647240    0.0003306657    
0.0890018230    0.0191464820    0.0003277815    
0.0892244840    0.0199548770    0.0003351986    
0.0894471450    0.0196359100    0.0003311043    
0.0896698060    0.0192165410    0.0003263140    
0.0898924670    0.0190148080    0.0003261013    
0.0901151280    0.0196186540    0.0003276609    
0.0903377890    0.0193975350    0.0003285359    
0.0905604500    0.0195727640    0.0003285020    
0.0907831110    0.0194809850    0.0003269156    
0.0910057720    0.0189570510    0.0003239693    
0.0912284330    0.0193755740    0.0003228366    
0.0914510940    0.0191721370    0.0003247184    
0.0916737550    0.0194930090    0.0003266118    
0.0918964160    0.0193243960    0.0003265486    
0.0921190770    0.0197297340    0.0003269723    
0.0923417380    0.0196103440    0.0003261152    
0.0925643990    0.0196278130    0.0003254620    
0.0927870600    0.0193048720    0.0003240971    
0.0930097210    0.0196513830    0.0003242079    
0.0932323820    0.0194745730    0.0003251185    
