# Diamond Light Source Ltd.
# Data extracted from: /dls/b21/data/2018/cm19678-3/processed/b21-386631_00519.dat
q(1/A)          Column          Error           
0.0035000000    2.0617644000    0.0243591010    
0.0037226610    1.8481606000    0.0225771900    
0.0039453220    1.6036940000    0.0191323110    
0.0041679830    1.2775229000    0.0140234800    
0.0043906440    0.9723314800    0.0117021040    
0.0046133050    0.7806869400    0.0100660500    
0.0048359660    0.5988716700    0.0083394077    
0.0050586270    0.4576286700    0.0071653328    
0.0052812880    0.4249385100    0.0065282512    
0.0055039490    0.3790225300    0.0058624194    
0.0057266100    0.3178958200    0.0051939879    
0.0059492710    0.2618864400    0.0047142766    
0.0061719320    0.2283656800    0.0042421073    
0.0063945930    0.2005162300    0.0040232196    
0.0066172539    0.1826356400    0.0036054312    
0.0068399149    0.1686541800    0.0034101139    
0.0070625759    0.1431929800    0.0031099528    
0.0072852369    0.1262909800    0.0028769445    
0.0075078979    0.1146047400    0.0027271388    
0.0077305589    0.1014126800    0.0025165135    
0.0079532199    0.0953422360    0.0024062210    
0.0081758809    0.0881542650    0.0023352635    
0.0083985419    0.0850822690    0.0021397997    
0.0086212029    0.0739962930    0.0019955316    
0.0088438639    0.0698469140    0.0019232017    
0.0090665249    0.0656990900    0.0018014970    
0.0092891859    0.0643633510    0.0018611143    
0.0095118469    0.0599221650    0.0017269281    
0.0097345079    0.0567101170    0.0016316503    
0.0099571689    0.0539451350    0.0015585613    
0.0101798300    0.0477310970    0.0014660490    
0.0104024910    0.0444120170    0.0014093727    
0.0106251520    0.0448042060    0.0014203888    
0.0108478130    0.0456946340    0.0013969257    
0.0110704740    0.0447481340    0.0013161216    
0.0112931350    0.0407282790    0.0012593029    
0.0115157960    0.0400622800    0.0012416818    
0.0117384570    0.0403589490    0.0012355423    
0.0119611180    0.0380420850    0.0012029964    
0.0121837790    0.0365166050    0.0011588194    
0.0124064400    0.0350891800    0.0010885928    
0.0126291010    0.0335906160    0.0010517630    
0.0128517620    0.0346190890    0.0010704091    
0.0130744230    0.0328357910    0.0010347436    
0.0132970840    0.0314498980    0.0010077197    
0.0135197450    0.0326574690    0.0010121786    
0.0137424060    0.0303818320    0.0009626852    
0.0139650670    0.0289559520    0.0009188894    
0.0141877280    0.0306949840    0.0009481712    
0.0144103890    0.0278634610    0.0008878037    
0.0146330500    0.0296334240    0.0009097544    
0.0148557110    0.0299116770    0.0009101833    
0.0150783720    0.0269677020    0.0008570898    
0.0153010330    0.0287279650    0.0008721476    
0.0155236940    0.0264250680    0.0008314869    
0.0157463550    0.0287512250    0.0008522857    
0.0159690160    0.0254494040    0.0007988120    
0.0161916770    0.0252626290    0.0007913916    
0.0164143380    0.0267039430    0.0008198185    
0.0166369990    0.0258864180    0.0007822848    
0.0168596600    0.0262219560    0.0007804015    
0.0170823210    0.0241720850    0.0007427901    
0.0173049820    0.0242786370    0.0007457124    
0.0175276430    0.0246062660    0.0007586437    
0.0177503040    0.0241007200    0.0007316698    
0.0179729650    0.0248879610    0.0007361498    
0.0181956260    0.0231259090    0.0006960081    
0.0184182870    0.0247759670    0.0007170153    
0.0186409480    0.0236406320    0.0007048275    
0.0188636090    0.0234687080    0.0006978432    
0.0190862700    0.0240573140    0.0007054354    
0.0193089310    0.0238792710    0.0007017247    
0.0195315920    0.0239952730    0.0006795047    
0.0197542530    0.0229266270    0.0006651689    
0.0199769140    0.0225792620    0.0006601108    
0.0201995750    0.0241215160    0.0006715986    
0.0204222360    0.0224070330    0.0006528474    
0.0206448970    0.0217708800    0.0006389397    
0.0208675580    0.0227721750    0.0006400113    
0.0210902190    0.0226636610    0.0006446453    
0.0213128800    0.0229270500    0.0006395825    
0.0215355410    0.0223840490    0.0006244348    
0.0217582020    0.0207988830    0.0006019187    
0.0219808630    0.0211612720    0.0006063427    
0.0222035240    0.0230826510    0.0006275333    
0.0224261850    0.0222211340    0.0006102313    
0.0226488460    0.0219216720    0.0006015540    
0.0228715070    0.0217471870    0.0005976667    
0.0230941680    0.0222235320    0.0006041770    
0.0233168290    0.0215090160    0.0005958656    
0.0235394900    0.0218764130    0.0005943010    
0.0237621510    0.0212800280    0.0005703646    
0.0239848120    0.0218349480    0.0005784219    
0.0242074730    0.0203257510    0.0005536071    
0.0244301340    0.0199187800    0.0005486622    
0.0246527950    0.0209974970    0.0005685391    
0.0248754560    0.0212704940    0.0005593626    
0.0250981170    0.0208187650    0.0005546250    
0.0253207780    0.0211377530    0.0005421719    
0.0255434390    0.0211794220    0.0005484983    
0.0257661000    0.0207733820    0.0005449723    
0.0259887610    0.0206001060    0.0005369274    
0.0262114220    0.0203251570    0.0005361737    
0.0264340830    0.0202162180    0.0005274594    
0.0266567440    0.0216390150    0.0005423329    
0.0268794050    0.0203707290    0.0005240519    
0.0271020660    0.0208613880    0.0005281787    
0.0273247270    0.0207436870    0.0005235234    
0.0275473880    0.0212139370    0.0005283707    
0.0277700490    0.0202226030    0.0005128281    
0.0279927100    0.0202546230    0.0005087560    
0.0282153710    0.0205939850    0.0005154944    
0.0284380320    0.0203559150    0.0005095352    
0.0286606930    0.0201092450    0.0005021039    
0.0288833540    0.0198711010    0.0005000701    
0.0291060150    0.0207377780    0.0005103742    
0.0293286760    0.0205180450    0.0005005890    
0.0295513370    0.0214477090    0.0005062309    
0.0297739980    0.0203959350    0.0004990975    
0.0299966590    0.0216048950    0.0005049030    
0.0302193200    0.0203079770    0.0004966478    
0.0304419810    0.0200048770    0.0004938347    
0.0306646420    0.0211479700    0.0004934170    
0.0308873030    0.0207259980    0.0004863597    
0.0311099640    0.0202372090    0.0004818383    
0.0313326250    0.0201952200    0.0004760059    
0.0315552860    0.0207566000    0.0004888306    
0.0317779470    0.0205505940    0.0004868224    
0.0320006080    0.0200899650    0.0004703994    
0.0322232690    0.0204362230    0.0004764219    
0.0324459300    0.0211826020    0.0004814228    
0.0326685910    0.0198696060    0.0004654950    
0.0328912520    0.0206930190    0.0004766155    
0.0331139130    0.0196234560    0.0004580970    
0.0333365740    0.0200955330    0.0004650797    
0.0335592350    0.0200382250    0.0004599506    
0.0337818960    0.0203752550    0.0004634332    
0.0340045570    0.0200373950    0.0004588449    
0.0342272170    0.0200255760    0.0004569002    
0.0344498780    0.0196381420    0.0004542508    
0.0346725390    0.0207090310    0.0004578329    
0.0348952000    0.0205308100    0.0004537819    
0.0351178610    0.0199094410    0.0004489075    
0.0353405220    0.0203101820    0.0004513374    
0.0355631830    0.0198887200    0.0004449478    
0.0357858440    0.0197394180    0.0004432747    
0.0360085050    0.0196986490    0.0004441547    
0.0362311660    0.0207193490    0.0004501017    
0.0364538270    0.0199647450    0.0004382831    
0.0366764880    0.0198685280    0.0004369084    
0.0368991490    0.0200491530    0.0004366774    
0.0371218100    0.0201710160    0.0004367494    
0.0373444710    0.0201295440    0.0004410515    
0.0375671320    0.0201480410    0.0004406115    
0.0377897930    0.0191092450    0.0004179943    
0.0380124540    0.0201830390    0.0004322732    
0.0382351150    0.0197293970    0.0004273878    
0.0384577760    0.0197137390    0.0004230962    
0.0386804370    0.0196930870    0.0004261016    
0.0389030980    0.0192052580    0.0004176043    
0.0391257590    0.0199396860    0.0004226255    
0.0393484200    0.0197256200    0.0004189361    
0.0395710810    0.0203140880    0.0004257119    
0.0397937420    0.0195111740    0.0004172141    
0.0400164030    0.0195083510    0.0004188811    
0.0402390640    0.0201305810    0.0004198429    
0.0404617250    0.0200754820    0.0004167945    
0.0406843860    0.0191208130    0.0004028337    
0.0409070470    0.0204916940    0.0004213687    
0.0411297080    0.0202925790    0.0004152600    
0.0413523690    0.0204229550    0.0004176657    
0.0415750300    0.0198765990    0.0004155412    
0.0417976910    0.0197273380    0.0004032711    
0.0420203520    0.0191781750    0.0003991125    
0.0422430130    0.0192483430    0.0004013557    
0.0424656740    0.0195576440    0.0003993019    
0.0426883350    0.0199169330    0.0004049529    
0.0429109960    0.0194284900    0.0004012062    
0.0431336570    0.0189815240    0.0003909771    
0.0433563180    0.0201870560    0.0004066798    
0.0435789790    0.0198593590    0.0003970284    
0.0438016400    0.0196748230    0.0003973293    
0.0440243010    0.0204804880    0.0004012698    
0.0442469620    0.0197718840    0.0003966294    
0.0444696230    0.0196935310    0.0003944232    
0.0446922840    0.0195531820    0.0003918481    
0.0449149450    0.0199664710    0.0003906742    
0.0451376060    0.0194285930    0.0003901355    
0.0453602670    0.0202660330    0.0003942778    
0.0455829280    0.0195916460    0.0003872139    
0.0458055890    0.0201614740    0.0003950952    
0.0460282500    0.0197008380    0.0003858462    
0.0462509110    0.0193595150    0.0003801102    
0.0464735720    0.0200613000    0.0003871568    
0.0466962330    0.0198218840    0.0003865891    
0.0469188940    0.0195972030    0.0003833022    
0.0471415550    0.0193445680    0.0003827794    
0.0473642160    0.0201983570    0.0003856587    
0.0475868770    0.0196919640    0.0003789019    
0.0478095380    0.0195922680    0.0003762877    
0.0480321990    0.0199032340    0.0003800930    
0.0482548600    0.0196150510    0.0003756873    
0.0484775210    0.0194854200    0.0003781617    
0.0487001820    0.0195034410    0.0003727982    
0.0489228430    0.0203793790    0.0003808731    
0.0491455040    0.0190805410    0.0003659872    
0.0493681650    0.0196883960    0.0003749660    
0.0495908260    0.0199012210    0.0003706444    
0.0498134870    0.0192899850    0.0003683818    
0.0500361480    0.0196988880    0.0003712808    
0.0502588090    0.0194864230    0.0003637401    
0.0504814700    0.0191003200    0.0003648263    
0.0507041310    0.0194040460    0.0003633436    
0.0509267920    0.0204224350    0.0003742985    
0.0511494530    0.0197787010    0.0003658960    
0.0513721140    0.0200734930    0.0003718589    
0.0515947750    0.0195246040    0.0003618771    
0.0518174360    0.0190117740    0.0003549420    
0.0520400970    0.0191868910    0.0003541005    
0.0522627580    0.0194612230    0.0003596538    
0.0524854190    0.0197519550    0.0003652762    
0.0527080800    0.0200246980    0.0003706371    
0.0529307410    0.0196177090    0.0003685743    
0.0531534020    0.0196194890    0.0003672491    
0.0533760630    0.0197563490    0.0003696814    
0.0535987240    0.0197367760    0.0003677731    
0.0538213850    0.0196708050    0.0003714118    
0.0540440460    0.0196100930    0.0003690831    
0.0542667070    0.0200503380    0.0003757751    
0.0544893680    0.0198320060    0.0003739227    
0.0547120290    0.0205277960    0.0003778193    
0.0549346900    0.0196653320    0.0003699918    
0.0551573510    0.0199315250    0.0003768724    
0.0553800120    0.0192227940    0.0003669648    
0.0556026730    0.0190501260    0.0003728873    
0.0558253340    0.0186802820    0.0003723418    
0.0560479950    0.0198009700    0.0003833483    
0.0562706560    0.0196031240    0.0003851160    
0.0564933170    0.0192830460    0.0003852758    
0.0567159780    0.0197927740    0.0003856548    
0.0569386390    0.0192170130    0.0003859647    
0.0571613000    0.0193038160    0.0003785062    
0.0573839610    0.0193349380    0.0003756659    
0.0576066220    0.0196036040    0.0003793141    
0.0578292830    0.0191314110    0.0003734781    
0.0580519440    0.0196254020    0.0003797359    
0.0582746050    0.0195036810    0.0003768871    
0.0584972660    0.0195570190    0.0003759575    
0.0587199270    0.0200878890    0.0003777414    
0.0589425880    0.0198184840    0.0003730053    
0.0591652490    0.0197966990    0.0003749940    
0.0593879100    0.0190698620    0.0003653123    
0.0596105710    0.0194416680    0.0003684673    
0.0598332320    0.0198748970    0.0003757345    
0.0600558930    0.0196924010    0.0003716209    
0.0602785540    0.0187550260    0.0003622849    
0.0605012150    0.0194217270    0.0003678912    
0.0607238760    0.0193800520    0.0003648181    
0.0609465370    0.0198259170    0.0003718958    
0.0611691980    0.0195528990    0.0003699116    
0.0613918590    0.0194979910    0.0003653591    
0.0616145200    0.0199997980    0.0003727389    
0.0618371810    0.0193977360    0.0003634804    
0.0620598420    0.0197926550    0.0003675404    
0.0622825030    0.0195372990    0.0003707461    
0.0625051640    0.0191496760    0.0003618949    
0.0627278250    0.0197043180    0.0003663424    
0.0629504860    0.0193718400    0.0003602855    
0.0631731470    0.0197717380    0.0003684886    
0.0633958080    0.0200486040    0.0003731951    
0.0636184690    0.0191897410    0.0003701990    
0.0638411300    0.0193507340    0.0003703532    
0.0640637910    0.0200120590    0.0003792776    
0.0642864520    0.0192169840    0.0003708626    
0.0645091130    0.0191838180    0.0003737896    
0.0647317740    0.0192845360    0.0003751827    
0.0649544350    0.0195771530    0.0003776026    
0.0651770960    0.0192993140    0.0003728683    
0.0653997570    0.0190292080    0.0003694470    
0.0656224180    0.0192345230    0.0003722424    
0.0658450790    0.0195043730    0.0003694567    
0.0660677400    0.0196707450    0.0003726081    
0.0662904010    0.0195288680    0.0003756941    
0.0665130620    0.0197538850    0.0003762133    
0.0667357230    0.0195348130    0.0003807731    
0.0669583840    0.0192273750    0.0003765011    
0.0671810450    0.0196937310    0.0003789359    
0.0674037060    0.0195598370    0.0003840433    
0.0676263670    0.0197351610    0.0003829364    
0.0678490280    0.0193477160    0.0003768400    
0.0680716890    0.0192717250    0.0003769362    
0.0682943500    0.0200995410    0.0003807305    
0.0685170110    0.0198545080    0.0003745467    
0.0687396720    0.0204519630    0.0003791303    
0.0689623330    0.0195054540    0.0003690801    
0.0691849940    0.0199324550    0.0003756830    
0.0694076550    0.0199748430    0.0003758816    
0.0696303160    0.0187547870    0.0003613378    
0.0698529770    0.0201736840    0.0003739717    
0.0700756380    0.0192807550    0.0003609084    
0.0702982990    0.0191575980    0.0003636718    
0.0705209600    0.0192085800    0.0003615262    
0.0707436210    0.0196663030    0.0003641284    
0.0709662820    0.0195718900    0.0003675837    
0.0711889430    0.0204006790    0.0003706764    
0.0714116040    0.0193344080    0.0003615961    
0.0716342650    0.0201570650    0.0003677097    
0.0718569260    0.0190634750    0.0003561556    
0.0720795870    0.0193521730    0.0003602938    
0.0723022480    0.0193102740    0.0003604520    
0.0725249090    0.0195861600    0.0003586704    
0.0727475700    0.0194077520    0.0003600826    
0.0729702310    0.0196648330    0.0003595688    
0.0731928920    0.0191596020    0.0003563382    
0.0734155530    0.0193802580    0.0003576692    
0.0736382140    0.0196014920    0.0003573964    
0.0738608750    0.0204232550    0.0003671680    
0.0740835360    0.0189032460    0.0003523636    
0.0743061970    0.0198686130    0.0003561621    
0.0745288580    0.0191454410    0.0003532153    
0.0747515190    0.0192931050    0.0003552751    
0.0749741800    0.0202155010    0.0003603024    
0.0751968410    0.0192687470    0.0003545261    
0.0754195020    0.0188308840    0.0003484215    
0.0756421630    0.0197989690    0.0003543449    
0.0758648240    0.0193335140    0.0003509967    
0.0760874850    0.0198306100    0.0003553097    
0.0763101460    0.0197353890    0.0003541155    
0.0765328070    0.0196549860    0.0003570095    
0.0767554680    0.0196514220    0.0003545548    
0.0769781290    0.0193313630    0.0003496349    
0.0772007900    0.0196883420    0.0003500184    
0.0774234510    0.0190507290    0.0003462624    
0.0776461120    0.0193161260    0.0003483353    
0.0778687730    0.0196380100    0.0003500653    
0.0780914340    0.0187929620    0.0003448976    
0.0783140950    0.0192803190    0.0003437984    
0.0785367560    0.0204893860    0.0003601286    
0.0787594170    0.0193965060    0.0003472532    
0.0789820780    0.0197335770    0.0003484627    
0.0792047390    0.0194540480    0.0003471171    
0.0794274000    0.0195755280    0.0003496745    
0.0796500610    0.0191401480    0.0003423894    
0.0798727220    0.0196428210    0.0003465361    
0.0800953830    0.0189683750    0.0003397518    
0.0803180440    0.0194125160    0.0003461007    
0.0805407050    0.0194564950    0.0003461703    
0.0807633660    0.0197216260    0.0003481974    
0.0809860270    0.0194419900    0.0003444434    
0.0812086880    0.0200489950    0.0003467563    
0.0814313490    0.0190037040    0.0003391357    
0.0816540100    0.0195920290    0.0003435612    
0.0818766710    0.0200144690    0.0003480382    
0.0820993320    0.0198089230    0.0003456155    
0.0823219930    0.0194862660    0.0003442030    
0.0825446540    0.0196295670    0.0003429563    
0.0827673150    0.0198218990    0.0003423170    
0.0829899760    0.0196159030    0.0003399274    
0.0832126370    0.0195958800    0.0003412756    
0.0834352980    0.0200112950    0.0003441029    
0.0836579590    0.0196572240    0.0003402860    
0.0838806200    0.0197508040    0.0003421624    
0.0841032810    0.0191199680    0.0003345639    
0.0843259420    0.0198751240    0.0003400564    
0.0845486030    0.0194736940    0.0003366050    
0.0847712640    0.0201739150    0.0003405153    
0.0849939250    0.0194310080    0.0003347687    
0.0852165860    0.0194067730    0.0003349981    
0.0854392470    0.0190466240    0.0003287323    
0.0856619080    0.0187812420    0.0003288383    
0.0858845690    0.0197223400    0.0003339413    
0.0861072300    0.0198236000    0.0003371088    
0.0863298910    0.0191917850    0.0003334300    
0.0865525520    0.0193343150    0.0003317760    
0.0867752130    0.0197013680    0.0003322081    
0.0869978740    0.0189461050    0.0003266084    
0.0872205350    0.0194033670    0.0003301057    
0.0874431960    0.0195325660    0.0003312032    
0.0876658570    0.0193319740    0.0003307633    
0.0878885180    0.0199264390    0.0003363861    
0.0881111790    0.0196657610    0.0003337497    
0.0883338400    0.0195890630    0.0003282213    
0.0885565010    0.0194798930    0.0003317439    
0.0887791620    0.0196604490    0.0003289559    
0.0890018230    0.0202457010    0.0003370541    
0.0892244840    0.0195150750    0.0003314789    
0.0894471450    0.0196464570    0.0003311880    
0.0896698060    0.0199528790    0.0003325018    
0.0898924670    0.0190925020    0.0003267617    
0.0901151280    0.0190160880    0.0003225847    
0.0903377890    0.0194247450    0.0003287611    
0.0905604500    0.0196879260    0.0003294618    
0.0907831110    0.0191512190    0.0003241317    
0.0910057720    0.0201689150    0.0003341588    
0.0912284330    0.0193480690    0.0003226023    
0.0914510940    0.0194245140    0.0003268435    
0.0916737550    0.0192078340    0.0003242088    
0.0918964160    0.0192575730    0.0003259784    
0.0921190770    0.0193498100    0.0003238037    
0.0923417380    0.0194253430    0.0003245682    
0.0925643990    0.0192116620    0.0003219882    
0.0927870600    0.0190376600    0.0003218412    
0.0930097210    0.0192389210    0.0003207824    
0.0932323820    0.0189637720    0.0003208214    
