# Diamond Light Source Ltd.
# Data extracted from: /dls/b21/data/2018/cm19678-3/processed/b21-386631_00525.dat
q(1/A)          Column          Error           
0.0035000000    2.0699922000    0.0244086560    
0.0037226610    1.8982365000    0.0228819470    
0.0039453220    1.5969772000    0.0190929850    
0.0041679830    1.3061082000    0.0141800850    
0.0043906440    0.9750872200    0.0117191550    
0.0046133050    0.7798422800    0.0100610150    
0.0048359660    0.5960172900    0.0083198507    
0.0050586270    0.4564319400    0.0071562509    
0.0052812880    0.4208610000    0.0064971208    
0.0055039490    0.3864895600    0.0059201272    
0.0057266100    0.3180067300    0.0051951067    
0.0059492710    0.2691218200    0.0047791514    
0.0061719320    0.2183758200    0.0041484541    
0.0063945930    0.1870507900    0.0038859439    
0.0066172539    0.1857825700    0.0036365094    
0.0068399149    0.1619102400    0.0033413754    
0.0070625759    0.1411106800    0.0030873841    
0.0072852369    0.1219099500    0.0028267193    
0.0075078979    0.1142247300    0.0027227251    
0.0077305589    0.0972992020    0.0024650490    
0.0079532199    0.1001479100    0.0024662187    
0.0081758809    0.0883470880    0.0023379119    
0.0083985419    0.0808374670    0.0020858243    
0.0086212029    0.0736794340    0.0019913361    
0.0088438639    0.0722887400    0.0019566103    
0.0090665249    0.0648646400    0.0017900932    
0.0092891859    0.0601168490    0.0017987451    
0.0095118469    0.0584836470    0.0017061433    
0.0097345079    0.0550245870    0.0016072854    
0.0099571689    0.0519230680    0.0015291345    
0.0101798300    0.0485906340    0.0014792509    
0.0104024910    0.0475019390    0.0014576360    
0.0106251520    0.0477350230    0.0014661696    
0.0108478130    0.0454421240    0.0013931177    
0.0110704740    0.0428935930    0.0012886131    
0.0112931350    0.0423671100    0.0012844417    
0.0115157960    0.0398346360    0.0012381997    
0.0117384570    0.0368442700    0.0011805666    
0.0119611180    0.0365994840    0.0011800147    
0.0121837790    0.0382848940    0.0011865938    
0.0124064400    0.0368145710    0.0011150812    
0.0126291010    0.0347131460    0.0010692362    
0.0128517620    0.0339268380    0.0010596964    
0.0130744230    0.0317297330    0.0010172086    
0.0132970840    0.0323566520    0.0010221855    
0.0135197450    0.0308090890    0.0009831575    
0.0137424060    0.0323977400    0.0009941512    
0.0139650670    0.0318162450    0.0009632445    
0.0141877280    0.0294965470    0.0009295151    
0.0144103890    0.0290539270    0.0009066081    
0.0146330500    0.0286582310    0.0008946964    
0.0148557110    0.0282799290    0.0008850452    
0.0150783720    0.0290130860    0.0008890355    
0.0153010330    0.0281742480    0.0008637370    
0.0155236940    0.0273168620    0.0008454357    
0.0157463550    0.0272123070    0.0008291966    
0.0159690160    0.0261535990    0.0008098215    
0.0161916770    0.0257109840    0.0007984161    
0.0164143380    0.0256237890    0.0008030997    
0.0166369990    0.0264323160    0.0007905226    
0.0168596600    0.0245517080    0.0007551691    
0.0170823210    0.0251556360    0.0007577824    
0.0173049820    0.0251052500    0.0007583318    
0.0175276430    0.0250995110    0.0007662410    
0.0177503040    0.0248357710    0.0007427741    
0.0179729650    0.0245198070    0.0007307147    
0.0181956260    0.0234839380    0.0007014038    
0.0184182870    0.0237611440    0.0007022061    
0.0186409480    0.0239157710    0.0007089462    
0.0188636090    0.0234706300    0.0006979004    
0.0190862700    0.0236248520    0.0006990947    
0.0193089310    0.0238193590    0.0007008726    
0.0195315920    0.0221498170    0.0006528787    
0.0197542530    0.0228513040    0.0006641025    
0.0199769140    0.0238935180    0.0006790782    
0.0201995750    0.0226087610    0.0006502249    
0.0204222360    0.0230936900    0.0006628023    
0.0206448970    0.0226353180    0.0006515278    
0.0208675580    0.0218566030    0.0006270390    
0.0210902190    0.0223170990    0.0006397237    
0.0213128800    0.0221259690    0.0006283353    
0.0215355410    0.0228910890    0.0006314933    
0.0217582020    0.0218110010    0.0006164153    
0.0219808630    0.0211630050    0.0006063923    
0.0222035240    0.0214636760    0.0006051510    
0.0224261850    0.0224240670    0.0006130365    
0.0226488460    0.0229304940    0.0006152651    
0.0228715070    0.0205826720    0.0005814685    
0.0230941680    0.0221596450    0.0006033327    
0.0233168290    0.0211640960    0.0005910929    
0.0235394900    0.0208609890    0.0005803683    
0.0237621510    0.0210065760    0.0005667113    
0.0239848120    0.0207640550    0.0005640824    
0.0242074730    0.0210663210    0.0005636253    
0.0244301340    0.0207063450    0.0005594267    
0.0246527950    0.0212455420    0.0005719108    
0.0248754560    0.0207132150    0.0005520090    
0.0250981170    0.0209091310    0.0005558502    
0.0253207780    0.0202215860    0.0005303139    
0.0255434390    0.0208544190    0.0005442959    
0.0257661000    0.0207607860    0.0005448293    
0.0259887610    0.0213435700    0.0005465528    
0.0262114220    0.0213877200    0.0005500328    
0.0264340830    0.0201903480    0.0005271434    
0.0266567440    0.0209883010    0.0005341382    
0.0268794050    0.0209791200    0.0005318418    
0.0271020660    0.0209165920    0.0005288988    
0.0273247270    0.0205603950    0.0005212267    
0.0275473880    0.0212683190    0.0005290692    
0.0277700490    0.0205233960    0.0005166492    
0.0279927100    0.0203074020    0.0005094393    
0.0282153710    0.0212279950    0.0005233907    
0.0284380320    0.0205361570    0.0005118070    
0.0286606930    0.0195592210    0.0004952098    
0.0288833540    0.0212319770    0.0005169314    
0.0291060150    0.0211791380    0.0005157978    
0.0293286760    0.0203487280    0.0004985397    
0.0295513370    0.0192507460    0.0004796228    
0.0297739980    0.0205197470    0.0005006306    
0.0299966590    0.0208396340    0.0004959007    
0.0302193200    0.0194472100    0.0004860284    
0.0304419810    0.0203600740    0.0004982199    
0.0306646420    0.0207927940    0.0004892761    
0.0308873030    0.0213440480    0.0004935782    
0.0311099640    0.0206748510    0.0004870404    
0.0313326250    0.0199724640    0.0004733928    
0.0315552860    0.0194342820    0.0004730230    
0.0317779470    0.0198372150    0.0004783177    
0.0320006080    0.0207084580    0.0004776050    
0.0322232690    0.0201157780    0.0004726913    
0.0324459300    0.0203198930    0.0004715367    
0.0326685910    0.0197621710    0.0004642539    
0.0328912520    0.0209911370    0.0004800561    
0.0331139130    0.0199566040    0.0004619881    
0.0333365740    0.0202909390    0.0004673545    
0.0335592350    0.0202299180    0.0004621643    
0.0337818960    0.0202715080    0.0004622708    
0.0340045570    0.0200285280    0.0004587621    
0.0342272170    0.0205901880    0.0004633154    
0.0344498780    0.0210373350    0.0004701741    
0.0346725390    0.0202653360    0.0004529203    
0.0348952000    0.0204121250    0.0004524869    
0.0351178610    0.0197794780    0.0004474583    
0.0353405220    0.0200510510    0.0004484673    
0.0355631830    0.0194125030    0.0004396066    
0.0357858440    0.0199700030    0.0004458745    
0.0360085050    0.0203212160    0.0004511372    
0.0362311660    0.0202810050    0.0004453332    
0.0364538270    0.0202742950    0.0004416859    
0.0366764880    0.0200815400    0.0004392622    
0.0368991490    0.0192613190    0.0004280293    
0.0371218100    0.0202388700    0.0004375013    
0.0373444710    0.0200248830    0.0004399214    
0.0375671320    0.0193980530    0.0004323508    
0.0377897930    0.0192388250    0.0004194263    
0.0380124540    0.0200550660    0.0004309182    
0.0382351150    0.0198791580    0.0004290244    
0.0384577760    0.0200786030    0.0004270110    
0.0386804370    0.0195379540    0.0004244374    
0.0389030980    0.0198152740    0.0004242020    
0.0391257590    0.0192336090    0.0004150924    
0.0393484200    0.0193713090    0.0004151736    
0.0395710810    0.0192272490    0.0004141842    
0.0397937420    0.0193343280    0.0004153361    
0.0400164030    0.0196718570    0.0004206501    
0.0402390640    0.0194404300    0.0004126001    
0.0404617250    0.0195838520    0.0004116763    
0.0406843860    0.0203955060    0.0004160616    
0.0409070470    0.0190982630    0.0004068067    
0.0411297080    0.0196738560    0.0004088971    
0.0413523690    0.0202964930    0.0004163876    
0.0415750300    0.0201475560    0.0004183810    
0.0417976910    0.0200917100    0.0004069951    
0.0420203520    0.0198525740    0.0004060859    
0.0422430130    0.0201370900    0.0004105338    
0.0424656740    0.0191678980    0.0003953194    
0.0426883350    0.0202396990    0.0004082377    
0.0429109960    0.0198360830    0.0004054094    
0.0431336570    0.0195629600    0.0003969363    
0.0433563180    0.0188695610    0.0003932012    
0.0435789790    0.0194323320    0.0003927527    
0.0438016400    0.0192190300    0.0003927161    
0.0440243010    0.0196172750    0.0003927384    
0.0442469620    0.0199008180    0.0003979368    
0.0444696230    0.0199953510    0.0003974504    
0.0446922840    0.0197668240    0.0003939992    
0.0449149450    0.0200292640    0.0003913041    
0.0451376060    0.0200021210    0.0003958682    
0.0453602670    0.0193548030    0.0003853276    
0.0455829280    0.0197233630    0.0003885293    
0.0458055890    0.0197837120    0.0003913924    
0.0460282500    0.0196722220    0.0003855816    
0.0462509110    0.0188834180    0.0003754225    
0.0464735720    0.0196594420    0.0003832753    
0.0466962330    0.0191147170    0.0003796461    
0.0469188940    0.0205660030    0.0003926784    
0.0471415550    0.0193234280    0.0003825859    
0.0473642160    0.0195814190    0.0003797388    
0.0475868770    0.0194383850    0.0003764698    
0.0478095380    0.0192035860    0.0003725517    
0.0480321990    0.0197088650    0.0003782480    
0.0482548600    0.0197893650    0.0003773684    
0.0484775210    0.0197292280    0.0003805357    
0.0487001820    0.0200751530    0.0003782383    
0.0489228430    0.0191637380    0.0003693539    
0.0491455040    0.0198824570    0.0003736142    
0.0493681650    0.0195257460    0.0003734293    
0.0495908260    0.0202411230    0.0003738115    
0.0498134870    0.0189749640    0.0003653764    
0.0500361480    0.0197144980    0.0003714431    
0.0502588090    0.0198275310    0.0003669249    
0.0504814700    0.0194503320    0.0003681689    
0.0507041310    0.0192763550    0.0003621610    
0.0509267920    0.0192166370    0.0003630955    
0.0511494530    0.0194350790    0.0003627185    
0.0513721140    0.0201095830    0.0003722083    
0.0515947750    0.0192042320    0.0003589106    
0.0518174360    0.0198947440    0.0003631057    
0.0520400970    0.0197897360    0.0003596351    
0.0522627580    0.0191504020    0.0003567847    
0.0524854190    0.0196117040    0.0003639920    
0.0527080800    0.0196146980    0.0003668382    
0.0529307410    0.0202495160    0.0003744777    
0.0531534020    0.0198410940    0.0003693324    
0.0533760630    0.0200831160    0.0003727414    
0.0535987240    0.0195122230    0.0003656899    
0.0538213850    0.0195602030    0.0003703813    
0.0540440460    0.0198687420    0.0003715244    
0.0542667070    0.0192279270    0.0003680028    
0.0544893680    0.0201791150    0.0003771962    
0.0547120290    0.0190899110    0.0003643617    
0.0549346900    0.0195764400    0.0003691697    
0.0551573510    0.0200329300    0.0003778453    
0.0553800120    0.0201421490    0.0003756530    
0.0556026730    0.0196721440    0.0003789416    
0.0558253340    0.0198842170    0.0003841688    
0.0560479950    0.0192459220    0.0003779527    
0.0562706560    0.0196955280    0.0003860384    
0.0564933170    0.0192461330    0.0003849227    
0.0567159780    0.0198770590    0.0003864909    
0.0569386390    0.0190247730    0.0003840451    
0.0571613000    0.0197581570    0.0003829503    
0.0573839610    0.0196942000    0.0003791555    
0.0576066220    0.0198841310    0.0003820341    
0.0578292830    0.0196725510    0.0003787387    
0.0580519440    0.0199650260    0.0003830232    
0.0582746050    0.0195708300    0.0003775508    
0.0584972660    0.0198260530    0.0003785501    
0.0587199270    0.0195283340    0.0003724584    
0.0589425880    0.0193216210    0.0003683150    
0.0591652490    0.0195070640    0.0003722559    
0.0593879100    0.0197572950    0.0003718537    
0.0596105710    0.0193734220    0.0003678350    
0.0598332320    0.0201535750    0.0003783750    
0.0600558930    0.0194415260    0.0003692613    
0.0602785540    0.0190435100    0.0003650755    
0.0605012150    0.0192142400    0.0003659357    
0.0607238760    0.0196563610    0.0003674247    
0.0609465370    0.0200856760    0.0003743395    
0.0611691980    0.0196804780    0.0003711316    
0.0613918590    0.0197666120    0.0003678823    
0.0616145200    0.0193483840    0.0003666335    
0.0618371810    0.0193175860    0.0003627436    
0.0620598420    0.0199239630    0.0003687726    
0.0622825030    0.0200806700    0.0003758817    
0.0625051640    0.0199446530    0.0003693454    
0.0627278250    0.0199102790    0.0003682671    
0.0629504860    0.0197285950    0.0003636028    
0.0631731470    0.0191895660    0.0003630379    
0.0633958080    0.0193277140    0.0003664392    
0.0636184690    0.0188341990    0.0003667685    
0.0638411300    0.0195011830    0.0003718054    
0.0640637910    0.0194457810    0.0003738882    
0.0642864520    0.0201061190    0.0003793607    
0.0645091130    0.0197680890    0.0003794546    
0.0647317740    0.0203299890    0.0003852339    
0.0649544350    0.0200522020    0.0003821721    
0.0651770960    0.0201654370    0.0003811590    
0.0653997570    0.0198126560    0.0003769909    
0.0656224180    0.0196179380    0.0003759495    
0.0658450790    0.0192330140    0.0003668926    
0.0660677400    0.0196652980    0.0003725718    
0.0662904010    0.0196822590    0.0003771821    
0.0665130620    0.0189242950    0.0003682439    
0.0667357230    0.0193137330    0.0003786279    
0.0669583840    0.0198556600    0.0003826187    
0.0671810450    0.0195567980    0.0003776316    
0.0674037060    0.0194181590    0.0003826656    
0.0676263670    0.0196698980    0.0003823183    
0.0678490280    0.0198190860    0.0003814185    
0.0680716890    0.0197304360    0.0003814114    
0.0682943500    0.0189688280    0.0003698815    
0.0685170110    0.0200963860    0.0003768367    
0.0687396720    0.0196945350    0.0003720589    
0.0689623330    0.0191927600    0.0003661247    
0.0691849940    0.0193038440    0.0003697268    
0.0694076550    0.0190427340    0.0003670217    
0.0696303160    0.0194803980    0.0003682765    
0.0698529770    0.0201753360    0.0003740023    
0.0700756380    0.0194579960    0.0003625784    
0.0702982990    0.0201119480    0.0003726352    
0.0705209600    0.0197545430    0.0003666431    
0.0707436210    0.0189734340    0.0003576711    
0.0709662820    0.0193525580    0.0003655332    
0.0711889430    0.0204495000    0.0003711349    
0.0714116040    0.0197620730    0.0003655884    
0.0716342650    0.0201587160    0.0003677398    
0.0718569260    0.0191448900    0.0003569299    
0.0720795870    0.0192464240    0.0003593228    
0.0723022480    0.0194935350    0.0003621732    
0.0725249090    0.0199293350    0.0003618137    
0.0727475700    0.0192089010    0.0003582478    
0.0729702310    0.0198176730    0.0003609783    
0.0731928920    0.0195124480    0.0003596192    
0.0734155530    0.0190451720    0.0003545782    
0.0736382140    0.0193293840    0.0003549216    
0.0738608750    0.0194875200    0.0003586728    
0.0740835360    0.0202185400    0.0003644312    
0.0743061970    0.0200809470    0.0003580749    
0.0745288580    0.0190883560    0.0003527028    
0.0747515190    0.0195629400    0.0003577655    
0.0749741800    0.0201336680    0.0003595871    
0.0751968410    0.0199291950    0.0003605655    
0.0754195020    0.0193933380    0.0003536011    
0.0756421630    0.0196800880    0.0003532939    
0.0758648240    0.0190355760    0.0003482959    
0.0760874850    0.0196348670    0.0003535662    
0.0763101460    0.0196861690    0.0003536882    
0.0765328070    0.0197668440    0.0003580386    
0.0767554680    0.0197361990    0.0003553333    
0.0769781290    0.0200412520    0.0003560113    
0.0772007900    0.0189867420    0.0003437394    
0.0774234510    0.0199334650    0.0003542083    
0.0776461120    0.0198202820    0.0003528663    
0.0778687730    0.0194274330    0.0003481977    
0.0780914340    0.0190603710    0.0003473569    
0.0783140950    0.0194842200    0.0003456257    
0.0785367560    0.0198833580    0.0003547773    
0.0787594170    0.0190747930    0.0003443754    
0.0789820780    0.0195444260    0.0003468029    
0.0792047390    0.0197405690    0.0003496783    
0.0794274000    0.0199769200    0.0003532558    
0.0796500610    0.0192580970    0.0003434568    
0.0798727220    0.0195038070    0.0003453218    
0.0800953830    0.0200654000    0.0003494527    
0.0803180440    0.0196794610    0.0003484865    
0.0805407050    0.0197106310    0.0003484380    
0.0807633660    0.0199507220    0.0003502283    
0.0809860270    0.0200782760    0.0003500487    
0.0812086880    0.0193428970    0.0003406094    
0.0814313490    0.0195015760    0.0003435635    
0.0816540100    0.0194912070    0.0003426901    
0.0818766710    0.0196771600    0.0003451071    
0.0820993320    0.0199794030    0.0003471137    
0.0823219930    0.0198283670    0.0003472254    
0.0825446540    0.0194514020    0.0003414103    
0.0827673150    0.0194628800    0.0003392167    
0.0829899760    0.0192110210    0.0003364148    
0.0832126370    0.0200967840    0.0003456241    
0.0834352980    0.0192910000    0.0003378671    
0.0836579590    0.0190579350    0.0003350724    
0.0838806200    0.0195330820    0.0003402852    
0.0841032810    0.0187117040    0.0003309862    
0.0843259420    0.0191377750    0.0003337025    
0.0845486030    0.0195102020    0.0003369341    
0.0847712640    0.0190374590    0.0003307987    
0.0849939250    0.0194383680    0.0003348458    
0.0852165860    0.0201312610    0.0003412078    
0.0854392470    0.0197007130    0.0003343429    
0.0856619080    0.0194967790    0.0003350575    
0.0858845690    0.0196560970    0.0003333937    
0.0861072300    0.0197449590    0.0003364532    
0.0863298910    0.0194077110    0.0003353142    
0.0865525520    0.0196661360    0.0003346246    
0.0867752130    0.0193724520    0.0003294368    
0.0869978740    0.0199668320    0.0003353048    
0.0872205350    0.0200227700    0.0003353470    
0.0874431960    0.0191803270    0.0003282167    
0.0876658570    0.0198089730    0.0003348328    
0.0878885180    0.0191897840    0.0003301232    
0.0881111790    0.0197183530    0.0003342094    
0.0883338400    0.0196291670    0.0003285705    
0.0885565010    0.0196114410    0.0003328758    
0.0887791620    0.0190620690    0.0003239245    
0.0890018230    0.0194785430    0.0003306200    
0.0892244840    0.0195842440    0.0003320795    
0.0894471450    0.0193074770    0.0003283319    
0.0896698060    0.0191288480    0.0003255768    
0.0898924670    0.0197652110    0.0003324820    
0.0901151280    0.0191216270    0.0003234919    
0.0903377890    0.0195765820    0.0003300570    
0.0905604500    0.0198053270    0.0003304562    
0.0907831110    0.0196630160    0.0003284476    
0.0910057720    0.0190576700    0.0003248362    
0.0912284330    0.0195379320    0.0003241945    
0.0914510940    0.0188706020    0.0003221628    
0.0916737550    0.0198168850    0.0003293223    
0.0918964160    0.0191598190    0.0003251633    
0.0921190770    0.0193513950    0.0003238302    
0.0923417380    0.0191177960    0.0003220018    
0.0925643990    0.0190351350    0.0003205186    
0.0927870600    0.0190773090    0.0003221893    
0.0930097210    0.0194009680    0.0003221437    
0.0932323820    0.0188513380    0.0003198820    
