# Diamond Light Source Ltd.
# Data extracted from: /dls/b21/data/2018/cm19678-3/processed/b21-386631_00528.dat
q(1/A)          Column          Error           
0.0035000000    2.0755256000    0.0244467260    
0.0037226610    1.8441719000    0.0225587830    
0.0039453220    1.6477053000    0.0193981980    
0.0041679830    1.2606411000    0.0139342030    
0.0043906440    0.9690416500    0.0116853820    
0.0046133050    0.7690233800    0.0099932175    
0.0048359660    0.5708385000    0.0081440396    
0.0050586270    0.4610139600    0.0071936901    
0.0052812880    0.4211496600    0.0065008025    
0.0055039490    0.3800397000    0.0058718342    
0.0057266100    0.3177244900    0.0051939624    
0.0059492710    0.2656761200    0.0047495202    
0.0061719320    0.2176062700    0.0041420645    
0.0063945930    0.1945649400    0.0039641145    
0.0066172539    0.1849399300    0.0036290648    
0.0068399149    0.1707441100    0.0034320857    
0.0070625759    0.1469180900    0.0031509789    
0.0072852369    0.1217677800    0.0028257025    
0.0075078979    0.1138213300    0.0027185211    
0.0077305589    0.0949060470    0.0024350899    
0.0079532199    0.0966079050    0.0024227807    
0.0081758809    0.0903672730    0.0023650196    
0.0083985419    0.0816812980    0.0020971517    
0.0086212029    0.0757584740    0.0020196875    
0.0088438639    0.0685593300    0.0019058970    
0.0090665249    0.0646959680    0.0017881642    
0.0092891859    0.0635897650    0.0018503857    
0.0095118469    0.0622942810    0.0017612440    
0.0097345079    0.0577734870    0.0016473126    
0.0099571689    0.0526220990    0.0015397377    
0.0101798300    0.0500991310    0.0015023731    
0.0104024910    0.0500738740    0.0014969116    
0.0106251520    0.0468102660    0.0014522231    
0.0108478130    0.0469579330    0.0014164789    
0.0110704740    0.0414410480    0.0012668898    
0.0112931350    0.0419575320    0.0012785040    
0.0115157960    0.0403145180    0.0012459142    
0.0117384570    0.0386394580    0.0012092557    
0.0119611180    0.0375674160    0.0011957840    
0.0121837790    0.0377869160    0.0011791152    
0.0124064400    0.0366620940    0.0011130186    
0.0126291010    0.0358489580    0.0010868312    
0.0128517620    0.0351341290    0.0010786275    
0.0130744230    0.0339950420    0.0010531294    
0.0132970840    0.0324034370    0.0010231531    
0.0135197450    0.0334280670    0.0010243219    
0.0137424060    0.0298790760    0.0009549394    
0.0139650670    0.0313344980    0.0009561380    
0.0141877280    0.0313559360    0.0009585789    
0.0144103890    0.0278499090    0.0008878227    
0.0146330500    0.0276650530    0.0008792531    
0.0148557110    0.0294841420    0.0009038944    
0.0150783720    0.0277723600    0.0008700129    
0.0153010330    0.0283987860    0.0008673660    
0.0155236940    0.0267008300    0.0008360354    
0.0157463550    0.0269211470    0.0008249331    
0.0159690160    0.0264914270    0.0008152173    
0.0161916770    0.0266154580    0.0008125200    
0.0164143380    0.0269699000    0.0008241089    
0.0166369990    0.0248830400    0.0007671770    
0.0168596600    0.0252598370    0.0007661535    
0.0170823210    0.0251212180    0.0007574332    
0.0173049820    0.0234894130    0.0007336860    
0.0175276430    0.0255319850    0.0007729870    
0.0177503040    0.0240023570    0.0007303685    
0.0179729650    0.0234632760    0.0007149584    
0.0181956260    0.0246471620    0.0007187258    
0.0184182870    0.0224430480    0.0006826043    
0.0186409480    0.0241787730    0.0007129931    
0.0188636090    0.0246437700    0.0007152894    
0.0190862700    0.0239251740    0.0007036816    
0.0193089310    0.0239331770    0.0007027023    
0.0195315920    0.0230838520    0.0006666512    
0.0197542530    0.0235952610    0.0006749773    
0.0199769140    0.0222629670    0.0006556444    
0.0201995750    0.0223382460    0.0006464678    
0.0204222360    0.0234085240    0.0006674542    
0.0206448970    0.0222702110    0.0006463965    
0.0208675580    0.0219563680    0.0006286090    
0.0210902190    0.0219418190    0.0006344641    
0.0213128800    0.0220644630    0.0006276017    
0.0215355410    0.0226050440    0.0006276758    
0.0217582020    0.0204264630    0.0005966633    
0.0219808630    0.0220242410    0.0006187463    
0.0222035240    0.0221560560    0.0006149717    
0.0224261850    0.0217298920    0.0006036081    
0.0226488460    0.0212891530    0.0005929689    
0.0228715070    0.0200988600    0.0005747225    
0.0230941680    0.0213149890    0.0005918547    
0.0233168290    0.0218837560    0.0006011930    
0.0235394900    0.0214195430    0.0005882182    
0.0237621510    0.0214289530    0.0005725084    
0.0239848120    0.0211259560    0.0005691042    
0.0242074730    0.0211964390    0.0005654898    
0.0244301340    0.0203678300    0.0005549591    
0.0246527950    0.0204849380    0.0005617057    
0.0248754560    0.0206194600    0.0005508815    
0.0250981170    0.0219533240    0.0005696880    
0.0253207780    0.0206341340    0.0005358160    
0.0255434390    0.0219012530    0.0005579145    
0.0257661000    0.0208702060    0.0005463854    
0.0259887610    0.0207510320    0.0005390333    
0.0262114220    0.0217369300    0.0005546290    
0.0264340830    0.0205298420    0.0005316757    
0.0266567440    0.0219768600    0.0005466948    
0.0268794050    0.0212987490    0.0005359978    
0.0271020660    0.0213407240    0.0005343537    
0.0273247270    0.0204109610    0.0005194453    
0.0275473880    0.0208828270    0.0005243698    
0.0277700490    0.0202463210    0.0005132646    
0.0279927100    0.0207000600    0.0005144559    
0.0282153710    0.0207469010    0.0005175416    
0.0284380320    0.0203922140    0.0005101243    
0.0286606930    0.0204334800    0.0005062695    
0.0288833540    0.0203852710    0.0005066325    
0.0291060150    0.0200575500    0.0005020667    
0.0293286760    0.0206266640    0.0005020451    
0.0295513370    0.0209091370    0.0004999668    
0.0297739980    0.0207855410    0.0005039752    
0.0299966590    0.0211677140    0.0004999008    
0.0302193200    0.0209384990    0.0005044323    
0.0304419810    0.0206131260    0.0005014187    
0.0306646420    0.0201225160    0.0004814330    
0.0308873030    0.0204629140    0.0004833909    
0.0311099640    0.0197658290    0.0004763196    
0.0313326250    0.0195660580    0.0004686565    
0.0315552860    0.0203068550    0.0004836336    
0.0317779470    0.0204922430    0.0004862594    
0.0320006080    0.0196267380    0.0004650677    
0.0322232690    0.0207804180    0.0004805443    
0.0324459300    0.0197925720    0.0004654821    
0.0326685910    0.0204365940    0.0004722148    
0.0328912520    0.0198362750    0.0004667682    
0.0331139130    0.0199762340    0.0004623187    
0.0333365740    0.0199123260    0.0004630773    
0.0335592350    0.0201122130    0.0004609209    
0.0337818960    0.0196583460    0.0004553277    
0.0340045570    0.0197641560    0.0004558263    
0.0342272170    0.0190244600    0.0004454510    
0.0344498780    0.0196695640    0.0004547344    
0.0346725390    0.0204668180    0.0004552681    
0.0348952000    0.0204413290    0.0004529118    
0.0351178610    0.0195756600    0.0004452465    
0.0353405220    0.0204413550    0.0004529123    
0.0355631830    0.0193415120    0.0004389002    
0.0357858440    0.0203474430    0.0004501691    
0.0360085050    0.0187672100    0.0004336415    
0.0362311660    0.0199085400    0.0004413237    
0.0364538270    0.0202833670    0.0004418835    
0.0366764880    0.0203981320    0.0004428103    
0.0368991490    0.0206402450    0.0004431850    
0.0371218100    0.0207304700    0.0004428819    
0.0373444710    0.0199758310    0.0004394806    
0.0375671320    0.0197248760    0.0004360753    
0.0377897930    0.0204275290    0.0004322863    
0.0380124540    0.0201844610    0.0004324028    
0.0382351150    0.0195916310    0.0004260057    
0.0384577760    0.0201966110    0.0004283599    
0.0386804370    0.0197773090    0.0004271248    
0.0389030980    0.0204964530    0.0004315282    
0.0391257590    0.0200040170    0.0004234188    
0.0393484200    0.0197004540    0.0004187796    
0.0395710810    0.0189948460    0.0004117655    
0.0397937420    0.0199767370    0.0004222742    
0.0400164030    0.0197526510    0.0004216073    
0.0402390640    0.0197469990    0.0004159337    
0.0404617250    0.0197051670    0.0004130418    
0.0406843860    0.0196149400    0.0004081135    
0.0409070470    0.0200864230    0.0004172915    
0.0411297080    0.0195551260    0.0004077526    
0.0413523690    0.0199295460    0.0004126987    
0.0415750300    0.0205824750    0.0004229673    
0.0417976910    0.0195398270    0.0004014562    
0.0420203520    0.0200692130    0.0004083869    
0.0422430130    0.0196855700    0.0004059959    
0.0424656740    0.0192661990    0.0003964205    
0.0426883350    0.0192766830    0.0003984964    
0.0429109960    0.0193144340    0.0004001327    
0.0431336570    0.0191607810    0.0003929228    
0.0433563180    0.0196403380    0.0004012412    
0.0435789790    0.0181783130    0.0003799537    
0.0438016400    0.0197253800    0.0003979448    
0.0440243010    0.0201137550    0.0003977661    
0.0442469620    0.0194480020    0.0003934715    
0.0444696230    0.0203204470    0.0004007580    
0.0446922840    0.0198778080    0.0003951921    
0.0449149450    0.0199923370    0.0003910306    
0.0451376060    0.0197367320    0.0003933212    
0.0453602670    0.0198546490    0.0003903588    
0.0455829280    0.0191808810    0.0003832346    
0.0458055890    0.0197073520    0.0003907237    
0.0460282500    0.0194239540    0.0003832265    
0.0462509110    0.0197057860    0.0003835960    
0.0464735720    0.0192869850    0.0003797121    
0.0466962330    0.0195758920    0.0003842845    
0.0469188940    0.0197500970    0.0003848963    
0.0471415550    0.0197109860    0.0003864899    
0.0473642160    0.0193470530    0.0003775439    
0.0475868770    0.0187249290    0.0003695790    
0.0478095380    0.0201883340    0.0003820698    
0.0480321990    0.0197322090    0.0003785567    
0.0482548600    0.0195894390    0.0003755413    
0.0484775210    0.0195765090    0.0003791449    
0.0487001820    0.0197704330    0.0003754406    
0.0489228430    0.0192648980    0.0003704103    
0.0491455040    0.0198070680    0.0003729887    
0.0493681650    0.0202061150    0.0003799646    
0.0495908260    0.0197943440    0.0003697456    
0.0498134870    0.0188286020    0.0003640459    
0.0500361480    0.0194922690    0.0003694263    
0.0502588090    0.0204274190    0.0003725176    
0.0504814700    0.0197030580    0.0003706360    
0.0507041310    0.0198023330    0.0003671508    
0.0509267920    0.0195203740    0.0003660356    
0.0511494530    0.0188274800    0.0003570835    
0.0513721140    0.0195740910    0.0003673013    
0.0515947750    0.0203603610    0.0003696389    
0.0518174360    0.0199367970    0.0003635705    
0.0520400970    0.0190597400    0.0003530187    
0.0522627580    0.0194382760    0.0003595368    
0.0524854190    0.0198975860    0.0003667174    
0.0527080800    0.0203578960    0.0003738069    
0.0529307410    0.0204802850    0.0003766897    
0.0531534020    0.0195886080    0.0003670571    
0.0533760630    0.0200228910    0.0003722653    
0.0535987240    0.0197540810    0.0003680317    
0.0538213850    0.0198355810    0.0003730629    
0.0540440460    0.0194953710    0.0003680994    
0.0542667070    0.0193704110    0.0003694464    
0.0544893680    0.0202516290    0.0003779579    
0.0547120290    0.0196828870    0.0003700602    
0.0549346900    0.0207274380    0.0003799524    
0.0551573510    0.0201773610    0.0003792898    
0.0553800120    0.0190787700    0.0003656843    
0.0556026730    0.0198781210    0.0003810055    
0.0558253340    0.0199079660    0.0003844842    
0.0560479950    0.0198782830    0.0003841976    
0.0562706560    0.0193939760    0.0003831575    
0.0564933170    0.0191469190    0.0003840151    
0.0567159780    0.0197055140    0.0003849056    
0.0569386390    0.0197468410    0.0003913528    
0.0571613000    0.0197298700    0.0003827617    
0.0573839610    0.0200389420    0.0003825452    
0.0576066220    0.0198416240    0.0003817109    
0.0578292830    0.0192363710    0.0003746003    
0.0580519440    0.0193270300    0.0003769379    
0.0582746050    0.0192298220    0.0003743308    
0.0584972660    0.0191045820    0.0003716817    
0.0587199270    0.0194731100    0.0003720146    
0.0589425880    0.0203979270    0.0003785190    
0.0591652490    0.0188903780    0.0003664065    
0.0593879100    0.0193180190    0.0003677788    
0.0596105710    0.0199620160    0.0003734645    
0.0598332320    0.0201199510    0.0003781438    
0.0600558930    0.0195133760    0.0003700257    
0.0602785540    0.0194721420    0.0003692438    
0.0605012150    0.0199549370    0.0003730058    
0.0607238760    0.0200293260    0.0003709771    
0.0609465370    0.0195083660    0.0003690031    
0.0611691980    0.0192551680    0.0003671816    
0.0613918590    0.0195836620    0.0003662578    
0.0616145200    0.0195586050    0.0003687023    
0.0618371810    0.0195579260    0.0003650748    
0.0620598420    0.0192636690    0.0003626916    
0.0622825030    0.0192097650    0.0003677226    
0.0625051640    0.0193445690    0.0003638280    
0.0627278250    0.0200418520    0.0003695646    
0.0629504860    0.0196167450    0.0003626518    
0.0631731470    0.0202700610    0.0003732021    
0.0633958080    0.0201148220    0.0003739099    
0.0636184690    0.0200930850    0.0003789125    
0.0638411300    0.0194106220    0.0003710240    
0.0640637910    0.0196198990    0.0003756424    
0.0642864520    0.0195923660    0.0003745664    
0.0645091130    0.0190919560    0.0003729922    
0.0647317740    0.0198205670    0.0003804619    
0.0649544350    0.0200393130    0.0003821347    
0.0651770960    0.0200807590    0.0003804430    
0.0653997570    0.0190464590    0.0003697122    
0.0656224180    0.0198357420    0.0003781153    
0.0658450790    0.0193956640    0.0003685231    
0.0660677400    0.0198506420    0.0003744071    
0.0662904010    0.0197923050    0.0003783197    
0.0665130620    0.0190331260    0.0003693838    
0.0667357230    0.0194560430    0.0003801053    
0.0669583840    0.0203218790    0.0003871712    
0.0671810450    0.0207035900    0.0003886328    
0.0674037060    0.0198719690    0.0003871979    
0.0676263670    0.0192698110    0.0003784948    
0.0678490280    0.0199454530    0.0003827181    
0.0680716890    0.0196433720    0.0003806540    
0.0682943500    0.0198143380    0.0003781197    
0.0685170110    0.0194479240    0.0003707900    
0.0687396720    0.0195416140    0.0003706945    
0.0689623330    0.0194808430    0.0003689448    
0.0691849940    0.0200988670    0.0003773479    
0.0694076550    0.0194900280    0.0003713903    
0.0696303160    0.0196702140    0.0003701491    
0.0698529770    0.0192479760    0.0003653874    
0.0700756380    0.0192706840    0.0003609097    
0.0702982990    0.0188983560    0.0003612983    
0.0705209600    0.0198178460    0.0003673122    
0.0707436210    0.0198453520    0.0003658790    
0.0709662820    0.0193612180    0.0003656968    
0.0711889430    0.0203575700    0.0003703826    
0.0714116040    0.0194123060    0.0003624197    
0.0716342650    0.0200200850    0.0003665551    
0.0718569260    0.0194730140    0.0003600561    
0.0720795870    0.0199463110    0.0003658796    
0.0723022480    0.0197311410    0.0003644553    
0.0725249090    0.0189130820    0.0003525469    
0.0727475700    0.0197321910    0.0003631760    
0.0729702310    0.0193792270    0.0003570426    
0.0731928920    0.0193487780    0.0003581879    
0.0734155530    0.0195424190    0.0003592575    
0.0736382140    0.0193771530    0.0003554394    
0.0738608750    0.0196151190    0.0003599256    
0.0740835360    0.0196821390    0.0003596449    
0.0743061970    0.0192275660    0.0003504621    
0.0745288580    0.0197684510    0.0003590112    
0.0747515190    0.0192182250    0.0003546788    
0.0749741800    0.0196158190    0.0003550120    
0.0751968410    0.0193898960    0.0003557330    
0.0754195020    0.0196858220    0.0003563373    
0.0756421630    0.0195048850    0.0003517965    
0.0758648240    0.0199366860    0.0003565242    
0.0760874850    0.0195735880    0.0003530930    
0.0763101460    0.0198348390    0.0003551006    
0.0765328070    0.0197237840    0.0003577284    
0.0767554680    0.0198666360    0.0003565853    
0.0769781290    0.0196832540    0.0003528961    
0.0772007900    0.0199166720    0.0003521354    
0.0774234510    0.0198101490    0.0003531900    
0.0776461120    0.0187984120    0.0003437265    
0.0778687730    0.0190240530    0.0003446409    
0.0780914340    0.0188662410    0.0003456608    
0.0783140950    0.0187139570    0.0003388009    
0.0785367560    0.0189422910    0.0003463573    
0.0787594170    0.0192823720    0.0003463216    
0.0789820780    0.0193869450    0.0003454801    
0.0792047390    0.0194023790    0.0003467476    
0.0794274000    0.0191046810    0.0003455350    
0.0796500610    0.0196650410    0.0003471443    
0.0798727220    0.0189314390    0.0003402932    
0.0800953830    0.0189723280    0.0003398771    
0.0803180440    0.0192622740    0.0003448500    
0.0805407050    0.0187889390    0.0003402699    
0.0807633660    0.0195413890    0.0003466944    
0.0809860270    0.0195133380    0.0003451661    
0.0812086880    0.0206056530    0.0003516302    
0.0814313490    0.0192983660    0.0003418452    
0.0816540100    0.0191081210    0.0003393816    
0.0818766710    0.0194921940    0.0003435581    
0.0820993320    0.0203382750    0.0003502956    
0.0823219930    0.0196608280    0.0003458328    
0.0825446540    0.0197898360    0.0003444446    
0.0827673150    0.0195484820    0.0003400379    
0.0829899760    0.0191429980    0.0003358938    
0.0832126370    0.0195111070    0.0003406268    
0.0834352980    0.0193588340    0.0003385364    
0.0836579590    0.0194908170    0.0003389323    
0.0838806200    0.0194825150    0.0003399205    
0.0841032810    0.0193292400    0.0003364789    
0.0843259420    0.0189367700    0.0003320197    
0.0845486030    0.0197576060    0.0003391395    
0.0847712640    0.0188849600    0.0003295448    
0.0849939250    0.0197298270    0.0003374223    
0.0852165860    0.0203543420    0.0003431699    
0.0854392470    0.0195051670    0.0003327539    
0.0856619080    0.0198799450    0.0003384096    
0.0858845690    0.0193367670    0.0003307485    
0.0861072300    0.0192719950    0.0003324735    
0.0863298910    0.0196830090    0.0003377596    
0.0865525520    0.0197148090    0.0003351134    
0.0867752130    0.0196557510    0.0003319111    
0.0869978740    0.0190631680    0.0003277026    
0.0872205350    0.0191888800    0.0003283630    
0.0874431960    0.0194754790    0.0003308064    
0.0876658570    0.0198857840    0.0003355563    
0.0878885180    0.0191074640    0.0003294880    
0.0881111790    0.0195118260    0.0003325289    
0.0883338400    0.0199625900    0.0003314235    
0.0885565010    0.0194902060    0.0003319195    
0.0887791620    0.0193018910    0.0003260287    
0.0890018230    0.0192402300    0.0003286648    
0.0892244840    0.0196324410    0.0003325622    
0.0894471450    0.0195116240    0.0003301369    
0.0896698060    0.0196862490    0.0003303601    
0.0898924670    0.0195278590    0.0003305536    
0.0901151280    0.0192396860    0.0003245616    
0.0903377890    0.0200529850    0.0003341236    
0.0905604500    0.0194721850    0.0003277384    
0.0907831110    0.0196992590    0.0003288237    
0.0910057720    0.0193874750    0.0003277081    
0.0912284330    0.0193367850    0.0003225935    
0.0914510940    0.0196218820    0.0003285867    
0.0916737550    0.0196614960    0.0003281020    
0.0918964160    0.0197977690    0.0003306063    
0.0921190770    0.0191811460    0.0003224747    
0.0923417380    0.0196309600    0.0003263678    
0.0925643990    0.0193352200    0.0003231074    
0.0927870600    0.0200276170    0.0003301904    
0.0930097210    0.0194631640    0.0003227318    
0.0932323820    0.0195331420    0.0003256881    
