# Diamond Light Source Ltd.
# Data extracted from: /dls/b21/data/2018/cm19678-3/processed/b21-386631_00527.dat
q(1/A)          Column          Error           
0.0035000000    2.0751857000    0.0244427220    
0.0037226610    1.8209697000    0.0224145880    
0.0039453220    1.6186653000    0.0192249210    
0.0041679830    1.2733701000    0.0140032270    
0.0043906440    0.9469044800    0.0115501930    
0.0046133050    0.7711046500    0.0100059120    
0.0048359660    0.5992067400    0.0083432647    
0.0050586270    0.4692436400    0.0072570199    
0.0052812880    0.4208800200    0.0064981888    
0.0055039490    0.3794332000    0.0058666664    
0.0057266100    0.3166537200    0.0051847782    
0.0059492710    0.2631706800    0.0047266850    
0.0061719320    0.2254536200    0.0042157436    
0.0063945930    0.1982477000    0.0040011276    
0.0066172539    0.1789287400    0.0035693065    
0.0068399149    0.1687158300    0.0034113604    
0.0070625759    0.1470967300    0.0031526358    
0.0072852369    0.1241736100    0.0028532468    
0.0075078979    0.1143869600    0.0027250443    
0.0077305589    0.1017621000    0.0025213057    
0.0079532199    0.0981108240    0.0024413534    
0.0081758809    0.0904762410    0.0023662513    
0.0083985419    0.0864592470    0.0021574398    
0.0086212029    0.0788146690    0.0020598544    
0.0088438639    0.0720443710    0.0019535773    
0.0090665249    0.0661184310    0.0018075673    
0.0092891859    0.0609952610    0.0018120957    
0.0095118469    0.0611887540    0.0017454028    
0.0097345079    0.0556037430    0.0016159510    
0.0099571689    0.0525233880    0.0015381669    
0.0101798300    0.0519378020    0.0015295684    
0.0104024910    0.0481865310    0.0014683102    
0.0106251520    0.0463070950    0.0014442786    
0.0108478130    0.0438316170    0.0013684024    
0.0110704740    0.0435640590    0.0012988293    
0.0112931350    0.0441319380    0.0013111067    
0.0115157960    0.0404234110    0.0012474935    
0.0117384570    0.0395034150    0.0012226000    
0.0119611180    0.0372187590    0.0011901247    
0.0121837790    0.0366035280    0.0011604098    
0.0124064400    0.0353722820    0.0010931751    
0.0126291010    0.0341958860    0.0010613905    
0.0128517620    0.0327114360    0.0010406894    
0.0130744230    0.0334675630    0.0010448415    
0.0132970840    0.0339485880    0.0010471776    
0.0135197450    0.0315710110    0.0009953813    
0.0137424060    0.0328036220    0.0010005011    
0.0139650670    0.0300458530    0.0009361942    
0.0141877280    0.0298858090    0.0009357610    
0.0144103890    0.0292885510    0.0009103905    
0.0146330500    0.0295045560    0.0009079399    
0.0148557110    0.0295624310    0.0009050195    
0.0150783720    0.0277405610    0.0008694435    
0.0153010330    0.0264605790    0.0008371757    
0.0155236940    0.0267488030    0.0008367176    
0.0157463550    0.0278518730    0.0008390032    
0.0159690160    0.0271392320    0.0008250569    
0.0161916770    0.0258174780    0.0008001814    
0.0164143380    0.0253289220    0.0007985787    
0.0166369990    0.0243113840    0.0007582512    
0.0168596600    0.0246283730    0.0007564545    
0.0170823210    0.0247745970    0.0007521280    
0.0173049820    0.0242187730    0.0007449286    
0.0175276430    0.0238899050    0.0007476555    
0.0177503040    0.0230429320    0.0007155638    
0.0179729650    0.0235901260    0.0007168298    
0.0181956260    0.0244335740    0.0007155463    
0.0184182870    0.0243906210    0.0007115475    
0.0186409480    0.0237964240    0.0007072753    
0.0188636090    0.0221487740    0.0006780590    
0.0190862700    0.0237764030    0.0007014329    
0.0193089310    0.0231453670    0.0006909835    
0.0195315920    0.0226180850    0.0006598374    
0.0197542530    0.0225875070    0.0006603518    
0.0199769140    0.0223558480    0.0006569569    
0.0201995750    0.0228583470    0.0006538968    
0.0204222360    0.0225674490    0.0006552999    
0.0206448970    0.0232607740    0.0006605616    
0.0208675580    0.0238241550    0.0006547470    
0.0210902190    0.0227269740    0.0006456631    
0.0213128800    0.0228283380    0.0006383208    
0.0215355410    0.0218171770    0.0006165899    
0.0217582020    0.0224270910    0.0006251492    
0.0219808630    0.0221075340    0.0006198645    
0.0222035240    0.0219305610    0.0006117841    
0.0224261850    0.0211731160    0.0005957761    
0.0226488460    0.0222599510    0.0006062884    
0.0228715070    0.0205227830    0.0005807043    
0.0230941680    0.0217880080    0.0005983369    
0.0233168290    0.0214673380    0.0005953968    
0.0235394900    0.0200593630    0.0005691888    
0.0237621510    0.0213948570    0.0005720059    
0.0239848120    0.0200954950    0.0005550056    
0.0242074730    0.0213136390    0.0005670045    
0.0244301340    0.0215588480    0.0005709076    
0.0246527950    0.0212515670    0.0005720729    
0.0248754560    0.0216314350    0.0005641917    
0.0250981170    0.0207081270    0.0005532504    
0.0253207780    0.0213541520    0.0005450397    
0.0255434390    0.0209598030    0.0005457468    
0.0257661000    0.0208238810    0.0005457340    
0.0259887610    0.0209016310    0.0005409415    
0.0262114220    0.0210400520    0.0005456213    
0.0264340830    0.0205402460    0.0005317668    
0.0266567440    0.0205999320    0.0005292483    
0.0268794050    0.0212682870    0.0005355705    
0.0271020660    0.0201600020    0.0005193187    
0.0273247270    0.0209891820    0.0005267084    
0.0275473880    0.0204844620    0.0005193017    
0.0277700490    0.0209845540    0.0005224955    
0.0279927100    0.0211824470    0.0005203731    
0.0282153710    0.0216470780    0.0005286068    
0.0284380320    0.0201336930    0.0005068389    
0.0286606930    0.0209443350    0.0005125171    
0.0288833540    0.0199161320    0.0005007279    
0.0291060150    0.0211474480    0.0005154849    
0.0293286760    0.0201590170    0.0004962807    
0.0295513370    0.0191964400    0.0004790137    
0.0297739980    0.0201468210    0.0004961308    
0.0299966590    0.0197713960    0.0004830921    
0.0302193200    0.0199630400    0.0004925019    
0.0304419810    0.0193658480    0.0004859720    
0.0306646420    0.0209368870    0.0004910381    
0.0308873030    0.0206079850    0.0004850616    
0.0311099640    0.0198544040    0.0004773466    
0.0313326250    0.0203485090    0.0004778963    
0.0315552860    0.0200731990    0.0004808038    
0.0317779470    0.0202581560    0.0004834345    
0.0320006080    0.0198549070    0.0004677249    
0.0322232690    0.0193437330    0.0004635973    
0.0324459300    0.0197455480    0.0004648908    
0.0326685910    0.0196695910    0.0004632308    
0.0328912520    0.0199757880    0.0004683684    
0.0331139130    0.0196520250    0.0004585141    
0.0333365740    0.0205120430    0.0004699606    
0.0335592350    0.0202884620    0.0004628981    
0.0337818960    0.0199925530    0.0004591442    
0.0340045570    0.0204966970    0.0004641588    
0.0342272170    0.0193029100    0.0004486623    
0.0344498780    0.0203390550    0.0004623707    
0.0346725390    0.0200280730    0.0004503250    
0.0348952000    0.0196353110    0.0004438563    
0.0351178610    0.0200584740    0.0004506669    
0.0353405220    0.0198159360    0.0004458934    
0.0355631830    0.0199159060    0.0004453332    
0.0357858440    0.0195375160    0.0004410825    
0.0360085050    0.0196056670    0.0004431862    
0.0362311660    0.0199639680    0.0004419014    
0.0364538270    0.0198950420    0.0004375973    
0.0366764880    0.0205677910    0.0004446116    
0.0368991490    0.0207510370    0.0004443365    
0.0371218100    0.0193459000    0.0004278015    
0.0373444710    0.0201272350    0.0004411068    
0.0375671320    0.0197120060    0.0004358973    
0.0377897930    0.0200491750    0.0004282292    
0.0380124540    0.0195513620    0.0004255327    
0.0382351150    0.0201904300    0.0004324315    
0.0384577760    0.0205112360    0.0004316481    
0.0386804370    0.0197925150    0.0004272540    
0.0389030980    0.0204295100    0.0004307876    
0.0391257590    0.0205204730    0.0004288147    
0.0393484200    0.0198752410    0.0004205988    
0.0395710810    0.0196075390    0.0004183194    
0.0397937420    0.0196611000    0.0004188906    
0.0400164030    0.0200553290    0.0004247905    
0.0402390640    0.0196211320    0.0004145721    
0.0404617250    0.0195114990    0.0004109734    
0.0406843860    0.0196456870    0.0004083998    
0.0409070470    0.0200224590    0.0004165925    
0.0411297080    0.0199004570    0.0004113035    
0.0413523690    0.0194477780    0.0004076466    
0.0415750300    0.0198143400    0.0004149657    
0.0417976910    0.0199407190    0.0004055203    
0.0420203520    0.0195840110    0.0004033869    
0.0422430130    0.0201260560    0.0004104795    
0.0424656740    0.0199154750    0.0004030119    
0.0426883350    0.0199406860    0.0004052684    
0.0429109960    0.0194770320    0.0004017805    
0.0431336570    0.0199471500    0.0004008718    
0.0433563180    0.0197682530    0.0004025128    
0.0435789790    0.0192949170    0.0003914171    
0.0438016400    0.0195214760    0.0003958502    
0.0440243010    0.0201104600    0.0003977010    
0.0442469620    0.0195562480    0.0003945327    
0.0444696230    0.0190053170    0.0003875409    
0.0446922840    0.0199845290    0.0003962191    
0.0449149450    0.0197061260    0.0003881897    
0.0451376060    0.0200469780    0.0003963681    
0.0453602670    0.0192758830    0.0003845957    
0.0455829280    0.0206706170    0.0003978062    
0.0458055890    0.0200604090    0.0003941758    
0.0460282500    0.0201389400    0.0003901840    
0.0462509110    0.0202326380    0.0003886582    
0.0464735720    0.0201209530    0.0003878029    
0.0466962330    0.0199196390    0.0003876120    
0.0469188940    0.0197843610    0.0003851985    
0.0471415550    0.0197835270    0.0003871688    
0.0473642160    0.0200436820    0.0003842494    
0.0475868770    0.0200273600    0.0003821848    
0.0478095380    0.0195415930    0.0003758694    
0.0480321990    0.0202300070    0.0003832706    
0.0482548600    0.0200181200    0.0003795970    
0.0484775210    0.0192576040    0.0003760132    
0.0487001820    0.0195961120    0.0003737512    
0.0489228430    0.0197174730    0.0003747053    
0.0491455040    0.0199372530    0.0003741818    
0.0493681650    0.0203885460    0.0003816447    
0.0495908260    0.0200051720    0.0003716790    
0.0498134870    0.0195715010    0.0003711279    
0.0500361480    0.0190550520    0.0003652297    
0.0502588090    0.0198127770    0.0003668404    
0.0504814700    0.0199647260    0.0003730584    
0.0507041310    0.0194587820    0.0003639222    
0.0509267920    0.0197848180    0.0003684765    
0.0511494530    0.0198468720    0.0003665930    
0.0513721140    0.0198327490    0.0003696898    
0.0515947750    0.0195787080    0.0003624444    
0.0518174360    0.0189126590    0.0003540802    
0.0520400970    0.0197691980    0.0003594994    
0.0522627580    0.0202462720    0.0003669031    
0.0524854190    0.0197726900    0.0003655347    
0.0527080800    0.0202859350    0.0003731151    
0.0529307410    0.0194378440    0.0003669478    
0.0531534020    0.0200323980    0.0003711613    
0.0533760630    0.0187740080    0.0003604393    
0.0535987240    0.0196891460    0.0003673962    
0.0538213850    0.0196008270    0.0003708183    
0.0540440460    0.0199925110    0.0003727326    
0.0542667070    0.0202690230    0.0003778878    
0.0544893680    0.0191551430    0.0003675535    
0.0547120290    0.0190396730    0.0003639335    
0.0549346900    0.0202226550    0.0003752665    
0.0551573510    0.0189693150    0.0003677301    
0.0553800120    0.0202669970    0.0003768689    
0.0556026730    0.0195097870    0.0003774282    
0.0558253340    0.0194815160    0.0003803127    
0.0560479950    0.0192736530    0.0003782785    
0.0562706560    0.0196329950    0.0003854798    
0.0564933170    0.0193131960    0.0003856474    
0.0567159780    0.0197699400    0.0003855028    
0.0569386390    0.0200150230    0.0003939690    
0.0571613000    0.0194296630    0.0003798074    
0.0573839610    0.0196924840    0.0003791928    
0.0576066220    0.0200366120    0.0003835505    
0.0578292830    0.0199625800    0.0003815744    
0.0580519440    0.0196105240    0.0003796613    
0.0582746050    0.0198168050    0.0003799699    
0.0584972660    0.0201208720    0.0003814083    
0.0587199270    0.0198252100    0.0003753321    
0.0589425880    0.0197695450    0.0003726126    
0.0591652490    0.0194557490    0.0003718187    
0.0593879100    0.0196718890    0.0003711017    
0.0596105710    0.0199238170    0.0003730764    
0.0598332320    0.0199390090    0.0003764088    
0.0600558930    0.0193979310    0.0003688993    
0.0602785540    0.0188458900    0.0003632278    
0.0605012150    0.0191220920    0.0003651090    
0.0607238760    0.0192085150    0.0003632664    
0.0609465370    0.0195261060    0.0003691406    
0.0611691980    0.0194830380    0.0003693177    
0.0613918590    0.0199571330    0.0003697033    
0.0616145200    0.0194720100    0.0003678551    
0.0618371810    0.0196637380    0.0003660311    
0.0620598420    0.0191239630    0.0003613444    
0.0622825030    0.0199033770    0.0003742718    
0.0625051640    0.0195740170    0.0003659494    
0.0627278250    0.0196025040    0.0003654615    
0.0629504860    0.0191309030    0.0003581034    
0.0631731470    0.0194972910    0.0003659891    
0.0633958080    0.0196459180    0.0003694957    
0.0636184690    0.0192110440    0.0003704721    
0.0638411300    0.0197903440    0.0003746049    
0.0640637910    0.0194872490    0.0003743397    
0.0642864520    0.0191953690    0.0003707217    
0.0645091130    0.0194312620    0.0003762613    
0.0647317740    0.0188680750    0.0003711773    
0.0649544350    0.0198830290    0.0003806105    
0.0651770960    0.0202648400    0.0003821515    
0.0653997570    0.0190792160    0.0003699997    
0.0656224180    0.0195298170    0.0003751574    
0.0658450790    0.0195605090    0.0003700556    
0.0660677400    0.0193107830    0.0003692506    
0.0662904010    0.0199481280    0.0003797749    
0.0665130620    0.0197252670    0.0003760094    
0.0667357230    0.0203215520    0.0003884360    
0.0669583840    0.0191311500    0.0003756264    
0.0671810450    0.0201531540    0.0003834004    
0.0674037060    0.0187900400    0.0003764791    
0.0676263670    0.0190585270    0.0003763833    
0.0678490280    0.0196705140    0.0003800400    
0.0680716890    0.0199351620    0.0003834394    
0.0682943500    0.0197822340    0.0003777823    
0.0685170110    0.0197769460    0.0003738827    
0.0687396720    0.0192853070    0.0003682253    
0.0689623330    0.0196662810    0.0003706662    
0.0691849940    0.0194084860    0.0003707801    
0.0694076550    0.0194726840    0.0003711946    
0.0696303160    0.0199803830    0.0003730255    
0.0698529770    0.0191893430    0.0003648006    
0.0700756380    0.0196189520    0.0003641265    
0.0702982990    0.0195030030    0.0003670026    
0.0705209600    0.0186846710    0.0003566270    
0.0707436210    0.0191946370    0.0003598011    
0.0709662820    0.0191646730    0.0003638061    
0.0711889430    0.0196198390    0.0003635798    
0.0714116040    0.0193617700    0.0003619181    
0.0716342650    0.0197014220    0.0003635964    
0.0718569260    0.0201221470    0.0003659782    
0.0720795870    0.0196276590    0.0003629155    
0.0723022480    0.0197615630    0.0003647063    
0.0725249090    0.0199152750    0.0003617373    
0.0727475700    0.0200363880    0.0003659347    
0.0729702310    0.0195996730    0.0003590382    
0.0731928920    0.0197765420    0.0003620960    
0.0734155530    0.0200410710    0.0003637823    
0.0736382140    0.0195695440    0.0003571703    
0.0738608750    0.0201071560    0.0003643821    
0.0740835360    0.0203359740    0.0003655398    
0.0743061970    0.0184069000    0.0003428733    
0.0745288580    0.0196739490    0.0003581228    
0.0747515190    0.0200397020    0.0003621501    
0.0749741800    0.0187903280    0.0003474333    
0.0751968410    0.0202284870    0.0003633144    
0.0754195020    0.0192634070    0.0003524646    
0.0756421630    0.0190068530    0.0003472476    
0.0758648240    0.0193597050    0.0003512985    
0.0760874850    0.0190672710    0.0003484678    
0.0763101460    0.0190434120    0.0003479156    
0.0765328070    0.0198113720    0.0003584925    
0.0767554680    0.0190570720    0.0003492158    
0.0769781290    0.0198192000    0.0003540837    
0.0772007900    0.0206105970    0.0003581880    
0.0774234510    0.0196683950    0.0003518952    
0.0776461120    0.0193608900    0.0003488024    
0.0778687730    0.0201383460    0.0003545615    
0.0780914340    0.0200092510    0.0003559486    
0.0783140950    0.0199864950    0.0003501019    
0.0785367560    0.0196610430    0.0003528383    
0.0787594170    0.0193849390    0.0003472130    
0.0789820780    0.0191744810    0.0003435537    
0.0792047390    0.0194301800    0.0003469675    
0.0794274000    0.0197139010    0.0003509723    
0.0796500610    0.0197843610    0.0003481673    
0.0798727220    0.0193136330    0.0003436829    
0.0800953830    0.0197240930    0.0003465170    
0.0803180440    0.0194319570    0.0003463372    
0.0805407050    0.0194882520    0.0003465160    
0.0807633660    0.0201716260    0.0003522119    
0.0809860270    0.0198947280    0.0003484944    
0.0812086880    0.0191563990    0.0003390115    
0.0814313490    0.0191862270    0.0003408227    
0.0816540100    0.0202500860    0.0003493472    
0.0818766710    0.0197493380    0.0003457885    
0.0820993320    0.0194119980    0.0003421978    
0.0823219930    0.0193048410    0.0003426595    
0.0825446540    0.0194389350    0.0003413493    
0.0827673150    0.0193264670    0.0003380738    
0.0829899760    0.0192459330    0.0003367681    
0.0832126370    0.0194425090    0.0003399996    
0.0834352980    0.0193793390    0.0003386879    
0.0836579590    0.0188511980    0.0003332973    
0.0838806200    0.0196690760    0.0003415161    
0.0841032810    0.0191562390    0.0003349423    
0.0843259420    0.0187299550    0.0003301746    
0.0845486030    0.0196728850    0.0003383839    
0.0847712640    0.0195488270    0.0003352596    
0.0849939250    0.0192130930    0.0003329470    
0.0852165860    0.0197956650    0.0003383998    
0.0854392470    0.0192635900    0.0003306597    
0.0856619080    0.0198766880    0.0003383542    
0.0858845690    0.0197861130    0.0003345419    
0.0861072300    0.0197792330    0.0003367928    
0.0863298910    0.0190771060    0.0003324931    
0.0865525520    0.0199678700    0.0003372297    
0.0867752130    0.0192266430    0.0003282412    
0.0869978740    0.0197866250    0.0003338356    
0.0872205350    0.0198486700    0.0003339332    
0.0874431960    0.0192475650    0.0003288381    
0.0876658570    0.0187446030    0.0003257592    
0.0878885180    0.0193997330    0.0003319712    
0.0881111790    0.0190780010    0.0003287845    
0.0883338400    0.0194806920    0.0003273719    
0.0885565010    0.0196339570    0.0003331140    
0.0887791620    0.0193042360    0.0003260218    
0.0890018230    0.0195682680    0.0003314276    
0.0892244840    0.0197475070    0.0003335081    
0.0894471450    0.0198156030    0.0003326714    
0.0896698060    0.0195222790    0.0003289545    
0.0898924670    0.0195134710    0.0003304048    
0.0901151280    0.0194171850    0.0003260286    
0.0903377890    0.0189976760    0.0003251864    
0.0905604500    0.0189891650    0.0003236215    
0.0907831110    0.0193996860    0.0003262872    
0.0910057720    0.0190353820    0.0003246922    
0.0912284330    0.0195488540    0.0003243311    
0.0914510940    0.0195636520    0.0003280719    
0.0916737550    0.0195761600    0.0003273624    
0.0918964160    0.0194798900    0.0003279145    
0.0921190770    0.0190208070    0.0003210977    
0.0923417380    0.0193456430    0.0003239608    
0.0925643990    0.0193968350    0.0003235953    
0.0927870600    0.0194854920    0.0003256641    
0.0930097210    0.0191656950    0.0003202298    
0.0932323820    0.0198502840    0.0003282945    
