# Diamond Light Source Ltd.
# Data extracted from: /dls/b21/data/2018/cm19678-3/processed/b21-386631_00531.dat
q(1/A)          Column          Error           
0.0035000000    2.0675805000    0.0244005830    
0.0037226610    1.8671817000    0.0226997250    
0.0039453220    1.6452866000    0.0193845050    
0.0041679830    1.2921342000    0.0141075800    
0.0043906440    0.9633190000    0.0116511580    
0.0046133050    0.7869885500    0.0101095570    
0.0048359660    0.5937615200    0.0083061850    
0.0050586270    0.4532943900    0.0071334100    
0.0052812880    0.4315097300    0.0065804617    
0.0055039490    0.3739824700    0.0058250177    
0.0057266100    0.3246204400    0.0052501742    
0.0059492710    0.2713803400    0.0048003731    
0.0061719320    0.2212456000    0.0041766762    
0.0063945930    0.1971606400    0.0039905829    
0.0066172539    0.1769029200    0.0035494348    
0.0068399149    0.1656484300    0.0033805803    
0.0070625759    0.1465209300    0.0031468064    
0.0072852369    0.1323980100    0.0029465465    
0.0075078979    0.1146719300    0.0027287375    
0.0077305589    0.1083452500    0.0026018683    
0.0079532199    0.0988616250    0.0024509473    
0.0081758809    0.0869060640    0.0023193513    
0.0083985419    0.0834090400    0.0021192755    
0.0086212029    0.0744165990    0.0020017775    
0.0088438639    0.0685102360    0.0019052686    
0.0090665249    0.0651939090    0.0017950834    
0.0092891859    0.0659626460    0.0018846470    
0.0095118469    0.0605050740    0.0017358159    
0.0097345079    0.0551932530    0.0016101527    
0.0099571689    0.0509580250    0.0015152395    
0.0101798300    0.0531657650    0.0015477153    
0.0104024910    0.0465413630    0.0014431864    
0.0106251520    0.0437491330    0.0014039765    
0.0108478130    0.0455077690    0.0013944750    
0.0110704740    0.0409786150    0.0012598372    
0.0112931350    0.0426611940    0.0012892168    
0.0115157960    0.0412794810    0.0012607728    
0.0117384570    0.0395499760    0.0012234552    
0.0119611180    0.0391301890    0.0012204370    
0.0121837790    0.0355813260    0.0011442183    
0.0124064400    0.0372724290    0.0011222767    
0.0126291010    0.0369383860    0.0011032530    
0.0128517620    0.0339108300    0.0010597134    
0.0130744230    0.0324308930    0.0010286455    
0.0132970840    0.0345053190    0.0010558456    
0.0135197450    0.0322371580    0.0010059387    
0.0137424060    0.0300639030    0.0009579156    
0.0139650670    0.0303442530    0.0009409353    
0.0141877280    0.0312111850    0.0009563909    
0.0144103890    0.0277665770    0.0008865186    
0.0146330500    0.0305730160    0.0009243355    
0.0148557110    0.0266868800    0.0008599727    
0.0150783720    0.0296818620    0.0008994504    
0.0153010330    0.0283209190    0.0008662006    
0.0155236940    0.0281945360    0.0008591265    
0.0157463550    0.0267204390    0.0008218756    
0.0159690160    0.0277724190    0.0008347182    
0.0161916770    0.0241611630    0.0007741736    
0.0164143380    0.0249315750    0.0007923775    
0.0166369990    0.0259489020    0.0007834579    
0.0168596600    0.0260281730    0.0007777404    
0.0170823210    0.0244374810    0.0007470756    
0.0173049820    0.0230782260    0.0007272566    
0.0175276430    0.0246909010    0.0007601700    
0.0177503040    0.0246482640    0.0007401514    
0.0179729650    0.0227020630    0.0007032852    
0.0181956260    0.0244389640    0.0007157041    
0.0184182870    0.0243337140    0.0007107954    
0.0186409480    0.0245796430    0.0007188997    
0.0188636090    0.0229011130    0.0006895549    
0.0190862700    0.0237195560    0.0007006711    
0.0193089310    0.0235218710    0.0006966577    
0.0195315920    0.0222187470    0.0006540586    
0.0197542530    0.0231138550    0.0006680751    
0.0199769140    0.0226504270    0.0006613440    
0.0201995750    0.0227698400    0.0006527016    
0.0204222360    0.0230101730    0.0006617695    
0.0206448970    0.0215209620    0.0006354480    
0.0208675580    0.0219216180    0.0006281292    
0.0210902190    0.0219247170    0.0006342348    
0.0213128800    0.0211730900    0.0006148114    
0.0215355410    0.0221880140    0.0006218766    
0.0217582020    0.0216128420    0.0006137635    
0.0219808630    0.0223210190    0.0006229189    
0.0222035240    0.0216281330    0.0006076181    
0.0224261850    0.0212448580    0.0005968504    
0.0226488460    0.0218189040    0.0006003182    
0.0228715070    0.0228610800    0.0006129615    
0.0230941680    0.0212011540    0.0005902889    
0.0233168290    0.0205306060    0.0005823260    
0.0235394900    0.0207099650    0.0005784094    
0.0237621510    0.0215525410    0.0005741733    
0.0239848120    0.0209585070    0.0005668603    
0.0242074730    0.0215144750    0.0005697325    
0.0244301340    0.0211099520    0.0005649949    
0.0246527950    0.0214718980    0.0005750943    
0.0248754560    0.0214301480    0.0005616225    
0.0250981170    0.0204317950    0.0005496073    
0.0253207780    0.0208301090    0.0005383697    
0.0255434390    0.0201827030    0.0005355933    
0.0257661000    0.0206711170    0.0005437885    
0.0259887610    0.0206961990    0.0005383359    
0.0262114220    0.0208890170    0.0005437194    
0.0264340830    0.0212195060    0.0005405476    
0.0266567440    0.0208356810    0.0005323268    
0.0268794050    0.0198430890    0.0005173720    
0.0271020660    0.0209539010    0.0005295037    
0.0273247270    0.0207426260    0.0005236635    
0.0275473880    0.0200149420    0.0005133724    
0.0277700490    0.0201824080    0.0005124684    
0.0279927100    0.0211743330    0.0005203309    
0.0282153710    0.0206577020    0.0005164425    
0.0284380320    0.0201253730    0.0005067901    
0.0286606930    0.0197823370    0.0004981519    
0.0288833540    0.0201849570    0.0005041515    
0.0291060150    0.0197444860    0.0004981473    
0.0293286760    0.0217398810    0.0005154294    
0.0295513370    0.0203364560    0.0004930865    
0.0297739980    0.0200901640    0.0004954873    
0.0299966590    0.0210862710    0.0004989523    
0.0302193200    0.0193476390    0.0004849048    
0.0304419810    0.0204313290    0.0004992168    
0.0306646420    0.0205498610    0.0004865320    
0.0308873030    0.0201443240    0.0004796268    
0.0311099640    0.0199161790    0.0004781413    
0.0313326250    0.0204091290    0.0004786604    
0.0315552860    0.0209300340    0.0004910124    
0.0317779470    0.0200780000    0.0004813332    
0.0320006080    0.0199254110    0.0004686062    
0.0322232690    0.0208371630    0.0004812137    
0.0324459300    0.0206914180    0.0004759478    
0.0326685910    0.0202304300    0.0004698403    
0.0328912520    0.0201449570    0.0004703993    
0.0331139130    0.0202983750    0.0004660447    
0.0333365740    0.0206781150    0.0004719113    
0.0335592350    0.0203880120    0.0004640836    
0.0337818960    0.0205875910    0.0004659782    
0.0340045570    0.0198809260    0.0004571838    
0.0342272170    0.0198912860    0.0004554991    
0.0344498780    0.0201437860    0.0004601965    
0.0346725390    0.0208629580    0.0004596659    
0.0348952000    0.0207736640    0.0004565916    
0.0351178610    0.0200223880    0.0004503110    
0.0353405220    0.0194489910    0.0004417944    
0.0355631830    0.0206175100    0.0004531594    
0.0357858440    0.0201593550    0.0004480963    
0.0360085050    0.0196500740    0.0004437367    
0.0362311660    0.0201640450    0.0004441592    
0.0364538270    0.0193314260    0.0004314019    
0.0366764880    0.0202358650    0.0004410580    
0.0368991490    0.0195945950    0.0004318253    
0.0371218100    0.0203910080    0.0004392533    
0.0373444710    0.0199189480    0.0004388669    
0.0375671320    0.0201116450    0.0004403423    
0.0377897930    0.0197151020    0.0004246933    
0.0380124540    0.0207692200    0.0004386341    
0.0382351150    0.0198243360    0.0004285404    
0.0384577760    0.0199796980    0.0004260654    
0.0386804370    0.0196400560    0.0004256522    
0.0389030980    0.0201432700    0.0004278063    
0.0391257590    0.0191357530    0.0004141395    
0.0393484200    0.0196837670    0.0004186141    
0.0395710810    0.0199153700    0.0004216369    
0.0397937420    0.0199243110    0.0004217317    
0.0400164030    0.0197717710    0.0004218233    
0.0402390640    0.0201949500    0.0004206368    
0.0404617250    0.0202517580    0.0004187431    
0.0406843860    0.0199896930    0.0004120054    
0.0409070470    0.0196800900    0.0004130610    
0.0411297080    0.0202194480    0.0004146325    
0.0413523690    0.0198964910    0.0004123680    
0.0415750300    0.0193493210    0.0004101126    
0.0417976910    0.0205555140    0.0004117696    
0.0420203520    0.0197462350    0.0004050989    
0.0422430130    0.0197787990    0.0004069677    
0.0424656740    0.0196425240    0.0004002847    
0.0426883350    0.0197967950    0.0004038481    
0.0429109960    0.0197963460    0.0004051052    
0.0431336570    0.0201932890    0.0004033820    
0.0433563180    0.0190758180    0.0003954440    
0.0435789790    0.0200616100    0.0003991619    
0.0438016400    0.0197586150    0.0003982912    
0.0440243010    0.0203115620    0.0003997286    
0.0442469620    0.0195048340    0.0003940572    
0.0444696230    0.0200054340    0.0003976508    
0.0446922840    0.0195725020    0.0003921566    
0.0449149450    0.0196951770    0.0003881247    
0.0451376060    0.0195105300    0.0003910719    
0.0453602670    0.0192801350    0.0003846806    
0.0455829280    0.0192432300    0.0003838678    
0.0458055890    0.0201268110    0.0003948711    
0.0460282500    0.0196292120    0.0003852570    
0.0462509110    0.0197890480    0.0003844164    
0.0464735720    0.0191011800    0.0003778894    
0.0466962330    0.0199843860    0.0003882843    
0.0469188940    0.0195561810    0.0003830130    
0.0471415550    0.0197954700    0.0003873283    
0.0473642160    0.0201880940    0.0003856737    
0.0475868770    0.0197180980    0.0003792643    
0.0478095380    0.0191192640    0.0003718266    
0.0480321990    0.0194064980    0.0003754300    
0.0482548600    0.0202817280    0.0003821304    
0.0484775210    0.0192545090    0.0003760245    
0.0487001820    0.0197644250    0.0003753942    
0.0489228430    0.0198713930    0.0003762064    
0.0491455040    0.0195763940    0.0003708209    
0.0493681650    0.0194569930    0.0003728652    
0.0495908260    0.0193396060    0.0003654842    
0.0498134870    0.0196814060    0.0003722096    
0.0500361480    0.0196614220    0.0003710363    
0.0502588090    0.0200005780    0.0003686155    
0.0504814700    0.0198087630    0.0003716394    
0.0507041310    0.0196536890    0.0003657806    
0.0509267920    0.0200637460    0.0003711057    
0.0511494530    0.0194584250    0.0003630278    
0.0513721140    0.0197957680    0.0003693857    
0.0515947750    0.0193145830    0.0003600310    
0.0518174360    0.0197655350    0.0003620159    
0.0520400970    0.0190673610    0.0003530993    
0.0522627580    0.0199248650    0.0003640194    
0.0524854190    0.0195742800    0.0003637362    
0.0527080800    0.0192264680    0.0003632812    
0.0529307410    0.0195044910    0.0003676169    
0.0531534020    0.0198992490    0.0003699666    
0.0533760630    0.0199202040    0.0003713200    
0.0535987240    0.0193300640    0.0003640707    
0.0538213850    0.0197735560    0.0003724897    
0.0540440460    0.0197814530    0.0003708009    
0.0542667070    0.0190050800    0.0003659563    
0.0544893680    0.0194697560    0.0003706005    
0.0547120290    0.0195865930    0.0003691643    
0.0549346900    0.0198092000    0.0003714515    
0.0551573510    0.0194155730    0.0003720715    
0.0553800120    0.0200191260    0.0003745985    
0.0556026730    0.0190759000    0.0003732488    
0.0558253340    0.0199388000    0.0003847927    
0.0560479950    0.0193447390    0.0003790173    
0.0562706560    0.0202429490    0.0003914651    
0.0564933170    0.0198643230    0.0003911543    
0.0567159780    0.0197141510    0.0003850009    
0.0569386390    0.0196471280    0.0003903745    
0.0571613000    0.0202656650    0.0003879351    
0.0573839610    0.0194850340    0.0003772318    
0.0576066220    0.0198794700    0.0003820856    
0.0578292830    0.0199086230    0.0003811004    
0.0580519440    0.0196148510    0.0003797450    
0.0582746050    0.0197483050    0.0003793544    
0.0584972660    0.0193949270    0.0003745060    
0.0587199270    0.0191543830    0.0003689681    
0.0589425880    0.0199073720    0.0003739504    
0.0591652490    0.0193889680    0.0003712210    
0.0593879100    0.0202644150    0.0003766906    
0.0596105710    0.0196766640    0.0003707961    
0.0598332320    0.0195667140    0.0003729193    
0.0600558930    0.0196267570    0.0003711097    
0.0602785540    0.0191231350    0.0003659302    
0.0605012150    0.0194052210    0.0003678426    
0.0607238760    0.0190272220    0.0003615879    
0.0609465370    0.0195094730    0.0003690240    
0.0611691980    0.0195083430    0.0003695982    
0.0613918590    0.0195916240    0.0003663426    
0.0616145200    0.0191635170    0.0003649697    
0.0618371810    0.0190138370    0.0003599711    
0.0620598420    0.0199476680    0.0003690850    
0.0622825030    0.0203301390    0.0003783047    
0.0625051640    0.0193388240    0.0003637843    
0.0627278250    0.0200498050    0.0003696484    
0.0629504860    0.0194234240    0.0003608706    
0.0631731470    0.0199619900    0.0003703657    
0.0633958080    0.0194208710    0.0003674138    
0.0636184690    0.0191795530    0.0003702092    
0.0638411300    0.0200854960    0.0003774296    
0.0640637910    0.0194771630    0.0003742841    
0.0642864520    0.0195863170    0.0003745192    
0.0645091130    0.0192169260    0.0003742216    
0.0647317740    0.0196683190    0.0003790086    
0.0649544350    0.0197343780    0.0003792269    
0.0651770960    0.0195917450    0.0003757927    
0.0653997570    0.0192341400    0.0003715398    
0.0656224180    0.0195125000    0.0003750324    
0.0658450790    0.0189486090    0.0003642617    
0.0660677400    0.0198376440    0.0003742952    
0.0662904010    0.0191064080    0.0003717172    
0.0665130620    0.0199733710    0.0003784084    
0.0667357230    0.0194794270    0.0003803444    
0.0669583840    0.0198509190    0.0003826694    
0.0671810450    0.0193259070    0.0003754905    
0.0674037060    0.0195109450    0.0003836755    
0.0676263670    0.0188099500    0.0003739619    
0.0678490280    0.0198584560    0.0003818934    
0.0680716890    0.0199911970    0.0003840203    
0.0682943500    0.0196061960    0.0003761391    
0.0685170110    0.0192510740    0.0003689191    
0.0687396720    0.0193176900    0.0003685750    
0.0689623330    0.0195937540    0.0003700229    
0.0691849940    0.0195686370    0.0003723478    
0.0694076550    0.0200502480    0.0003767007    
0.0696303160    0.0198663720    0.0003720007    
0.0698529770    0.0197970600    0.0003705730    
0.0700756380    0.0197787520    0.0003656468    
0.0702982990    0.0201842580    0.0003733986    
0.0705209600    0.0196964220    0.0003661956    
0.0707436210    0.0197925120    0.0003654019    
0.0709662820    0.0192656090    0.0003648031    
0.0711889430    0.0194354730    0.0003619074    
0.0714116040    0.0198058720    0.0003660856    
0.0716342650    0.0200145100    0.0003665145    
0.0718569260    0.0200466920    0.0003653317    
0.0720795870    0.0197729370    0.0003642963    
0.0723022480    0.0191398220    0.0003589628    
0.0725249090    0.0195910700    0.0003588204    
0.0727475700    0.0199338530    0.0003650375    
0.0729702310    0.0197618810    0.0003605606    
0.0731928920    0.0193896630    0.0003585763    
0.0734155530    0.0196095770    0.0003598845    
0.0736382140    0.0197825100    0.0003591481    
0.0738608750    0.0197153050    0.0003608538    
0.0740835360    0.0192889340    0.0003560444    
0.0743061970    0.0194714120    0.0003526874    
0.0745288580    0.0196065660    0.0003575484    
0.0747515190    0.0197888250    0.0003599158    
0.0749741800    0.0194305940    0.0003533419    
0.0751968410    0.0199979860    0.0003612783    
0.0754195020    0.0195514790    0.0003551294    
0.0756421630    0.0196202120    0.0003528450    
0.0758648240    0.0190387990    0.0003484132    
0.0760874850    0.0200397020    0.0003572826    
0.0763101460    0.0198296070    0.0003550638    
0.0765328070    0.0196729960    0.0003572777    
0.0767554680    0.0193365060    0.0003518055    
0.0769781290    0.0188934530    0.0003457534    
0.0772007900    0.0191955570    0.0003457116    
0.0774234510    0.0190241130    0.0003461219    
0.0776461120    0.0196731430    0.0003516427    
0.0778687730    0.0191874740    0.0003461278    
0.0780914340    0.0196653260    0.0003529152    
0.0783140950    0.0195063130    0.0003459088    
0.0785367560    0.0195450450    0.0003518347    
0.0787594170    0.0200610260    0.0003532550    
0.0789820780    0.0200591470    0.0003514284    
0.0792047390    0.0193786910    0.0003465457    
0.0794274000    0.0191932630    0.0003463450    
0.0796500610    0.0200032210    0.0003501264    
0.0798727220    0.0195625790    0.0003459289    
0.0800953830    0.0191073640    0.0003410942    
0.0803180440    0.0195288560    0.0003472380    
0.0805407050    0.0197698720    0.0003490492    
0.0807633660    0.0195117420    0.0003464411    
0.0809860270    0.0194717050    0.0003448075    
0.0812086880    0.0193946570    0.0003411508    
0.0814313490    0.0191359580    0.0003404134    
0.0816540100    0.0198446390    0.0003458703    
0.0818766710    0.0199474780    0.0003475571    
0.0820993320    0.0196214250    0.0003440767    
0.0823219930    0.0192117630    0.0003418701    
0.0825446540    0.0191494470    0.0003388354    
0.0827673150    0.0193189010    0.0003380448    
0.0829899760    0.0195684610    0.0003396156    
0.0832126370    0.0198987720    0.0003440039    
0.0834352980    0.0195375470    0.0003401050    
0.0836579590    0.0195449710    0.0003394125    
0.0838806200    0.0208240460    0.0003514388    
0.0841032810    0.0194240610    0.0003373128    
0.0843259420    0.0189378450    0.0003320386    
0.0845486030    0.0199741300    0.0003410025    
0.0847712640    0.0195358870    0.0003351856    
0.0849939250    0.0193212080    0.0003339193    
0.0852165860    0.0193602890    0.0003346947    
0.0854392470    0.0196595540    0.0003340777    
0.0856619080    0.0194259570    0.0003345327    
0.0858845690    0.0196999550    0.0003338496    
0.0861072300    0.0196574030    0.0003357910    
0.0863298910    0.0195102380    0.0003362835    
0.0865525520    0.0194709750    0.0003330440    
0.0867752130    0.0194102450    0.0003298411    
0.0869978740    0.0192332590    0.0003291707    
0.0872205350    0.0196226560    0.0003320632    
0.0874431960    0.0194822040    0.0003308729    
0.0876658570    0.0192866810    0.0003304724    
0.0878885180    0.0196028820    0.0003337416    
0.0881111790    0.0197452980    0.0003345220    
0.0883338400    0.0194739840    0.0003273516    
0.0885565010    0.0194347830    0.0003314567    
0.0887791620    0.0193855960    0.0003267442    
0.0890018230    0.0199038480    0.0003342943    
0.0892244840    0.0193631360    0.0003302828    
0.0894471450    0.0197250090    0.0003319467    
0.0896698060    0.0199590310    0.0003326505    
0.0898924670    0.0194338410    0.0003297663    
0.0901151280    0.0196952420    0.0003283909    
0.0903377890    0.0191020820    0.0003261147    
0.0905604500    0.0192912460    0.0003262214    
0.0907831110    0.0198266260    0.0003298944    
0.0910057720    0.0193885760    0.0003277268    
0.0912284330    0.0195101100    0.0003240453    
0.0914510940    0.0197275490    0.0003294796    
0.0916737550    0.0198487800    0.0003296703    
0.0918964160    0.0188768590    0.0003228347    
0.0921190770    0.0200714060    0.0003298827    
0.0923417380    0.0194692880    0.0003250303    
0.0925643990    0.0197682930    0.0003267152    
0.0927870600    0.0197946590    0.0003282737    
0.0930097210    0.0196515800    0.0003242994    
0.0932323820    0.0191595320    0.0003225675    
