# Diamond Light Source Ltd.
# Data extracted from: /dls/b21/data/2018/cm19678-3/processed/b21-386631_00535.dat
q(1/A)          Column          Error           
0.0035000000    2.0360014000    0.0242158150    
0.0037226610    1.8506978000    0.0226014400    
0.0039453220    1.5985415000    0.0191089560    
0.0041679830    1.3014679000    0.0141597800    
0.0043906440    0.9494066600    0.0115678120    
0.0046133050    0.7749276600    0.0100327400    
0.0048359660    0.5848088100    0.0082441064    
0.0050586270    0.4621378300    0.0072033387    
0.0052812880    0.4317920800    0.0065832366    
0.0055039490    0.3914763400    0.0059602634    
0.0057266100    0.3247667600    0.0052518538    
0.0059492710    0.2599663100    0.0046987831    
0.0061719320    0.2186849900    0.0041528288    
0.0063945930    0.2041455000    0.0040610393    
0.0066172539    0.1810677400    0.0035913133    
0.0068399149    0.1655417500    0.0033798110    
0.0070625759    0.1462106600    0.0031437700    
0.0072852369    0.1269136200    0.0028851457    
0.0075078979    0.1154080100    0.0027377403    
0.0077305589    0.1011163600    0.0025138083    
0.0079532199    0.0977863780    0.0024378127    
0.0081758809    0.0863033930    0.0023115138    
0.0083985419    0.0818629550    0.0020997405    
0.0086212029    0.0794393930    0.0020684256    
0.0088438639    0.0690001520    0.0019122495    
0.0090665249    0.0628827400    0.0017631445    
0.0092891859    0.0637669730    0.0018531900    
0.0095118469    0.0634551790    0.0017777978    
0.0097345079    0.0573178750    0.0016410060    
0.0099571689    0.0542122870    0.0015630214    
0.0101798300    0.0507874140    0.0015128440    
0.0104024910    0.0457444890    0.0014309133    
0.0106251520    0.0488046040    0.0014830185    
0.0108478130    0.0432939790    0.0013602627    
0.0110704740    0.0441242620    0.0013074214    
0.0112931350    0.0399415460    0.0012475643    
0.0115157960    0.0400933460    0.0012426446    
0.0117384570    0.0412230330    0.0012491828    
0.0119611180    0.0392898750    0.0012230404    
0.0121837790    0.0377962080    0.0011794051    
0.0124064400    0.0358261530    0.0011003915    
0.0126291010    0.0373408620    0.0011093520    
0.0128517620    0.0346790560    0.0010717511    
0.0130744230    0.0344602610    0.0010604412    
0.0132970840    0.0337362980    0.0010441122    
0.0135197450    0.0338130330    0.0010303298    
0.0137424060    0.0314433260    0.0009797378    
0.0139650670    0.0297663380    0.0009320202    
0.0141877280    0.0307774100    0.0009498115    
0.0144103890    0.0280832350    0.0008916436    
0.0146330500    0.0284544940    0.0008918195    
0.0148557110    0.0289647600    0.0008960078    
0.0150783720    0.0283244140    0.0008787254    
0.0153010330    0.0277963170    0.0008582217    
0.0155236940    0.0281998680    0.0008592890    
0.0157463550    0.0274334520    0.0008328477    
0.0159690160    0.0277525790    0.0008344989    
0.0161916770    0.0268701110    0.0008164982    
0.0164143380    0.0270269080    0.0008250808    
0.0166369990    0.0251494070    0.0007713671    
0.0168596600    0.0245919770    0.0007560502    
0.0170823210    0.0252644530    0.0007596829    
0.0173049820    0.0256498690    0.0007667788    
0.0175276430    0.0239465110    0.0007486941    
0.0177503040    0.0255421200    0.0007535237    
0.0179729650    0.0239920330    0.0007230584    
0.0181956260    0.0234163680    0.0007006368    
0.0184182870    0.0247536460    0.0007169701    
0.0186409480    0.0234276310    0.0007019170    
0.0188636090    0.0237153370    0.0007017724    
0.0190862700    0.0232893080    0.0006943530    
0.0193089310    0.0229484800    0.0006881792    
0.0195315920    0.0223962650    0.0006567283    
0.0197542530    0.0232920470    0.0006707088    
0.0199769140    0.0231761750    0.0006690385    
0.0201995750    0.0214829250    0.0006340485    
0.0204222360    0.0220246520    0.0006475039    
0.0206448970    0.0221255570    0.0006443730    
0.0208675580    0.0225558150    0.0006372106    
0.0210902190    0.0221123690    0.0006370034    
0.0213128800    0.0224984310    0.0006338215    
0.0215355410    0.0226803340    0.0006287975    
0.0217582020    0.0219481570    0.0006185648    
0.0219808630    0.0217340730    0.0006147324    
0.0222035240    0.0217175910    0.0006089310    
0.0224261850    0.0228588930    0.0006191662    
0.0226488460    0.0209805060    0.0005887272    
0.0228715070    0.0217804880    0.0005983560    
0.0230941680    0.0207777730    0.0005844205    
0.0233168290    0.0216248150    0.0005976991    
0.0235394900    0.0219095340    0.0005949813    
0.0237621510    0.0213118290    0.0005710119    
0.0239848120    0.0211771550    0.0005698634    
0.0242074730    0.0217901660    0.0005734254    
0.0244301340    0.0199947240    0.0005499202    
0.0246527950    0.0219689510    0.0005817676    
0.0248754560    0.0205362020    0.0005498358    
0.0250981170    0.0209532050    0.0005566286    
0.0253207780    0.0208340480    0.0005384716    
0.0255434390    0.0214659470    0.0005524101    
0.0257661000    0.0207179510    0.0005444557    
0.0259887610    0.0215544480    0.0005494366    
0.0262114220    0.0212185350    0.0005480429    
0.0264340830    0.0209756120    0.0005374830    
0.0266567440    0.0210572680    0.0005352005    
0.0268794050    0.0213984310    0.0005373167    
0.0271020660    0.0202217950    0.0005202205    
0.0273247270    0.0203895340    0.0005192364    
0.0275473880    0.0200055570    0.0005133006    
0.0277700490    0.0199649700    0.0005097485    
0.0279927100    0.0208714050    0.0005166443    
0.0282153710    0.0210748410    0.0005216800    
0.0284380320    0.0202951140    0.0005089709    
0.0286606930    0.0213042240    0.0005170075    
0.0288833540    0.0208436810    0.0005123602    
0.0291060150    0.0201504760    0.0005032903    
0.0293286760    0.0204728420    0.0005002312    
0.0295513370    0.0206272900    0.0004966468    
0.0297739980    0.0211206620    0.0005080842    
0.0299966590    0.0199212020    0.0004850181    
0.0302193200    0.0206032980    0.0005004399    
0.0304419810    0.0201545910    0.0004958713    
0.0306646420    0.0209569880    0.0004913744    
0.0308873030    0.0205593210    0.0004845878    
0.0311099640    0.0204480830    0.0004845299    
0.0313326250    0.0196382380    0.0004695779    
0.0315552860    0.0200583820    0.0004807248    
0.0317779470    0.0202318330    0.0004832193    
0.0320006080    0.0193339490    0.0004616425    
0.0322232690    0.0195295040    0.0004659135    
0.0324459300    0.0194579920    0.0004615878    
0.0326685910    0.0199941520    0.0004671327    
0.0328912520    0.0194126890    0.0004618144    
0.0331139130    0.0194567340    0.0004563237    
0.0333365740    0.0201003440    0.0004653157    
0.0335592350    0.0195783060    0.0004548177    
0.0337818960    0.0201484300    0.0004610251    
0.0340045570    0.0197690160    0.0004559383    
0.0342272170    0.0206879280    0.0004645748    
0.0344498780    0.0209467700    0.0004693236    
0.0346725390    0.0205528870    0.0004562804    
0.0348952000    0.0191113700    0.0004379841    
0.0351178610    0.0196412510    0.0004460466    
0.0353405220    0.0196333440    0.0004439252    
0.0355631830    0.0200535730    0.0004469612    
0.0357858440    0.0194160150    0.0004397989    
0.0360085050    0.0195134770    0.0004422336    
0.0362311660    0.0199330070    0.0004416490    
0.0364538270    0.0203365000    0.0004425163    
0.0366764880    0.0197204790    0.0004354463    
0.0368991490    0.0202836220    0.0004393937    
0.0371218100    0.0202812970    0.0004381115    
0.0373444710    0.0201741670    0.0004417112    
0.0375671320    0.0201058060    0.0004403200    
0.0377897930    0.0195449760    0.0004228969    
0.0380124540    0.0201153010    0.0004317145    
0.0382351150    0.0195779180    0.0004259089    
0.0384577760    0.0194473120    0.0004203903    
0.0386804370    0.0191732060    0.0004206026    
0.0389030980    0.0198017530    0.0004242043    
0.0391257590    0.0196862110    0.0004200935    
0.0393484200    0.0207560100    0.0004299052    
0.0395710810    0.0195620030    0.0004179190    
0.0397937420    0.0198923650    0.0004214333    
0.0400164030    0.0197935130    0.0004220951    
0.0402390640    0.0198482480    0.0004170500    
0.0404617250    0.0195368140    0.0004113241    
0.0406843860    0.0200529270    0.0004126955    
0.0409070470    0.0203688430    0.0004202666    
0.0411297080    0.0195089090    0.0004073205    
0.0413523690    0.0198917050    0.0004123574    
0.0415750300    0.0194312260    0.0004110186    
0.0417976910    0.0196683840    0.0004028242    
0.0420203520    0.0200076500    0.0004078101    
0.0422430130    0.0194056490    0.0004031486    
0.0424656740    0.0194177940    0.0003980260    
0.0426883350    0.0197675790    0.0004035881    
0.0429109960    0.0198000900    0.0004051819    
0.0431336570    0.0188672910    0.0003899499    
0.0433563180    0.0197435570    0.0004023437    
0.0435789790    0.0195570170    0.0003941473    
0.0438016400    0.0194170520    0.0003948709    
0.0440243010    0.0197567690    0.0003942689    
0.0442469620    0.0193890830    0.0003929233    
0.0444696230    0.0197325190    0.0003949665    
0.0446922840    0.0199298480    0.0003957577    
0.0449149450    0.0198366020    0.0003895525    
0.0451376060    0.0190281290    0.0003862435    
0.0453602670    0.0189767150    0.0003816777    
0.0455829280    0.0183890700    0.0003752871    
0.0458055890    0.0201073720    0.0003947177    
0.0460282500    0.0194211670    0.0003832462    
0.0462509110    0.0196060660    0.0003826712    
0.0464735720    0.0197179400    0.0003839781    
0.0466962330    0.0198523450    0.0003870360    
0.0469188940    0.0197549530    0.0003849910    
0.0471415550    0.0195869710    0.0003853195    
0.0473642160    0.0199339860    0.0003832750    
0.0475868770    0.0190797550    0.0003731100    
0.0478095380    0.0196146930    0.0003766489    
0.0480321990    0.0193302610    0.0003747273    
0.0482548600    0.0191837920    0.0003716784    
0.0484775210    0.0197282200    0.0003806579    
0.0487001820    0.0195898780    0.0003737682    
0.0489228430    0.0196329440    0.0003739778    
0.0491455040    0.0200297290    0.0003751254    
0.0493681650    0.0198251580    0.0003764120    
0.0495908260    0.0198406610    0.0003702234    
0.0498134870    0.0195584000    0.0003710797    
0.0500361480    0.0197982020    0.0003723599    
0.0502588090    0.0190394760    0.0003596838    
0.0504814700    0.0196032960    0.0003697419    
0.0507041310    0.0197935840    0.0003671148    
0.0509267920    0.0194427900    0.0003653524    
0.0511494530    0.0195501690    0.0003639170    
0.0513721140    0.0197374650    0.0003688763    
0.0515947750    0.0196068680    0.0003627793    
0.0518174360    0.0192785230    0.0003575619    
0.0520400970    0.0196399560    0.0003583957    
0.0522627580    0.0197224290    0.0003621997    
0.0524854190    0.0197605110    0.0003654970    
0.0527080800    0.0198479940    0.0003691412    
0.0529307410    0.0193903690    0.0003665745    
0.0531534020    0.0200887640    0.0003717593    
0.0533760630    0.0192732230    0.0003652748    
0.0535987240    0.0194708870    0.0003654290    
0.0538213850    0.0196299130    0.0003711694    
0.0540440460    0.0198755690    0.0003717171    
0.0542667070    0.0196289050    0.0003719491    
0.0544893680    0.0190853800    0.0003669587    
0.0547120290    0.0193119270    0.0003666014    
0.0549346900    0.0189212250    0.0003630650    
0.0551573510    0.0201965850    0.0003795171    
0.0553800120    0.0205837780    0.0003798805    
0.0556026730    0.0193936030    0.0003763798    
0.0558253340    0.0197865950    0.0003833575    
0.0560479950    0.0187022130    0.0003727049    
0.0562706560    0.0195956100    0.0003851915    
0.0564933170    0.0188896980    0.0003814738    
0.0567159780    0.0199510050    0.0003873434    
0.0569386390    0.0199766770    0.0003936721    
0.0571613000    0.0200318200    0.0003857269    
0.0573839610    0.0202264860    0.0003843784    
0.0576066220    0.0198244680    0.0003815927    
0.0578292830    0.0198175320    0.0003802635    
0.0580519440    0.0196773860    0.0003803859    
0.0582746050    0.0192345510    0.0003744229    
0.0584972660    0.0196951440    0.0003774291    
0.0587199270    0.0196342900    0.0003735970    
0.0589425880    0.0188713170    0.0003641239    
0.0591652490    0.0189518930    0.0003670477    
0.0593879100    0.0195398790    0.0003699302    
0.0596105710    0.0191073050    0.0003654266    
0.0598332320    0.0196557200    0.0003738018    
0.0600558930    0.0193567510    0.0003685830    
0.0602785540    0.0197780840    0.0003721790    
0.0605012150    0.0192205910    0.0003661231    
0.0607238760    0.0199449040    0.0003702399    
0.0609465370    0.0193735330    0.0003677709    
0.0611691980    0.0185945600    0.0003608724    
0.0613918590    0.0197803200    0.0003681374    
0.0616145200    0.0199318800    0.0003722497    
0.0618371810    0.0192423700    0.0003621622    
0.0620598420    0.0196850570    0.0003666821    
0.0622825030    0.0197355110    0.0003727665    
0.0625051640    0.0195546600    0.0003658433    
0.0627278250    0.0197604950    0.0003670065    
0.0629504860    0.0194874500    0.0003614991    
0.0631731470    0.0190447970    0.0003617913    
0.0633958080    0.0196122540    0.0003692547    
0.0636184690    0.0194833640    0.0003731651    
0.0638411300    0.0204085100    0.0003804884    
0.0640637910    0.0199124760    0.0003784794    
0.0642864520    0.0194539290    0.0003732866    
0.0645091130    0.0196214440    0.0003781755    
0.0647317740    0.0198765750    0.0003810459    
0.0649544350    0.0195267350    0.0003772622    
0.0651770960    0.0194873080    0.0003748252    
0.0653997570    0.0198479310    0.0003774572    
0.0656224180    0.0197613150    0.0003774516    
0.0658450790    0.0191553020    0.0003662776    
0.0660677400    0.0202652060    0.0003783430    
0.0662904010    0.0198912030    0.0003793104    
0.0665130620    0.0199126130    0.0003778682    
0.0667357230    0.0195796720    0.0003813579    
0.0669583840    0.0204080360    0.0003880388    
0.0671810450    0.0192638890    0.0003749229    
0.0674037060    0.0193335240    0.0003819631    
0.0676263670    0.0198768790    0.0003844578    
0.0678490280    0.0197153020    0.0003805504    
0.0680716890    0.0203048630    0.0003870578    
0.0682943500    0.0199346900    0.0003793129    
0.0685170110    0.0199123310    0.0003752371    
0.0687396720    0.0194057470    0.0003694490    
0.0689623330    0.0193388620    0.0003676430    
0.0691849940    0.0201534130    0.0003779060    
0.0694076550    0.0191975140    0.0003686380    
0.0696303160    0.0197168530    0.0003706333    
0.0698529770    0.0198771210    0.0003713566    
0.0700756380    0.0199582770    0.0003673372    
0.0702982990    0.0188200950    0.0003605938    
0.0705209600    0.0197750520    0.0003669605    
0.0707436210    0.0193711820    0.0003615260    
0.0709662820    0.0195663400    0.0003676740    
0.0711889430    0.0196885410    0.0003642904    
0.0714116040    0.0194035440    0.0003623825    
0.0716342650    0.0190650430    0.0003577492    
0.0718569260    0.0197375060    0.0003625377    
0.0720795870    0.0195417190    0.0003621943    
0.0723022480    0.0197494600    0.0003646693    
0.0725249090    0.0199957410    0.0003625416    
0.0727475700    0.0200178540    0.0003658404    
0.0729702310    0.0199893310    0.0003626639    
0.0731928920    0.0194861850    0.0003595017    
0.0734155530    0.0200558890    0.0003639913    
0.0736382140    0.0200927620    0.0003619877    
0.0738608750    0.0196265480    0.0003600747    
0.0740835360    0.0192531420    0.0003557476    
0.0743061970    0.0194048100    0.0003521170    
0.0745288580    0.0194733210    0.0003563651    
0.0747515190    0.0195044850    0.0003573545    
0.0749741800    0.0195949360    0.0003548666    
0.0751968410    0.0196884240    0.0003585051    
0.0754195020    0.0194390450    0.0003541403    
0.0756421630    0.0198270150    0.0003547332    
0.0758648240    0.0195972180    0.0003535193    
0.0760874850    0.0198459870    0.0003555852    
0.0763101460    0.0194709010    0.0003518710    
0.0765328070    0.0195923510    0.0003565784    
0.0767554680    0.0194874070    0.0003532090    
0.0769781290    0.0196058230    0.0003522446    
0.0772007900    0.0195354690    0.0003487921    
0.0774234510    0.0195189920    0.0003506280    
0.0776461120    0.0199283250    0.0003539494    
0.0778687730    0.0191473870    0.0003457988    
0.0780914340    0.0201378080    0.0003571634    
0.0783140950    0.0194241090    0.0003452118    
0.0785367560    0.0199668280    0.0003556444    
0.0787594170    0.0199466090    0.0003522794    
0.0789820780    0.0197919860    0.0003491133    
0.0792047390    0.0193203720    0.0003460566    
0.0794274000    0.0201783040    0.0003551550    
0.0796500610    0.0190691760    0.0003418865    
0.0798727220    0.0196886440    0.0003470746    
0.0800953830    0.0201219460    0.0003500660    
0.0803180440    0.0191929070    0.0003442709    
0.0805407050    0.0197921020    0.0003492784    
0.0807633660    0.0195215850    0.0003465613    
0.0809860270    0.0194876010    0.0003449808    
0.0812086880    0.0192062620    0.0003395220    
0.0814313490    0.0196059530    0.0003446011    
0.0816540100    0.0202342670    0.0003492822    
0.0818766710    0.0194909300    0.0003435892    
0.0820993320    0.0195647880    0.0003436123    
0.0823219930    0.0195013760    0.0003444699    
0.0825446540    0.0194888770    0.0003418575    
0.0827673150    0.0191391490    0.0003365003    
0.0829899760    0.0193186670    0.0003374729    
0.0832126370    0.0197895200    0.0003430906    
0.0834352980    0.0194642610    0.0003394987    
0.0836579590    0.0195015050    0.0003390669    
0.0838806200    0.0191847630    0.0003373544    
0.0841032810    0.0191758060    0.0003351819    
0.0843259420    0.0193723100    0.0003358575    
0.0845486030    0.0192908210    0.0003351506    
0.0847712640    0.0196546220    0.0003362345    
0.0849939250    0.0192729140    0.0003335333    
0.0852165860    0.0190398670    0.0003319449    
0.0854392470    0.0190897840    0.0003292321    
0.0856619080    0.0192394830    0.0003329547    
0.0858845690    0.0198168550    0.0003348703    
0.0861072300    0.0195119560    0.0003345781    
0.0863298910    0.0192646410    0.0003341918    
0.0865525520    0.0198962850    0.0003366936    
0.0867752130    0.0194307350    0.0003300464    
0.0869978740    0.0194453810    0.0003310122    
0.0872205350    0.0197050530    0.0003327910    
0.0874431960    0.0198343520    0.0003338814    
0.0876658570    0.0196528010    0.0003336259    
0.0878885180    0.0200839670    0.0003378440    
0.0881111790    0.0197490320    0.0003345852    
0.0883338400    0.0195327050    0.0003278758    
0.0885565010    0.0195685000    0.0003326264    
0.0887791620    0.0190367300    0.0003238214    
0.0890018230    0.0193741220    0.0003298470    
0.0892244840    0.0193104500    0.0003298643    
0.0894471450    0.0193543900    0.0003288445    
0.0896698060    0.0194027380    0.0003280130    
0.0898924670    0.0203329960    0.0003373406    
0.0901151280    0.0194360950    0.0003262541    
0.0903377890    0.0190500090    0.0003257007    
0.0905604500    0.0198466490    0.0003309154    
0.0907831110    0.0195339080    0.0003274810    
0.0910057720    0.0193146740    0.0003271325    
0.0912284330    0.0189485720    0.0003193781    
0.0914510940    0.0196267070    0.0003286675    
0.0916737550    0.0192555880    0.0003247374    
0.0918964160    0.0199351700    0.0003317923    
0.0921190770    0.0194136200    0.0003244629    
0.0923417380    0.0190062260    0.0003211721    
0.0925643990    0.0195289990    0.0003247624    
0.0927870600    0.0195533730    0.0003262977    
0.0930097210    0.0188791470    0.0003178920    
0.0932323820    0.0192500630    0.0003233593    
