# Diamond Light Source Ltd.
# Data extracted from: /dls/b21/data/2018/cm19678-3/processed/b21-386631_00543.dat
q(1/A)          Column          Error           
0.0035000000    2.0711373000    0.0244289530    
0.0037226610    1.8448409000    0.0225703440    
0.0039453220    1.6014921000    0.0191305630    
0.0041679830    1.2827446000    0.0140604830    
0.0043906440    0.9612231300    0.0116419990    
0.0046133050    0.7743405900    0.0100310250    
0.0048359660    0.5850522200    0.0082475377    
0.0050586270    0.4588481000    0.0071791480    
0.0052812880    0.4232359600    0.0065190419    
0.0055039490    0.3790204000    0.0058658958    
0.0057266100    0.3166604300    0.0051869744    
0.0059492710    0.2697603900    0.0047874728    
0.0061719320    0.2182237400    0.0041493102    
0.0063945930    0.1989772100    0.0040101380    
0.0066172539    0.1842785400    0.0036237690    
0.0068399149    0.1693384400    0.0034190605    
0.0070625759    0.1480973700    0.0031646471    
0.0072852369    0.1235544300    0.0028472995    
0.0075078979    0.1116876400    0.0026938114    
0.0077305589    0.1035342300    0.0025442148    
0.0079532199    0.0981918780    0.0024433704    
0.0081758809    0.0898696880    0.0023592802    
0.0083985419    0.0797957220    0.0020734906    
0.0086212029    0.0771017530    0.0020381889    
0.0088438639    0.0680745550    0.0018997756    
0.0090665249    0.0643431570    0.0017838721    
0.0092891859    0.0639012740    0.0018555265    
0.0095118469    0.0617375900    0.0017539371    
0.0097345079    0.0593627920    0.0016703699    
0.0099571689    0.0528823610    0.0015440517    
0.0101798300    0.0501323070    0.0015033680    
0.0104024910    0.0457187500    0.0014308084    
0.0106251520    0.0457592720    0.0014363031    
0.0108478130    0.0421148260    0.0013418899    
0.0110704740    0.0417010240    0.0012712782    
0.0112931350    0.0408158100    0.0012614065    
0.0115157960    0.0381064580    0.0012117149    
0.0117384570    0.0388165240    0.0012124245    
0.0119611180    0.0395728400    0.0012276921    
0.0121837790    0.0380328460    0.0011833376    
0.0124064400    0.0366525600    0.0011132422    
0.0126291010    0.0362353820    0.0010930348    
0.0128517620    0.0346603540    0.0010716850    
0.0130744230    0.0331687480    0.0010405962    
0.0132970840    0.0314873860    0.0010089209    
0.0135197450    0.0334816120    0.0010254813    
0.0137424060    0.0320366770    0.0009891445    
0.0139650670    0.0303042340    0.0009405993    
0.0141877280    0.0297052310    0.0009333149    
0.0144103890    0.0304456080    0.0009285823    
0.0146330500    0.0279070770    0.0008833831    
0.0148557110    0.0260098110    0.0008492504    
0.0150783720    0.0273271180    0.0008632965    
0.0153010330    0.0274632700    0.0008532423    
0.0155236940    0.0277139080    0.0008520301    
0.0157463550    0.0258007080    0.0008078515    
0.0159690160    0.0260571130    0.0008087748    
0.0161916770    0.0265834410    0.0008123000    
0.0164143380    0.0270381570    0.0008254242    
0.0166369990    0.0255385740    0.0007774741    
0.0168596600    0.0245091990    0.0007549337    
0.0170823210    0.0240866340    0.0007419178    
0.0173049820    0.0243763710    0.0007476570    
0.0175276430    0.0252678780    0.0007692333    
0.0177503040    0.0243518380    0.0007359100    
0.0179729650    0.0235224140    0.0007160959    
0.0181956260    0.0253555710    0.0007292228    
0.0184182870    0.0237875180    0.0007029855    
0.0186409480    0.0232480320    0.0006993669    
0.0188636090    0.0233097050    0.0006958896    
0.0190862700    0.0239824380    0.0007047564    
0.0193089310    0.0226483460    0.0006838064    
0.0195315920    0.0230220770    0.0006659790    
0.0197542530    0.0242098530    0.0006839378    
0.0199769140    0.0228766770    0.0006648399    
0.0201995750    0.0228210670    0.0006536332    
0.0204222360    0.0231002790    0.0006632646    
0.0206448970    0.0227918620    0.0006541396    
0.0208675580    0.0213766120    0.0006204596    
0.0210902190    0.0220481400    0.0006362099    
0.0213128800    0.0221862550    0.0006295398    
0.0215355410    0.0219398430    0.0006185762    
0.0217582020    0.0216782480    0.0006148775    
0.0219808630    0.0216735410    0.0006140035    
0.0222035240    0.0217778720    0.0006099024    
0.0224261850    0.0213919430    0.0005990942    
0.0226488460    0.0216503170    0.0005981755    
0.0228715070    0.0213619850    0.0005927029    
0.0230941680    0.0216086680    0.0005961154    
0.0233168290    0.0210884260    0.0005903626    
0.0235394900    0.0208356520    0.0005803375    
0.0237621510    0.0216727280    0.0005759463    
0.0239848120    0.0196211840    0.0005486431    
0.0242074730    0.0220860680    0.0005774259    
0.0244301340    0.0215312660    0.0005707779    
0.0246527950    0.0211150000    0.0005704673    
0.0248754560    0.0219291270    0.0005682952    
0.0250981170    0.0223672780    0.0005752243    
0.0253207780    0.0214831770    0.0005469096    
0.0255434390    0.0214748810    0.0005526400    
0.0257661000    0.0210987360    0.0005495506    
0.0259887610    0.0207507630    0.0005392083    
0.0262114220    0.0210432730    0.0005458884    
0.0264340830    0.0211496820    0.0005398208    
0.0266567440    0.0203175620    0.0005258256    
0.0268794050    0.0206379690    0.0005277925    
0.0271020660    0.0211540270    0.0005321873    
0.0273247270    0.0209271520    0.0005261468    
0.0275473880    0.0200797620    0.0005143587    
0.0277700490    0.0208196050    0.0005206528    
0.0279927100    0.0198693520    0.0005041944    
0.0282153710    0.0198046430    0.0005058199    
0.0284380320    0.0206483390    0.0005134878    
0.0286606930    0.0206101850    0.0005086222    
0.0288833540    0.0202475750    0.0005050857    
0.0291060150    0.0209637080    0.0005134525    
0.0293286760    0.0209826980    0.0005065271    
0.0295513370    0.0206119500    0.0004965654    
0.0297739980    0.0204936130    0.0005005893    
0.0299966590    0.0204847310    0.0004919327    
0.0302193200    0.0204416280    0.0004985763    
0.0304419810    0.0198700550    0.0004924610    
0.0306646420    0.0198707440    0.0004785700    
0.0308873030    0.0201108140    0.0004793727    
0.0311099640    0.0202843030    0.0004826860    
0.0313326250    0.0207023080    0.0004822321    
0.0315552860    0.0200897830    0.0004812010    
0.0317779470    0.0191433780    0.0004701390    
0.0320006080    0.0200808300    0.0004705726    
0.0322232690    0.0199490680    0.0004709897    
0.0324459300    0.0206163090    0.0004752270    
0.0326685910    0.0196530860    0.0004632277    
0.0328912520    0.0197175210    0.0004655229    
0.0331139130    0.0185868800    0.0004460994    
0.0333365740    0.0200979340    0.0004653846    
0.0335592350    0.0204109250    0.0004644848    
0.0337818960    0.0199140900    0.0004584316    
0.0340045570    0.0203453140    0.0004626325    
0.0342272170    0.0200703200    0.0004576829    
0.0344498780    0.0190514000    0.0004476800    
0.0346725390    0.0199432810    0.0004495563    
0.0348952000    0.0195711990    0.0004433141    
0.0351178610    0.0190819330    0.0004397413    
0.0353405220    0.0197820990    0.0004456965    
0.0355631830    0.0205502620    0.0004525567    
0.0357858440    0.0198127770    0.0004443623    
0.0360085050    0.0197923150    0.0004454747    
0.0362311660    0.0197846700    0.0004400942    
0.0364538270    0.0197380830    0.0004360477    
0.0366764880    0.0200364970    0.0004390128    
0.0368991490    0.0197016810    0.0004331347    
0.0371218100    0.0199015540    0.0004340809    
0.0373444710    0.0193311420    0.0004324738    
0.0375671320    0.0196414670    0.0004352964    
0.0377897930    0.0203128990    0.0004312144    
0.0380124540    0.0196045920    0.0004262875    
0.0382351150    0.0203554200    0.0004343741    
0.0384577760    0.0205190900    0.0004319091    
0.0386804370    0.0196704080    0.0004261099    
0.0389030980    0.0195736200    0.0004218413    
0.0391257590    0.0200082950    0.0004236042    
0.0393484200    0.0199807410    0.0004218878    
0.0395710810    0.0196951940    0.0004194266    
0.0397937420    0.0198917130    0.0004215141    
0.0400164030    0.0192884720    0.0004167620    
0.0402390640    0.0201107420    0.0004198860    
0.0404617250    0.0202813460    0.0004191757    
0.0406843860    0.0194834810    0.0004068783    
0.0409070470    0.0199782760    0.0004163044    
0.0411297080    0.0192617930    0.0004048168    
0.0413523690    0.0198657780    0.0004121744    
0.0415750300    0.0200568490    0.0004176698    
0.0417976910    0.0196930770    0.0004031609    
0.0420203520    0.0205398680    0.0004132846    
0.0422430130    0.0197321210    0.0004066102    
0.0424656740    0.0191320390    0.0003951686    
0.0426883350    0.0196768860    0.0004027450    
0.0429109960    0.0204553360    0.0004119174    
0.0431336570    0.0199716920    0.0004012840    
0.0433563180    0.0207606900    0.0004126632    
0.0435789790    0.0199545530    0.0003982159    
0.0438016400    0.0193528320    0.0003942994    
0.0440243010    0.0193399380    0.0003901688    
0.0442469620    0.0202096830    0.0004012354    
0.0444696230    0.0203655390    0.0004013352    
0.0446922840    0.0194349720    0.0003908946    
0.0449149450    0.0200055770    0.0003912896    
0.0451376060    0.0193419430    0.0003894965    
0.0453602670    0.0194991640    0.0003869765    
0.0455829280    0.0201896570    0.0003933133    
0.0458055890    0.0192397950    0.0003861887    
0.0460282500    0.0199739960    0.0003887434    
0.0462509110    0.0196441150    0.0003831221    
0.0464735720    0.0196438610    0.0003833359    
0.0466962330    0.0200417770    0.0003889591    
0.0469188940    0.0196655980    0.0003841992    
0.0471415550    0.0196709560    0.0003862251    
0.0473642160    0.0192935140    0.0003771460    
0.0475868770    0.0200950010    0.0003829878    
0.0478095380    0.0196735060    0.0003772916    
0.0480321990    0.0190258120    0.0003718419    
0.0482548600    0.0192926340    0.0003728089    
0.0484775210    0.0191118600    0.0003747424    
0.0487001820    0.0193483300    0.0003715341    
0.0489228430    0.0202041230    0.0003794578    
0.0491455040    0.0198553270    0.0003735664    
0.0493681650    0.0194401730    0.0003728168    
0.0495908260    0.0193651370    0.0003658360    
0.0498134870    0.0194679330    0.0003702975    
0.0500361480    0.0201497450    0.0003757293    
0.0502588090    0.0195640320    0.0003646809    
0.0504814700    0.0197300590    0.0003710126    
0.0507041310    0.0188277390    0.0003581205    
0.0509267920    0.0197324800    0.0003681407    
0.0511494530    0.0195176440    0.0003636898    
0.0513721140    0.0195594660    0.0003672856    
0.0515947750    0.0195680220    0.0003624951    
0.0518174360    0.0201556690    0.0003656818    
0.0520400970    0.0200407010    0.0003621091    
0.0522627580    0.0201365630    0.0003660588    
0.0524854190    0.0198025520    0.0003659617    
0.0527080800    0.0197875720    0.0003686556    
0.0529307410    0.0201402660    0.0003736734    
0.0531534020    0.0196979360    0.0003682018    
0.0533760630    0.0193505030    0.0003660826    
0.0535987240    0.0190398740    0.0003614370    
0.0538213850    0.0200242450    0.0003749569    
0.0540440460    0.0199047060    0.0003720668    
0.0542667070    0.0197710440    0.0003733710    
0.0544893680    0.0196932990    0.0003728347    
0.0547120290    0.0194174350    0.0003676780    
0.0549346900    0.0205529880    0.0003784753    
0.0551573510    0.0201407810    0.0003790713    
0.0553800120    0.0194982010    0.0003698045    
0.0556026730    0.0201178200    0.0003834227    
0.0558253340    0.0202332290    0.0003877407    
0.0560479950    0.0193861730    0.0003795378    
0.0562706560    0.0194825680    0.0003841587    
0.0564933170    0.0193753940    0.0003864274    
0.0567159780    0.0192671650    0.0003807264    
0.0569386390    0.0198064840    0.0003920731    
0.0571613000    0.0201516150    0.0003869591    
0.0573839610    0.0196429840    0.0003788723    
0.0576066220    0.0192595620    0.0003761949    
0.0578292830    0.0188403310    0.0003708468    
0.0580519440    0.0192736210    0.0003765413    
0.0582746050    0.0191842230    0.0003740105    
0.0584972660    0.0197829360    0.0003783480    
0.0587199270    0.0197562490    0.0003748335    
0.0589425880    0.0188229420    0.0003637326    
0.0591652490    0.0194718230    0.0003721259    
0.0593879100    0.0198212640    0.0003726618    
0.0596105710    0.0196536180    0.0003706910    
0.0598332320    0.0191803040    0.0003693304    
0.0600558930    0.0199545980    0.0003743096    
0.0602785540    0.0197092440    0.0003716081    
0.0605012150    0.0198495430    0.0003721426    
0.0607238760    0.0192243850    0.0003635665    
0.0609465370    0.0194025500    0.0003681228    
0.0611691980    0.0192679190    0.0003674248    
0.0613918590    0.0188495040    0.0003594460    
0.0616145200    0.0193211750    0.0003665789    
0.0618371810    0.0199459290    0.0003688004    
0.0620598420    0.0196864170    0.0003667711    
0.0622825030    0.0197014630    0.0003725223    
0.0625051640    0.0193299900    0.0003638113    
0.0627278250    0.0200005710    0.0003693060    
0.0629504860    0.0194955620    0.0003616496    
0.0631731470    0.0194240140    0.0003654515    
0.0633958080    0.0193630780    0.0003669778    
0.0636184690    0.0197631810    0.0003759134    
0.0638411300    0.0194660560    0.0003716765    
0.0640637910    0.0195321360    0.0003749254    
0.0642864520    0.0194190320    0.0003730293    
0.0645091130    0.0201473310    0.0003832896    
0.0647317740    0.0203671710    0.0003858000    
0.0649544350    0.0185723380    0.0003680036    
0.0651770960    0.0197694940    0.0003776079    
0.0653997570    0.0190375280    0.0003697479    
0.0656224180    0.0189833740    0.0003700245    
0.0658450790    0.0201091770    0.0003753646    
0.0660677400    0.0196023280    0.0003721812    
0.0662904010    0.0198271200    0.0003787777    
0.0665130620    0.0194904890    0.0003739193    
0.0667357230    0.0202863250    0.0003882595    
0.0669583840    0.0191469560    0.0003759367    
0.0671810450    0.0194836060    0.0003771334    
0.0674037060    0.0192207800    0.0003809270    
0.0676263670    0.0190593930    0.0003765473    
0.0678490280    0.0189666070    0.0003733324    
0.0680716890    0.0198778180    0.0003830456    
0.0682943500    0.0196469480    0.0003766438    
0.0685170110    0.0187392460    0.0003640920    
0.0687396720    0.0197867600    0.0003731359    
0.0689623330    0.0198083850    0.0003721566    
0.0691849940    0.0201618020    0.0003780633    
0.0694076550    0.0196658130    0.0003731848    
0.0696303160    0.0195856600    0.0003694750    
0.0698529770    0.0191982550    0.0003650360    
0.0700756380    0.0194390120    0.0003626025    
0.0702982990    0.0196089690    0.0003681503    
0.0705209600    0.0188091060    0.0003579604    
0.0707436210    0.0195007440    0.0003628085    
0.0709662820    0.0196574270    0.0003686056    
0.0711889430    0.0199125170    0.0003664329    
0.0714116040    0.0198314040    0.0003664323    
0.0716342650    0.0204698720    0.0003707726    
0.0718569260    0.0197390590    0.0003626274    
0.0720795870    0.0199192250    0.0003657521    
0.0723022480    0.0195016990    0.0003624501    
0.0725249090    0.0196884180    0.0003598197    
0.0727475700    0.0192101560    0.0003584583    
0.0729702310    0.0194118070    0.0003574609    
0.0731928920    0.0197729750    0.0003622129    
0.0734155530    0.0191918780    0.0003561387    
0.0736382140    0.0191224910    0.0003532129    
0.0738608750    0.0194496710    0.0003585231    
0.0740835360    0.0198661490    0.0003614418    
0.0743061970    0.0197516690    0.0003553240    
0.0745288580    0.0191682620    0.0003536363    
0.0747515190    0.0193292020    0.0003558191    
0.0749741800    0.0192494770    0.0003517977    
0.0751968410    0.0199317240    0.0003607884    
0.0754195020    0.0198279460    0.0003577397    
0.0756421630    0.0190225550    0.0003475345    
0.0758648240    0.0191077440    0.0003491491    
0.0760874850    0.0204597540    0.0003611170    
0.0763101460    0.0194471980    0.0003517299    
0.0765328070    0.0193278250    0.0003542367    
0.0767554680    0.0192009080    0.0003506759    
0.0769781290    0.0198862240    0.0003548284    
0.0772007900    0.0196993500    0.0003503249    
0.0774234510    0.0193821900    0.0003494698    
0.0776461120    0.0200372460    0.0003549892    
0.0778687730    0.0197926190    0.0003516500    
0.0780914340    0.0202158990    0.0003579297    
0.0783140950    0.0190700650    0.0003421224    
0.0785367560    0.0191449540    0.0003483204    
0.0787594170    0.0191831050    0.0003455434    
0.0789820780    0.0200651300    0.0003515872    
0.0792047390    0.0194028250    0.0003468663    
0.0794274000    0.0192611650    0.0003470621    
0.0796500610    0.0198742920    0.0003491018    
0.0798727220    0.0199355510    0.0003493167    
0.0800953830    0.0199658180    0.0003487779    
0.0803180440    0.0191576500    0.0003440261    
0.0805407050    0.0194426880    0.0003462536    
0.0807633660    0.0200036420    0.0003508871    
0.0809860270    0.0198439590    0.0003481932    
0.0812086880    0.0197486520    0.0003443543    
0.0814313490    0.0191778400    0.0003408889    
0.0816540100    0.0185055330    0.0003340980    
0.0818766710    0.0202564630    0.0003503446    
0.0820993320    0.0190416480    0.0003390578    
0.0823219930    0.0189251210    0.0003394129    
0.0825446540    0.0190950510    0.0003384562    
0.0827673150    0.0194844840    0.0003395932    
0.0829899760    0.0194741490    0.0003388988    
0.0832126370    0.0196727940    0.0003421485    
0.0834352980    0.0191524640    0.0003368385    
0.0836579590    0.0197396330    0.0003412017    
0.0838806200    0.0195488280    0.0003406112    
0.0841032810    0.0199516080    0.0003419662    
0.0843259420    0.0191531910    0.0003340221    
0.0845486030    0.0200095230    0.0003414077    
0.0847712640    0.0196282760    0.0003360789    
0.0849939250    0.0191134760    0.0003322199    
0.0852165860    0.0193199030    0.0003344466    
0.0854392470    0.0194044750    0.0003320037    
0.0856619080    0.0195068910    0.0003353304    
0.0858845690    0.0192759780    0.0003303375    
0.0861072300    0.0195085980    0.0003346189    
0.0863298910    0.0195046510    0.0003363371    
0.0865525520    0.0190951590    0.0003299141    
0.0867752130    0.0197024190    0.0003324149    
0.0869978740    0.0194027410    0.0003307179    
0.0872205350    0.0198425770    0.0003340198    
0.0874431960    0.0195108670    0.0003312164    
0.0876658570    0.0188337460    0.0003266677    
0.0878885180    0.0194612430    0.0003326344    
0.0881111790    0.0191618120    0.0003296420    
0.0883338400    0.0190618110    0.0003239669    
0.0885565010    0.0198028990    0.0003346823    
0.0887791620    0.0193146730    0.0003262446    
0.0890018230    0.0197698290    0.0003332677    
0.0892244840    0.0191831960    0.0003288440    
0.0894471450    0.0198822800    0.0003333683    
0.0896698060    0.0192000080    0.0003263628    
0.0898924670    0.0196359750    0.0003315771    
0.0901151280    0.0191976390    0.0003243140    
0.0903377890    0.0192306350    0.0003273092    
0.0905604500    0.0192090870    0.0003256245    
0.0907831110    0.0192838950    0.0003254463    
0.0910057720    0.0192783690    0.0003268929    
0.0912284330    0.0193711310    0.0003229868    
0.0914510940    0.0197835420    0.0003300467    
0.0916737550    0.0198772320    0.0003300063    
0.0918964160    0.0194959830    0.0003281854    
0.0921190770    0.0189822710    0.0003209048    
0.0923417380    0.0190684320    0.0003217642    
0.0925643990    0.0191481130    0.0003216467    
0.0927870600    0.0193708530    0.0003248388    
0.0930097210    0.0200758100    0.0003278803    
0.0932323820    0.0199373250    0.0003291494    
