# Diamond Light Source Ltd.
# Data extracted from: /dls/b21/data/2018/cm19678-3/processed/b21-386631_00536.dat
q(1/A)          Column          Error           
0.0035000000    2.0753419000    0.0244496510    
0.0037226610    1.8809377000    0.0227862760    
0.0039453220    1.6123793000    0.0191922720    
0.0041679830    1.2581271000    0.0139225830    
0.0043906440    0.9707688900    0.0116977090    
0.0046133050    0.7703146900    0.0100032430    
0.0048359660    0.5855540700    0.0082496956    
0.0050586270    0.4649828700    0.0072257734    
0.0052812880    0.4421664100    0.0066621252    
0.0055039490    0.3817070800    0.0058856656    
0.0057266100    0.3140914900    0.0051650283    
0.0059492710    0.2678866000    0.0047700194    
0.0061719320    0.2203591400    0.0041688653    
0.0063945930    0.1920433700    0.0039389887    
0.0066172539    0.1825072900    0.0036057089    
0.0068399149    0.1685227500    0.0034102459    
0.0070625759    0.1434509600    0.0031140872    
0.0072852369    0.1260057000    0.0028749250    
0.0075078979    0.1108709100    0.0026834954    
0.0077305589    0.1000621400    0.0025007722    
0.0079532199    0.0938437130    0.0023882596    
0.0081758809    0.0946071630    0.0024202618    
0.0083985419    0.0850474950    0.0021402794    
0.0086212029    0.0754062780    0.0020153175    
0.0088438639    0.0710727980    0.0019408368    
0.0090665249    0.0677330270    0.0018299541    
0.0092891859    0.0661959710    0.0018882331    
0.0095118469    0.0616671470    0.0017526433    
0.0097345079    0.0553491690    0.0016126438    
0.0099571689    0.0529998930    0.0015455083    
0.0101798300    0.0506113020    0.0015102806    
0.0104024910    0.0460615790    0.0014359230    
0.0106251520    0.0457890480    0.0014365302    
0.0108478130    0.0462894570    0.0014065911    
0.0110704740    0.0435854790    0.0012994679    
0.0112931350    0.0418154040    0.0012765459    
0.0115157960    0.0406358740    0.0012510751    
0.0117384570    0.0380464110    0.0012001365    
0.0119611180    0.0371609100    0.0011894917    
0.0121837790    0.0379465260    0.0011817965    
0.0124064400    0.0375867410    0.0011271515    
0.0126291010    0.0341467800    0.0010608888    
0.0128517620    0.0341518960    0.0010636175    
0.0130744230    0.0340714580    0.0010544851    
0.0132970840    0.0297317390    0.0009802264    
0.0135197450    0.0332192380    0.0010212847    
0.0137424060    0.0309879510    0.0009726573    
0.0139650670    0.0306735140    0.0009461547    
0.0141877280    0.0298418760    0.0009353028    
0.0144103890    0.0284535920    0.0008975405    
0.0146330500    0.0284568240    0.0008918926    
0.0148557110    0.0283295780    0.0008861651    
0.0150783720    0.0279723090    0.0008732823    
0.0153010330    0.0282490950    0.0008652188    
0.0155236940    0.0280974350    0.0008577620    
0.0157463550    0.0261713810    0.0008134980    
0.0159690160    0.0262491630    0.0008116142    
0.0161916770    0.0256564820    0.0007978786    
0.0164143380    0.0273062140    0.0008293672    
0.0166369990    0.0259559350    0.0007836703    
0.0168596600    0.0249659240    0.0007618079    
0.0170823210    0.0259975610    0.0007706576    
0.0173049820    0.0258353620    0.0007695779    
0.0175276430    0.0256574050    0.0007750103    
0.0177503040    0.0249217250    0.0007443467    
0.0179729650    0.0243426850    0.0007283530    
0.0181956260    0.0243826920    0.0007149765    
0.0184182870    0.0253994870    0.0007262928    
0.0186409480    0.0226303380    0.0006898980    
0.0188636090    0.0240288030    0.0007064240    
0.0190862700    0.0244506000    0.0007114831    
0.0193089310    0.0233218580    0.0006937835    
0.0195315920    0.0238425170    0.0006776287    
0.0197542530    0.0230428600    0.0006671387    
0.0199769140    0.0241051960    0.0006823440    
0.0201995750    0.0228508710    0.0006539506    
0.0204222360    0.0229783340    0.0006614011    
0.0206448970    0.0226341020    0.0006517629    
0.0208675580    0.0218195420    0.0006267500    
0.0210902190    0.0233621170    0.0006547839    
0.0213128800    0.0224467010    0.0006331183    
0.0215355410    0.0230831840    0.0006343833    
0.0217582020    0.0207121100    0.0006009192    
0.0219808630    0.0210229170    0.0006046163    
0.0222035240    0.0218559690    0.0006108929    
0.0224261850    0.0213177050    0.0005979539    
0.0226488460    0.0216430820    0.0005979756    
0.0228715070    0.0206479500    0.0005826156    
0.0230941680    0.0212397790    0.0005909065    
0.0233168290    0.0219570160    0.0006022972    
0.0235394900    0.0208771660    0.0005808183    
0.0237621510    0.0209310620    0.0005659111    
0.0239848120    0.0209028430    0.0005661838    
0.0242074730    0.0210675650    0.0005638604    
0.0244301340    0.0214635680    0.0005697846    
0.0246527950    0.0210771290    0.0005698603    
0.0248754560    0.0212298410    0.0005590673    
0.0250981170    0.0216203920    0.0005654444    
0.0253207780    0.0216986920    0.0005495542    
0.0255434390    0.0209416750    0.0005456448    
0.0257661000    0.0216211240    0.0005562193    
0.0259887610    0.0209959480    0.0005422938    
0.0262114220    0.0214892430    0.0005515504    
0.0264340830    0.0217073360    0.0005467999    
0.0266567440    0.0208821410    0.0005329922    
0.0268794050    0.0212247720    0.0005351539    
0.0271020660    0.0205580550    0.0005245494    
0.0273247270    0.0197432350    0.0005109618    
0.0275473880    0.0207184460    0.0005223875    
0.0277700490    0.0206043910    0.0005178683    
0.0279927100    0.0211289130    0.0005198429    
0.0282153710    0.0198884270    0.0005068041    
0.0284380320    0.0205010210    0.0005115672    
0.0286606930    0.0203272490    0.0005050346    
0.0288833540    0.0200140920    0.0005020812    
0.0291060150    0.0207932730    0.0005112756    
0.0293286760    0.0207067670    0.0005031015    
0.0295513370    0.0204735150    0.0004948123    
0.0297739980    0.0206090000    0.0005019126    
0.0299966590    0.0205369340    0.0004924768    
0.0302193200    0.0204469530    0.0004985579    
0.0304419810    0.0193143640    0.0004854449    
0.0306646420    0.0197719270    0.0004772988    
0.0308873030    0.0202640120    0.0004811147    
0.0311099640    0.0204842040    0.0004849776    
0.0313326250    0.0208975160    0.0004844193    
0.0315552860    0.0194954410    0.0004739504    
0.0317779470    0.0203719970    0.0004849101    
0.0320006080    0.0208457770    0.0004793716    
0.0322232690    0.0200424470    0.0004720118    
0.0324459300    0.0205765680    0.0004746894    
0.0326685910    0.0201595110    0.0004690796    
0.0328912520    0.0209854400    0.0004801770    
0.0331139130    0.0198115320    0.0004604843    
0.0333365740    0.0208022210    0.0004733894    
0.0335592350    0.0196221760    0.0004553457    
0.0337818960    0.0199601840    0.0004588851    
0.0340045570    0.0195813420    0.0004537876    
0.0342272170    0.0198862430    0.0004555031    
0.0344498780    0.0198968540    0.0004574292    
0.0346725390    0.0209699170    0.0004609051    
0.0348952000    0.0208696390    0.0004577071    
0.0351178610    0.0202101630    0.0004524789    
0.0353405220    0.0198357180    0.0004462256    
0.0355631830    0.0195869610    0.0004417487    
0.0357858440    0.0185707630    0.0004301370    
0.0360085050    0.0203870900    0.0004520430    
0.0362311660    0.0202086550    0.0004447105    
0.0364538270    0.0191536990    0.0004294724    
0.0366764880    0.0199240270    0.0004377057    
0.0368991490    0.0197998080    0.0004341395    
0.0371218100    0.0199800860    0.0004348638    
0.0373444710    0.0196148420    0.0004355629    
0.0375671320    0.0202038910    0.0004414109    
0.0377897930    0.0198760130    0.0004264807    
0.0380124540    0.0201169480    0.0004317498    
0.0382351150    0.0193941970    0.0004239232    
0.0384577760    0.0201941430    0.0004284039    
0.0386804370    0.0196084690    0.0004253674    
0.0389030980    0.0199396990    0.0004256967    
0.0391257590    0.0200105740    0.0004235576    
0.0393484200    0.0193685200    0.0004153047    
0.0395710810    0.0193314490    0.0004154660    
0.0397937420    0.0205101010    0.0004279444    
0.0400164030    0.0201282030    0.0004256661    
0.0402390640    0.0195168510    0.0004135706    
0.0404617250    0.0203265320    0.0004195722    
0.0406843860    0.0197148060    0.0004092182    
0.0409070470    0.0203791840    0.0004203905    
0.0411297080    0.0199272530    0.0004116814    
0.0413523690    0.0196368670    0.0004097243    
0.0415750300    0.0192241440    0.0004088393    
0.0417976910    0.0196369920    0.0004025191    
0.0420203520    0.0196767700    0.0004044405    
0.0422430130    0.0197590320    0.0004068194    
0.0424656740    0.0197539200    0.0004014726    
0.0426883350    0.0200988220    0.0004069722    
0.0429109960    0.0200173080    0.0004074150    
0.0431336570    0.0194169270    0.0003956053    
0.0433563180    0.0194499800    0.0003993575    
0.0435789790    0.0201941550    0.0004005326    
0.0438016400    0.0196756300    0.0003975078    
0.0440243010    0.0198213370    0.0003949288    
0.0442469620    0.0192712210    0.0003917433    
0.0444696230    0.0190937250    0.0003885367    
0.0446922840    0.0202222790    0.0003986669    
0.0449149450    0.0192261720    0.0003835276    
0.0451376060    0.0199470640    0.0003954763    
0.0453602670    0.0195463890    0.0003873801    
0.0455829280    0.0198765280    0.0003901861    
0.0458055890    0.0200780220    0.0003944457    
0.0460282500    0.0196723490    0.0003857323    
0.0462509110    0.0195703240    0.0003823379    
0.0464735720    0.0193232200    0.0003801310    
0.0466962330    0.0203293800    0.0003916745    
0.0469188940    0.0197715780    0.0003851687    
0.0471415550    0.0196340600    0.0003857982    
0.0473642160    0.0205325820    0.0003890030    
0.0475868770    0.0195264270    0.0003774676    
0.0478095380    0.0195150360    0.0003757062    
0.0480321990    0.0193681690    0.0003751099    
0.0482548600    0.0200999810    0.0003804659    
0.0484775210    0.0195829270    0.0003792692    
0.0487001820    0.0198482330    0.0003762402    
0.0489228430    0.0196559260    0.0003742119    
0.0491455040    0.0193919960    0.0003691203    
0.0493681650    0.0196766870    0.0003750152    
0.0495908260    0.0199528280    0.0003712837    
0.0498134870    0.0195177550    0.0003707091    
0.0500361480    0.0195967130    0.0003704754    
0.0502588090    0.0198157240    0.0003669579    
0.0504814700    0.0192073640    0.0003660040    
0.0507041310    0.0196453960    0.0003657530    
0.0509267920    0.0200005250    0.0003705708    
0.0511494530    0.0191994860    0.0003606531    
0.0513721140    0.0194426170    0.0003661257    
0.0515947750    0.0201589350    0.0003678662    
0.0518174360    0.0197708930    0.0003621140    
0.0520400970    0.0193406950    0.0003556693    
0.0522627580    0.0192916450    0.0003582369    
0.0524854190    0.0197553690    0.0003654644    
0.0527080800    0.0197672270    0.0003684045    
0.0529307410    0.0197246280    0.0003697357    
0.0531534020    0.0197739170    0.0003688496    
0.0533760630    0.0197802120    0.0003700631    
0.0535987240    0.0186699880    0.0003578491    
0.0538213850    0.0203053230    0.0003775163    
0.0540440460    0.0193488070    0.0003667732    
0.0542667070    0.0194683940    0.0003704403    
0.0544893680    0.0195455950    0.0003713719    
0.0547120290    0.0198911740    0.0003720740    
0.0549346900    0.0191666240    0.0003654268    
0.0551573510    0.0206689610    0.0003839454    
0.0553800120    0.0195197310    0.0003699467    
0.0556026730    0.0192052580    0.0003745630    
0.0558253340    0.0195653750    0.0003812241    
0.0560479950    0.0197808070    0.0003833173    
0.0562706560    0.0199985490    0.0003891475    
0.0564933170    0.0197002090    0.0003895879    
0.0567159780    0.0196066830    0.0003840021    
0.0569386390    0.0191326290    0.0003852815    
0.0571613000    0.0200706010    0.0003861159    
0.0573839610    0.0193953470    0.0003764136    
0.0576066220    0.0190327550    0.0003739107    
0.0578292830    0.0199140190    0.0003812037    
0.0580519440    0.0188259470    0.0003720804    
0.0582746050    0.0194548010    0.0003765759    
0.0584972660    0.0193567830    0.0003741882    
0.0587199270    0.0198918330    0.0003760546    
0.0589425880    0.0195192900    0.0003703377    
0.0591652490    0.0196003930    0.0003732900    
0.0593879100    0.0200878010    0.0003750963    
0.0596105710    0.0194513480    0.0003687170    
0.0598332320    0.0202900610    0.0003798012    
0.0600558930    0.0203058980    0.0003775270    
0.0602785540    0.0197166660    0.0003716159    
0.0605012150    0.0198010620    0.0003716257    
0.0607238760    0.0199465380    0.0003702703    
0.0609465370    0.0195706170    0.0003696519    
0.0611691980    0.0195906760    0.0003704275    
0.0613918590    0.0201930640    0.0003719736    
0.0616145200    0.0188766960    0.0003622773    
0.0618371810    0.0195302540    0.0003648762    
0.0620598420    0.0193929400    0.0003639661    
0.0622825030    0.0196174240    0.0003716648    
0.0625051640    0.0195083460    0.0003654248    
0.0627278250    0.0193940020    0.0003636020    
0.0629504860    0.0194890460    0.0003615287    
0.0631731470    0.0187989120    0.0003594629    
0.0633958080    0.0198502560    0.0003715036    
0.0636184690    0.0194492210    0.0003728533    
0.0638411300    0.0196936610    0.0003737806    
0.0640637910    0.0194033040    0.0003736244    
0.0642864520    0.0191546640    0.0003704195    
0.0645091130    0.0197542600    0.0003794689    
0.0647317740    0.0190819060    0.0003733663    
0.0649544350    0.0197105690    0.0003790494    
0.0651770960    0.0198494090    0.0003783071    
0.0653997570    0.0193255000    0.0003724716    
0.0656224180    0.0193952170    0.0003739543    
0.0658450790    0.0193950180    0.0003685774    
0.0660677400    0.0195675220    0.0003717885    
0.0662904010    0.0199579360    0.0003799617    
0.0665130620    0.0198497040    0.0003772863    
0.0667357230    0.0197149870    0.0003826890    
0.0669583840    0.0192733750    0.0003771127    
0.0671810450    0.0189370790    0.0003717443    
0.0674037060    0.0192143570    0.0003807998    
0.0676263670    0.0189712200    0.0003756125    
0.0678490280    0.0197609930    0.0003810067    
0.0680716890    0.0198933120    0.0003831309    
0.0682943500    0.0196476000    0.0003765871    
0.0685170110    0.0195745190    0.0003720558    
0.0687396720    0.0190063870    0.0003656427    
0.0689623330    0.0192495800    0.0003668084    
0.0691849940    0.0188865140    0.0003658501    
0.0694076550    0.0193123550    0.0003697542    
0.0696303160    0.0198996280    0.0003723624    
0.0698529770    0.0195040710    0.0003678704    
0.0700756380    0.0192634790    0.0003609013    
0.0702982990    0.0197129700    0.0003690636    
0.0705209600    0.0189662640    0.0003593926    
0.0707436210    0.0196021910    0.0003636902    
0.0709662820    0.0199203310    0.0003710003    
0.0711889430    0.0197238580    0.0003646319    
0.0714116040    0.0193915960    0.0003622857    
0.0716342650    0.0189390460    0.0003565796    
0.0718569260    0.0193462050    0.0003589407    
0.0720795870    0.0201072630    0.0003674130    
0.0723022480    0.0196702690    0.0003639524    
0.0725249090    0.0198921990    0.0003616166    
0.0727475700    0.0208085050    0.0003730105    
0.0729702310    0.0192539730    0.0003559453    
0.0731928920    0.0194280840    0.0003589800    
0.0734155530    0.0192449240    0.0003565710    
0.0736382140    0.0189595720    0.0003516463    
0.0738608750    0.0196413690    0.0003602254    
0.0740835360    0.0199909870    0.0003625150    
0.0743061970    0.0193936190    0.0003520299    
0.0745288580    0.0194553500    0.0003562152    
0.0747515190    0.0196501360    0.0003587010    
0.0749741800    0.0193008890    0.0003522084    
0.0751968410    0.0198728350    0.0003601949    
0.0754195020    0.0195696820    0.0003553428    
0.0756421630    0.0197270840    0.0003538526    
0.0758648240    0.0197455110    0.0003548689    
0.0760874850    0.0201598230    0.0003584004    
0.0763101460    0.0192371980    0.0003497672    
0.0765328070    0.0198405830    0.0003588449    
0.0767554680    0.0191304670    0.0003499736    
0.0769781290    0.0194618610    0.0003509634    
0.0772007900    0.0193502300    0.0003471487    
0.0774234510    0.0194827970    0.0003503171    
0.0776461120    0.0199362440    0.0003540342    
0.0778687730    0.0198484610    0.0003520869    
0.0780914340    0.0195566230    0.0003519861    
0.0783140950    0.0201313080    0.0003514543    
0.0785367560    0.0198227540    0.0003543735    
0.0787594170    0.0198984650    0.0003518685    
0.0789820780    0.0194487280    0.0003460869    
0.0792047390    0.0196071030    0.0003486293    
0.0794274000    0.0192734840    0.0003471151    
0.0796500610    0.0197327880    0.0003477987    
0.0798727220    0.0195678810    0.0003460227    
0.0800953830    0.0193013530    0.0003428677    
0.0803180440    0.0195712040    0.0003476614    
0.0805407050    0.0189738650    0.0003419964    
0.0807633660    0.0199661930    0.0003504999    
0.0809860270    0.0194525520    0.0003446846    
0.0812086880    0.0201082020    0.0003474168    
0.0814313490    0.0202011770    0.0003498072    
0.0816540100    0.0194580830    0.0003425315    
0.0818766710    0.0199407690    0.0003475458    
0.0820993320    0.0192465200    0.0003408199    
0.0823219930    0.0198254870    0.0003473348    
0.0825446540    0.0196164110    0.0003429883    
0.0827673150    0.0195134730    0.0003397889    
0.0829899760    0.0200277340    0.0003436244    
0.0832126370    0.0197316550    0.0003426027    
0.0834352980    0.0197856470    0.0003423040    
0.0836579590    0.0191552540    0.0003360571    
0.0838806200    0.0189134300    0.0003349740    
0.0841032810    0.0191539400    0.0003350045    
0.0843259420    0.0199038110    0.0003404475    
0.0845486030    0.0194670980    0.0003366922    
0.0847712640    0.0186553000    0.0003275886    
0.0849939250    0.0196670250    0.0003369400    
0.0852165860    0.0198574880    0.0003390111    
0.0854392470    0.0191254190    0.0003295527    
0.0856619080    0.0192813970    0.0003333309    
0.0858845690    0.0194902450    0.0003321129    
0.0861072300    0.0199496110    0.0003383234    
0.0863298910    0.0198402050    0.0003391612    
0.0865525520    0.0190317970    0.0003293112    
0.0867752130    0.0192024570    0.0003281153    
0.0869978740    0.0198019900    0.0003340473    
0.0872205350    0.0196785620    0.0003325809    
0.0874431960    0.0194931050    0.0003310103    
0.0876658570    0.0189747190    0.0003278332    
0.0878885180    0.0192501330    0.0003307700    
0.0881111790    0.0195182220    0.0003326379    
0.0883338400    0.0189453580    0.0003229218    
0.0885565010    0.0194570140    0.0003316911    
0.0887791620    0.0194955170    0.0003277136    
0.0890018230    0.0191959920    0.0003283406    
0.0892244840    0.0191035270    0.0003281056    
0.0894471450    0.0194956690    0.0003300560    
0.0896698060    0.0194986040    0.0003288358    
0.0898924670    0.0195118720    0.0003304724    
0.0901151280    0.0194486410    0.0003263728    
0.0903377890    0.0193801410    0.0003285242    
0.0905604500    0.0198924190    0.0003313103    
0.0907831110    0.0189589970    0.0003226391    
0.0910057720    0.0198426600    0.0003315872    
0.0912284330    0.0191331650    0.0003209432    
0.0914510940    0.0198980250    0.0003309450    
0.0916737550    0.0190216540    0.0003227720    
0.0918964160    0.0192078120    0.0003256965    
0.0921190770    0.0195779070    0.0003258462    
0.0923417380    0.0195396970    0.0003256616    
0.0925643990    0.0197682500    0.0003267591    
0.0927870600    0.0196638850    0.0003272319    
0.0930097210    0.0196997320    0.0003247405    
0.0932323820    0.0195449780    0.0003258402    
