# Diamond Light Source Ltd.
# Data extracted from: /dls/b21/data/2018/cm19678-3/processed/b21-386631_00540.dat
q(1/A)          Column          Error           
0.0035000000    2.0431410000    0.0242612940    
0.0037226610    1.8754601000    0.0227550100    
0.0039453220    1.6128823000    0.0191968990    
0.0041679830    1.2646592000    0.0139598670    
0.0043906440    0.9547213900    0.0116016080    
0.0046133050    0.7701859900    0.0100032590    
0.0048359660    0.6000684300    0.0083520248    
0.0050586270    0.4525959900    0.0071294853    
0.0052812880    0.4269815900    0.0065472882    
0.0055039490    0.3822259100    0.0058901656    
0.0057266100    0.3155041600    0.0051770712    
0.0059492710    0.2671676600    0.0047640198    
0.0061719320    0.2237885900    0.0042015377    
0.0063945930    0.1955507300    0.0039751339    
0.0066172539    0.1847470600    0.0036280753    
0.0068399149    0.1618563100    0.0033423985    
0.0070625759    0.1478702500    0.0031619602    
0.0072852369    0.1249118700    0.0028626631    
0.0075078979    0.1125138300    0.0027035349    
0.0077305589    0.0981413540    0.0024768643    
0.0079532199    0.0983581470    0.0024452377    
0.0081758809    0.0900407300    0.0023613307    
0.0083985419    0.0850081040    0.0021399658    
0.0086212029    0.0785974930    0.0020576952    
0.0088438639    0.0708198540    0.0019375450    
0.0090665249    0.0643326070    0.0017835796    
0.0092891859    0.0667459490    0.0018962224    
0.0095118469    0.0617772870    0.0017543571    
0.0097345079    0.0581782150    0.0016534843    
0.0099571689    0.0512960440    0.0015205921    
0.0101798300    0.0503494650    0.0015064970    
0.0104024910    0.0458007950    0.0014319742    
0.0106251520    0.0461574490    0.0014424203    
0.0108478130    0.0468958260    0.0014158944    
0.0110704740    0.0415391900    0.0012687049    
0.0112931350    0.0420563870    0.0012803280    
0.0115157960    0.0391403570    0.0012279422    
0.0117384570    0.0386208420    0.0012092655    
0.0119611180    0.0397567570    0.0012304407    
0.0121837790    0.0376216800    0.0011768273    
0.0124064400    0.0351252450    0.0010897116    
0.0126291010    0.0355371580    0.0010823639    
0.0128517620    0.0345884090    0.0010704844    
0.0130744230    0.0313680510    0.0010118726    
0.0132970840    0.0307064800    0.0009962498    
0.0135197450    0.0315605090    0.0009955452    
0.0137424060    0.0310848330    0.0009742595    
0.0139650670    0.0292192340    0.0009235317    
0.0141877280    0.0297883180    0.0009345427    
0.0144103890    0.0288831890    0.0009043677    
0.0146330500    0.0294681720    0.0009076803    
0.0148557110    0.0275581160    0.0008740904    
0.0150783720    0.0279225350    0.0008725792    
0.0153010330    0.0265576100    0.0008389868    
0.0155236940    0.0269760340    0.0008405421    
0.0157463550    0.0279967650    0.0008414611    
0.0159690160    0.0264795240    0.0008152371    
0.0161916770    0.0265046310    0.0008110285    
0.0164143380    0.0266558050    0.0008195000    
0.0166369990    0.0249664300    0.0007686528    
0.0168596600    0.0255979160    0.0007714556    
0.0170823210    0.0253165220    0.0007605612    
0.0173049820    0.0251977790    0.0007600872    
0.0175276430    0.0256617730    0.0007751422    
0.0177503040    0.0240143130    0.0007307323    
0.0179729650    0.0253494740    0.0007433256    
0.0181956260    0.0240932790    0.0007107811    
0.0184182870    0.0231396940    0.0006932901    
0.0186409480    0.0225710840    0.0006890529    
0.0188636090    0.0243029260    0.0007105025    
0.0190862700    0.0231502330    0.0006923640    
0.0193089310    0.0227891290    0.0006858722    
0.0195315920    0.0233842840    0.0006711425    
0.0197542530    0.0234331490    0.0006728221    
0.0199769140    0.0229115620    0.0006652921    
0.0201995750    0.0219750120    0.0006413500    
0.0204222360    0.0230393690    0.0006623353    
0.0206448970    0.0224502450    0.0006491656    
0.0208675580    0.0220213230    0.0006296949    
0.0210902190    0.0216957770    0.0006310539    
0.0213128800    0.0208609470    0.0006103973    
0.0215355410    0.0219536830    0.0006187205    
0.0217582020    0.0220583160    0.0006201933    
0.0219808630    0.0220352120    0.0006190546    
0.0222035240    0.0217572230    0.0006095632    
0.0224261850    0.0219420190    0.0006066982    
0.0226488460    0.0219276790    0.0006019455    
0.0228715070    0.0209803110    0.0005873359    
0.0230941680    0.0209145500    0.0005864149    
0.0233168290    0.0213493560    0.0005939550    
0.0235394900    0.0211716280    0.0005849498    
0.0237621510    0.0216079620    0.0005750379    
0.0239848120    0.0218267130    0.0005786099    
0.0242074730    0.0211164340    0.0005645621    
0.0244301340    0.0206200310    0.0005585234    
0.0246527950    0.0209112090    0.0005676612    
0.0248754560    0.0212481810    0.0005593564    
0.0250981170    0.0214761650    0.0005636032    
0.0253207780    0.0202407120    0.0005308155    
0.0255434390    0.0205186570    0.0005401517    
0.0257661000    0.0214244430    0.0005537307    
0.0259887610    0.0210555580    0.0005431093    
0.0262114220    0.0213088380    0.0005492771    
0.0264340830    0.0204987410    0.0005314051    
0.0266567440    0.0207768450    0.0005316920    
0.0268794050    0.0208370170    0.0005302881    
0.0271020660    0.0211237850    0.0005317632    
0.0273247270    0.0202756410    0.0005178494    
0.0275473880    0.0213674760    0.0005305518    
0.0277700490    0.0205688440    0.0005174654    
0.0279927100    0.0202242730    0.0005086359    
0.0282153710    0.0195301440    0.0005022611    
0.0284380320    0.0207598600    0.0005148304    
0.0286606930    0.0205440570    0.0005077640    
0.0288833540    0.0221464850    0.0005281963    
0.0291060150    0.0206836500    0.0005099695    
0.0293286760    0.0217005730    0.0005150768    
0.0295513370    0.0208597480    0.0004995004    
0.0297739980    0.0201234820    0.0004960075    
0.0299966590    0.0207412280    0.0004949624    
0.0302193200    0.0195020790    0.0004869437    
0.0304419810    0.0195373100    0.0004882802    
0.0306646420    0.0203054010    0.0004837362    
0.0308873030    0.0201189410    0.0004794303    
0.0311099640    0.0205221440    0.0004854678    
0.0313326250    0.0209235360    0.0004847621    
0.0315552860    0.0197983860    0.0004776593    
0.0317779470    0.0198559770    0.0004787701    
0.0320006080    0.0198901020    0.0004682942    
0.0322232690    0.0204683450    0.0004770411    
0.0324459300    0.0193862300    0.0004607939    
0.0326685910    0.0203157750    0.0004709342    
0.0328912520    0.0195384630    0.0004633664    
0.0331139130    0.0199647740    0.0004623012    
0.0333365740    0.0206118190    0.0004712581    
0.0335592350    0.0207986090    0.0004688369    
0.0337818960    0.0206705380    0.0004670190    
0.0340045570    0.0203840500    0.0004630348    
0.0342272170    0.0203696520    0.0004610454    
0.0344498780    0.0201316400    0.0004601593    
0.0346725390    0.0194030080    0.0004433888    
0.0348952000    0.0203310310    0.0004518007    
0.0351178610    0.0203047920    0.0004535756    
0.0353405220    0.0197989350    0.0004458496    
0.0355631830    0.0203874600    0.0004507236    
0.0357858440    0.0199490320    0.0004458511    
0.0360085050    0.0202602380    0.0004506728    
0.0362311660    0.0201533680    0.0004441396    
0.0364538270    0.0203801540    0.0004430468    
0.0366764880    0.0199178020    0.0004376746    
0.0368991490    0.0204125070    0.0004408430    
0.0371218100    0.0202674790    0.0004380174    
0.0373444710    0.0200631700    0.0004405500    
0.0375671320    0.0191173890    0.0004294146    
0.0377897930    0.0198885500    0.0004266515    
0.0380124540    0.0201574440    0.0004322210    
0.0382351150    0.0203891530    0.0004346982    
0.0384577760    0.0197249110    0.0004234335    
0.0386804370    0.0202393860    0.0004321933    
0.0389030980    0.0204248550    0.0004308811    
0.0391257590    0.0204981910    0.0004287236    
0.0393484200    0.0187394500    0.0004085394    
0.0395710810    0.0193436710    0.0004156327    
0.0397937420    0.0205403850    0.0004282966    
0.0400164030    0.0204467500    0.0004290577    
0.0402390640    0.0198006620    0.0004166022    
0.0404617250    0.0197669550    0.0004137919    
0.0406843860    0.0203723190    0.0004160216    
0.0409070470    0.0206688780    0.0004234039    
0.0411297080    0.0199731770    0.0004121906    
0.0413523690    0.0197684660    0.0004111299    
0.0415750300    0.0199839910    0.0004168763    
0.0417976910    0.0197393620    0.0004036013    
0.0420203520    0.0194556320    0.0004021957    
0.0422430130    0.0193435230    0.0004025535    
0.0424656740    0.0198307300    0.0004022866    
0.0426883350    0.0189895740    0.0003956161    
0.0429109960    0.0194650460    0.0004017898    
0.0431336570    0.0195330940    0.0003968207    
0.0433563180    0.0194532920    0.0003994255    
0.0435789790    0.0191646710    0.0003902229    
0.0438016400    0.0196548840    0.0003973320    
0.0440243010    0.0205094080    0.0004017593    
0.0442469620    0.0200470750    0.0003995852    
0.0444696230    0.0197612180    0.0003953034    
0.0446922840    0.0197540770    0.0003940583    
0.0449149450    0.0199104730    0.0003903264    
0.0451376060    0.0197779320    0.0003938296    
0.0453602670    0.0200872190    0.0003927362    
0.0455829280    0.0200024860    0.0003914538    
0.0458055890    0.0197714220    0.0003914558    
0.0460282500    0.0201976610    0.0003908818    
0.0462509110    0.0191254040    0.0003779990    
0.0464735720    0.0200071260    0.0003868324    
0.0466962330    0.0198422570    0.0003869865    
0.0469188940    0.0196773830    0.0003842828    
0.0471415550    0.0202439630    0.0003917779    
0.0473642160    0.0194525160    0.0003786658    
0.0475868770    0.0196903090    0.0003790806    
0.0478095380    0.0193809050    0.0003744447    
0.0480321990    0.0198873600    0.0003801366    
0.0482548600    0.0200457790    0.0003799849    
0.0484775210    0.0195936080    0.0003794049    
0.0487001820    0.0199514770    0.0003772496    
0.0489228430    0.0196165190    0.0003738685    
0.0491455040    0.0196974710    0.0003720480    
0.0493681650    0.0199516830    0.0003776588    
0.0495908260    0.0190510090    0.0003628270    
0.0498134870    0.0194365720    0.0003699688    
0.0500361480    0.0196140590    0.0003706709    
0.0502588090    0.0189967000    0.0003593249    
0.0504814700    0.0200476990    0.0003739566    
0.0507041310    0.0205545580    0.0003741524    
0.0509267920    0.0198803220    0.0003694870    
0.0511494530    0.0196160810    0.0003645759    
0.0513721140    0.0195976330    0.0003676136    
0.0515947750    0.0194573890    0.0003614393    
0.0518174360    0.0198870270    0.0003632069    
0.0520400970    0.0193701550    0.0003559704    
0.0522627580    0.0193681170    0.0003589767    
0.0524854190    0.0195423470    0.0003635196    
0.0527080800    0.0192418210    0.0003635064    
0.0529307410    0.0197002590    0.0003695387    
0.0531534020    0.0199906080    0.0003708967    
0.0533760630    0.0200397900    0.0003725151    
0.0535987240    0.0199422840    0.0003698728    
0.0538213850    0.0197120820    0.0003719923    
0.0540440460    0.0196650170    0.0003697895    
0.0542667070    0.0191403650    0.0003673375    
0.0544893680    0.0200429380    0.0003760990    
0.0547120290    0.0202356500    0.0003753139    
0.0549346900    0.0189956790    0.0003638245    
0.0551573510    0.0198949440    0.0003767198    
0.0553800120    0.0197614820    0.0003722623    
0.0556026730    0.0200560700    0.0003828024    
0.0558253340    0.0200218920    0.0003856788    
0.0560479950    0.0194795750    0.0003804198    
0.0562706560    0.0193430480    0.0003827494    
0.0564933170    0.0185014690    0.0003775810    
0.0567159780    0.0200763890    0.0003886076    
0.0569386390    0.0190427670    0.0003844083    
0.0571613000    0.0199625780    0.0003851082    
0.0573839610    0.0195009400    0.0003774690    
0.0576066220    0.0194474250    0.0003779942    
0.0578292830    0.0194941000    0.0003771953    
0.0580519440    0.0194616940    0.0003783430    
0.0582746050    0.0193997900    0.0003760751    
0.0584972660    0.0198086310    0.0003785626    
0.0587199270    0.0198312250    0.0003755133    
0.0589425880    0.0199091300    0.0003740494    
0.0591652490    0.0191699880    0.0003692002    
0.0593879100    0.0201612740    0.0003758137    
0.0596105710    0.0197203000    0.0003712889    
0.0598332320    0.0192695960    0.0003701587    
0.0600558930    0.0197688020    0.0003725324    
0.0602785540    0.0192086340    0.0003668282    
0.0605012150    0.0192393890    0.0003663483    
0.0607238760    0.0198193180    0.0003691190    
0.0609465370    0.0199789750    0.0003735204    
0.0611691980    0.0202244950    0.0003764041    
0.0613918590    0.0192576080    0.0003632864    
0.0616145200    0.0201663860    0.0003744804    
0.0618371810    0.0193222210    0.0003629586    
0.0620598420    0.0197856700    0.0003676643    
0.0622825030    0.0190925660    0.0003666904    
0.0625051640    0.0190324340    0.0003609707    
0.0627278250    0.0196154810    0.0003657034    
0.0629504860    0.0190563690    0.0003575234    
0.0631731470    0.0198264320    0.0003691875    
0.0633958080    0.0195337530    0.0003685614    
0.0636184690    0.0197885360    0.0003761236    
0.0638411300    0.0193493370    0.0003705301    
0.0640637910    0.0201477570    0.0003807568    
0.0642864520    0.0197167580    0.0003758472    
0.0645091130    0.0183140780    0.0003654056    
0.0647317740    0.0192605160    0.0003751416    
0.0649544350    0.0199107730    0.0003810020    
0.0651770960    0.0189297380    0.0003694707    
0.0653997570    0.0195944530    0.0003750865    
0.0656224180    0.0193480400    0.0003735310    
0.0658450790    0.0201899460    0.0003760869    
0.0660677400    0.0200159660    0.0003760566    
0.0662904010    0.0197804590    0.0003783007    
0.0665130620    0.0197383260    0.0003762583    
0.0667357230    0.0197480620    0.0003830425    
0.0669583840    0.0199187200    0.0003834069    
0.0671810450    0.0199183370    0.0003812864    
0.0674037060    0.0200932160    0.0003894444    
0.0676263670    0.0194430470    0.0003802870    
0.0678490280    0.0197717050    0.0003811424    
0.0680716890    0.0189889490    0.0003743528    
0.0682943500    0.0196870420    0.0003769970    
0.0685170110    0.0199032060    0.0003751984    
0.0687396720    0.0203111700    0.0003780172    
0.0689623330    0.0195954110    0.0003701202    
0.0691849940    0.0194496880    0.0003712963    
0.0694076550    0.0195422200    0.0003719798    
0.0696303160    0.0191015980    0.0003648507    
0.0698529770    0.0192159260    0.0003651740    
0.0700756380    0.0193411470    0.0003616589    
0.0702982990    0.0197647010    0.0003695790    
0.0705209600    0.0190376060    0.0003600986    
0.0707436210    0.0203816510    0.0003708821    
0.0709662820    0.0194261480    0.0003664007    
0.0711889430    0.0198418310    0.0003657519    
0.0714116040    0.0195573680    0.0003638619    
0.0716342650    0.0195533120    0.0003623470    
0.0718569260    0.0199489670    0.0003645205    
0.0720795870    0.0195667910    0.0003624723    
0.0723022480    0.0197140290    0.0003643880    
0.0725249090    0.0194024690    0.0003571679    
0.0727475700    0.0197018940    0.0003629874    
0.0729702310    0.0193757170    0.0003570992    
0.0731928920    0.0199886590    0.0003641532    
0.0734155530    0.0194662540    0.0003586460    
0.0736382140    0.0202021990    0.0003630179    
0.0738608750    0.0197173980    0.0003609526    
0.0740835360    0.0188963760    0.0003524805    
0.0743061970    0.0193905300    0.0003520318    
0.0745288580    0.0196086960    0.0003576467    
0.0747515190    0.0192474450    0.0003550367    
0.0749741800    0.0193941710    0.0003530885    
0.0751968410    0.0196150330    0.0003578814    
0.0754195020    0.0197343480    0.0003568651    
0.0756421630    0.0189623020    0.0003469552    
0.0758648240    0.0193725220    0.0003515311    
0.0760874850    0.0193475480    0.0003511358    
0.0763101460    0.0197620330    0.0003545365    
0.0765328070    0.0198309790    0.0003587885    
0.0767554680    0.0198893390    0.0003568779    
0.0769781290    0.0191676570    0.0003483302    
0.0772007900    0.0189174950    0.0003432742    
0.0774234510    0.0201161210    0.0003559957    
0.0776461120    0.0197258420    0.0003521910    
0.0778687730    0.0196706870    0.0003505365    
0.0780914340    0.0197817200    0.0003540362    
0.0783140950    0.0197849400    0.0003484474    
0.0785367560    0.0185145250    0.0003425094    
0.0787594170    0.0195657990    0.0003489445    
0.0789820780    0.0202281490    0.0003529836    
0.0792047390    0.0196848410    0.0003493494    
0.0794274000    0.0198332460    0.0003521496    
0.0796500610    0.0192456560    0.0003435082    
0.0798727220    0.0200240800    0.0003500628    
0.0800953830    0.0193899230    0.0003436828    
0.0803180440    0.0196177740    0.0003481044    
0.0805407050    0.0190634100    0.0003428316    
0.0807633660    0.0193788120    0.0003453352    
0.0809860270    0.0198407050    0.0003481361    
0.0812086880    0.0194032160    0.0003413014    
0.0814313490    0.0191080530    0.0003402402    
0.0816540100    0.0194252110    0.0003422712    
0.0818766710    0.0195503700    0.0003441561    
0.0820993320    0.0194852130    0.0003429560    
0.0823219930    0.0199201560    0.0003481927    
0.0825446540    0.0191998850    0.0003393562    
0.0827673150    0.0194635350    0.0003393828    
0.0829899760    0.0195240270    0.0003393046    
0.0832126370    0.0199551520    0.0003445669    
0.0834352980    0.0195106310    0.0003399457    
0.0836579590    0.0196302550    0.0003402272    
0.0838806200    0.0193794790    0.0003391048    
0.0841032810    0.0190751570    0.0003343433    
0.0843259420    0.0196159890    0.0003380058    
0.0845486030    0.0194296430    0.0003363968    
0.0847712640    0.0198782090    0.0003381841    
0.0849939250    0.0195260350    0.0003357587    
0.0852165860    0.0194846060    0.0003358417    
0.0854392470    0.0193615360    0.0003316090    
0.0856619080    0.0194057130    0.0003344322    
0.0858845690    0.0189898100    0.0003278494    
0.0861072300    0.0194767060    0.0003343179    
0.0863298910    0.0192173100    0.0003338231    
0.0865525520    0.0196334440    0.0003345044    
0.0867752130    0.0197272250    0.0003325968    
0.0869978740    0.0190388470    0.0003275751    
0.0872205350    0.0199630020    0.0003350044    
0.0874431960    0.0192715520    0.0003291518    
0.0876658570    0.0196237660    0.0003334214    
0.0878885180    0.0194751060    0.0003327255    
0.0881111790    0.0194308270    0.0003319206    
0.0883338400    0.0192788900    0.0003257797    
0.0885565010    0.0194772930    0.0003318922    
0.0887791620    0.0196586170    0.0003291096    
0.0890018230    0.0196710970    0.0003324073    
0.0892244840    0.0196478570    0.0003327756    
0.0894471450    0.0190854240    0.0003265927    
0.0896698060    0.0191857660    0.0003262150    
0.0898924670    0.0197055310    0.0003321367    
0.0901151280    0.0193643050    0.0003256921    
0.0903377890    0.0191105130    0.0003262586    
0.0905604500    0.0194211760    0.0003273904    
0.0907831110    0.0194290030    0.0003266417    
0.0910057720    0.0192696660    0.0003267923    
0.0912284330    0.0197933280    0.0003264608    
0.0914510940    0.0200005070    0.0003318244    
0.0916737550    0.0198520610    0.0003297703    
0.0918964160    0.0201003820    0.0003332064    
0.0921190770    0.0195161500    0.0003253596    
0.0923417380    0.0196733110    0.0003268010    
0.0925643990    0.0193772640    0.0003235391    
0.0927870600    0.0199068780    0.0003292755    
0.0930097210    0.0200136230    0.0003273453    
0.0932323820    0.0195917700    0.0003262577    
