# Diamond Light Source Ltd.
# Data extracted from: /dls/b21/data/2018/cm19678-3/processed/b21-386631_00549.dat
q(1/A)          Column          Error           
0.0035000000    2.0668893000    0.0244094300    
0.0037226610    1.8697133000    0.0227271430    
0.0039453220    1.6394858000    0.0193605550    
0.0041679830    1.2799350000    0.0140482660    
0.0043906440    0.9664560700    0.0116762970    
0.0046133050    0.7722222600    0.0100195700    
0.0048359660    0.5920644800    0.0082987010    
0.0050586270    0.4545614800    0.0071471578    
0.0052812880    0.4191085500    0.0064886503    
0.0055039490    0.3850053400    0.0059133699    
0.0057266100    0.3260695500    0.0052646674    
0.0059492710    0.2699679300    0.0047904017    
0.0061719320    0.2195857600    0.0041631841    
0.0063945930    0.1980973300    0.0040021703    
0.0066172539    0.1803698700    0.0035859460    
0.0068399149    0.1641664600    0.0033672072    
0.0070625759    0.1436317500    0.0031172775    
0.0072852369    0.1250547500    0.0028651853    
0.0075078979    0.1150534800    0.0027347216    
0.0077305589    0.0988900770    0.0024870630    
0.0079532199    0.0988447560    0.0024520366    
0.0081758809    0.0920792690    0.0023886497    
0.0083985419    0.0863543650    0.0021575111    
0.0086212029    0.0781609540    0.0020526072    
0.0088438639    0.0732505170    0.0019711236    
0.0090665249    0.0679348840    0.0018334014    
0.0092891859    0.0629600260    0.0018422284    
0.0095118469    0.0582261990    0.0017037153    
0.0097345079    0.0581201430    0.0016531697    
0.0099571689    0.0532221070    0.0015493554    
0.0101798300    0.0508316320    0.0015141611    
0.0104024910    0.0448883410    0.0014180766    
0.0106251520    0.0461859890    0.0014433122    
0.0108478130    0.0447860430    0.0013841060    
0.0110704740    0.0457523800    0.0013319033    
0.0112931350    0.0398983190    0.0012474317    
0.0115157960    0.0386634370    0.0012208154    
0.0117384570    0.0372050170    0.0011872598    
0.0119611180    0.0384095690    0.0012097877    
0.0121837790    0.0361347240    0.0011536929    
0.0124064400    0.0378870060    0.0011320908    
0.0126291010    0.0348994070    0.0010729395    
0.0128517620    0.0336152620    0.0010556441    
0.0130744230    0.0329878470    0.0010379903    
0.0132970840    0.0327953920    0.0010298971    
0.0135197450    0.0321142130    0.0010045506    
0.0137424060    0.0312568240    0.0009772530    
0.0139650670    0.0307269130    0.0009473513    
0.0141877280    0.0308628810    0.0009515434    
0.0144103890    0.0290710540    0.0009075845    
0.0146330500    0.0294024660    0.0009069480    
0.0148557110    0.0291564280    0.0008993587    
0.0150783720    0.0276396660    0.0008684165    
0.0153010330    0.0304991380    0.0008993705    
0.0155236940    0.0273071920    0.0008459471    
0.0157463550    0.0257871210    0.0008078222    
0.0159690160    0.0264707820    0.0008153545    
0.0161916770    0.0265706840    0.0008122895    
0.0164143380    0.0264453960    0.0008165116    
0.0166369990    0.0257159310    0.0007803462    
0.0168596600    0.0252647820    0.0007666562    
0.0170823210    0.0255608060    0.0007644580    
0.0173049820    0.0250068800    0.0007574366    
0.0175276430    0.0250919280    0.0007667244    
0.0177503040    0.0245853920    0.0007395985    
0.0179729650    0.0240347320    0.0007240165    
0.0181956260    0.0244858500    0.0007167699    
0.0184182870    0.0235696930    0.0006999184    
0.0186409480    0.0242478710    0.0007144098    
0.0188636090    0.0226759720    0.0006865205    
0.0190862700    0.0225015190    0.0006828054    
0.0193089310    0.0228238750    0.0006866070    
0.0195315920    0.0228783420    0.0006640476    
0.0197542530    0.0229257210    0.0006657032    
0.0199769140    0.0234283170    0.0006729608    
0.0201995750    0.0223631930    0.0006471898    
0.0204222360    0.0233012980    0.0006662955    
0.0206448970    0.0227834320    0.0006541672    
0.0208675580    0.0224673500    0.0006362366    
0.0210902190    0.0226458830    0.0006449228    
0.0213128800    0.0227682190    0.0006378879    
0.0215355410    0.0216880870    0.0006151566    
0.0217582020    0.0235201550    0.0006406122    
0.0219808630    0.0225012990    0.0006257608    
0.0222035240    0.0211213150    0.0006007748    
0.0224261850    0.0216870160    0.0006033489    
0.0226488460    0.0221065820    0.0006045829    
0.0228715070    0.0222601190    0.0006051717    
0.0230941680    0.0217501030    0.0005981989    
0.0233168290    0.0221396780    0.0006050357    
0.0235394900    0.0217507230    0.0005930790    
0.0237621510    0.0201972550    0.0005561218    
0.0239848120    0.0218709050    0.0005793744    
0.0242074730    0.0210690770    0.0005641030    
0.0244301340    0.0204511270    0.0005564031    
0.0246527950    0.0217413680    0.0005789983    
0.0248754560    0.0211434460    0.0005581486    
0.0250981170    0.0213562450    0.0005622011    
0.0253207780    0.0205736010    0.0005353281    
0.0255434390    0.0208443660    0.0005445903    
0.0257661000    0.0219961870    0.0005612441    
0.0259887610    0.0213208960    0.0005466896    
0.0262114220    0.0214070190    0.0005507113    
0.0264340830    0.0208560290    0.0005361819    
0.0266567440    0.0211845190    0.0005370489    
0.0268794050    0.0206338400    0.0005278595    
0.0271020660    0.0211636360    0.0005324290    
0.0273247270    0.0202220060    0.0005173239    
0.0275473880    0.0196934330    0.0005095023    
0.0277700490    0.0206597200    0.0005187676    
0.0279927100    0.0209023770    0.0005172525    
0.0282153710    0.0202272310    0.0005113041    
0.0284380320    0.0210026520    0.0005179922    
0.0286606930    0.0213604450    0.0005179146    
0.0288833540    0.0203197990    0.0005061007    
0.0291060150    0.0199667170    0.0005012082    
0.0293286760    0.0211634950    0.0005088202    
0.0295513370    0.0191731540    0.0004790295    
0.0297739980    0.0206374880    0.0005024574    
0.0299966590    0.0198203570    0.0004839995    
0.0302193200    0.0202440930    0.0004962742    
0.0304419810    0.0206972000    0.0005027207    
0.0306646420    0.0202487690    0.0004832105    
0.0308873030    0.0203257210    0.0004820367    
0.0311099640    0.0206382540    0.0004869897    
0.0313326250    0.0201385720    0.0004757291    
0.0315552860    0.0202834080    0.0004836242    
0.0317779470    0.0200184220    0.0004808732    
0.0320006080    0.0200568540    0.0004703984    
0.0322232690    0.0201138790    0.0004730386    
0.0324459300    0.0204174450    0.0004730368    
0.0326685910    0.0202300260    0.0004700845    
0.0328912520    0.0198254400    0.0004669012    
0.0331139130    0.0202234850    0.0004654307    
0.0333365740    0.0207323770    0.0004727804    
0.0335592350    0.0201346730    0.0004614356    
0.0337818960    0.0198386710    0.0004576666    
0.0340045570    0.0195546870    0.0004536574    
0.0342272170    0.0208416830    0.0004665009    
0.0344498780    0.0199441210    0.0004581527    
0.0346725390    0.0195163900    0.0004448198    
0.0348952000    0.0203737410    0.0004524148    
0.0351178610    0.0201855480    0.0004523816    
0.0353405220    0.0189572470    0.0004364046    
0.0355631830    0.0206094510    0.0004533109    
0.0357858440    0.0198716310    0.0004451228    
0.0360085050    0.0199618020    0.0004474796    
0.0362311660    0.0198132460    0.0004405119    
0.0364538270    0.0201807330    0.0004410102    
0.0366764880    0.0196317910    0.0004346552    
0.0368991490    0.0203108090    0.0004398794    
0.0371218100    0.0193612060    0.0004282447    
0.0373444710    0.0195335160    0.0004348303    
0.0375671320    0.0210981090    0.0004512513    
0.0377897930    0.0191407140    0.0004186827    
0.0380124540    0.0198082410    0.0004285932    
0.0382351150    0.0202812040    0.0004336800    
0.0384577760    0.0202737380    0.0004294166    
0.0386804370    0.0200672040    0.0004304840    
0.0389030980    0.0200099980    0.0004266146    
0.0391257590    0.0197123230    0.0004205550    
0.0393484200    0.0203908620    0.0004262924    
0.0395710810    0.0199454150    0.0004221784    
0.0397937420    0.0197398980    0.0004199978    
0.0400164030    0.0199999340    0.0004244750    
0.0402390640    0.0202426670    0.0004213566    
0.0404617250    0.0197618430    0.0004138663    
0.0406843860    0.0201638950    0.0004140160    
0.0409070470    0.0199786720    0.0004164031    
0.0411297080    0.0198918980    0.0004114782    
0.0413523690    0.0204736980    0.0004185284    
0.0415750300    0.0202747990    0.0004200283    
0.0417976910    0.0198258830    0.0004046099    
0.0420203520    0.0197838040    0.0004056989    
0.0422430130    0.0197159370    0.0004065358    
0.0424656740    0.0202921130    0.0004070653    
0.0426883350    0.0191002810    0.0003968903    
0.0429109960    0.0194770810    0.0004020382    
0.0431336570    0.0202388920    0.0004040512    
0.0433563180    0.0203680120    0.0004088347    
0.0435789790    0.0202577840    0.0004013213    
0.0438016400    0.0204225340    0.0004051420    
0.0440243010    0.0187738530    0.0003845035    
0.0442469620    0.0201152580    0.0004003879    
0.0444696230    0.0198921250    0.0003967332    
0.0446922840    0.0195460540    0.0003920991    
0.0449149450    0.0204281270    0.0003954901    
0.0451376060    0.0194527400    0.0003906992    
0.0453602670    0.0202072060    0.0003940292    
0.0455829280    0.0195779160    0.0003873968    
0.0458055890    0.0196362970    0.0003902364    
0.0460282500    0.0195213390    0.0003844005    
0.0462509110    0.0200940910    0.0003875732    
0.0464735720    0.0198773020    0.0003856945    
0.0466962330    0.0195826490    0.0003845654    
0.0469188940    0.0194417410    0.0003820930    
0.0471415550    0.0204158010    0.0003935588    
0.0473642160    0.0197079420    0.0003812616    
0.0475868770    0.0192497220    0.0003749314    
0.0478095380    0.0195521430    0.0003762115    
0.0480321990    0.0199869040    0.0003812046    
0.0482548600    0.0195392420    0.0003752692    
0.0484775210    0.0195395620    0.0003789984    
0.0487001820    0.0196711730    0.0003747060    
0.0489228430    0.0199566240    0.0003772121    
0.0491455040    0.0193369740    0.0003687416    
0.0493681650    0.0194275450    0.0003727804    
0.0495908260    0.0196712490    0.0003687999    
0.0498134870    0.0191455860    0.0003673025    
0.0500361480    0.0200187110    0.0003745907    
0.0502588090    0.0195457160    0.0003645929    
0.0504814700    0.0200391550    0.0003739924    
0.0507041310    0.0194564440    0.0003641333    
0.0509267920    0.0189924650    0.0003612537    
0.0511494530    0.0193298880    0.0003620185    
0.0513721140    0.0200789490    0.0003722155    
0.0515947750    0.0193484920    0.0003605378    
0.0518174360    0.0201050870    0.0003653056    
0.0520400970    0.0200432590    0.0003622144    
0.0522627580    0.0203254630    0.0003678553    
0.0524854190    0.0195205980    0.0003634295    
0.0527080800    0.0199408600    0.0003701649    
0.0529307410    0.0195737170    0.0003684638    
0.0531534020    0.0197757400    0.0003690120    
0.0533760630    0.0194493680    0.0003670999    
0.0535987240    0.0194947040    0.0003658116    
0.0538213850    0.0192747150    0.0003679560    
0.0540440460    0.0198650420    0.0003717803    
0.0542667070    0.0195119650    0.0003710009    
0.0544893680    0.0200200230    0.0003760002    
0.0547120290    0.0195516310    0.0003690301    
0.0549346900    0.0195652360    0.0003693527    
0.0551573510    0.0199001080    0.0003768852    
0.0553800120    0.0200263110    0.0003748642    
0.0556026730    0.0196225050    0.0003787592    
0.0558253340    0.0197889540    0.0003835472    
0.0560479950    0.0193057720    0.0003788360    
0.0562706560    0.0196429840    0.0003858246    
0.0564933170    0.0201089820    0.0003937643    
0.0567159780    0.0194490320    0.0003826060    
0.0569386390    0.0193806590    0.0003879236    
0.0571613000    0.0194173780    0.0003799304    
0.0573839610    0.0199589670    0.0003819942    
0.0576066220    0.0192830140    0.0003765093    
0.0578292830    0.0191556130    0.0003740218    
0.0580519440    0.0195252460    0.0003790774    
0.0582746050    0.0197473520    0.0003795463    
0.0584972660    0.0204072530    0.0003843590    
0.0587199270    0.0196727290    0.0003741253    
0.0589425880    0.0199706640    0.0003747428    
0.0591652490    0.0195589320    0.0003730420    
0.0593879100    0.0198583060    0.0003730946    
0.0596105710    0.0191589150    0.0003660791    
0.0598332320    0.0196870630    0.0003742625    
0.0600558930    0.0194087260    0.0003692382    
0.0602785540    0.0201457870    0.0003757862    
0.0605012150    0.0196840550    0.0003706722    
0.0607238760    0.0196733600    0.0003678710    
0.0609465370    0.0198585660    0.0003725082    
0.0611691980    0.0193607880    0.0003683928    
0.0613918590    0.0196123890    0.0003667309    
0.0616145200    0.0194760750    0.0003681290    
0.0618371810    0.0196207010    0.0003658643    
0.0620598420    0.0190800930    0.0003611608    
0.0622825030    0.0190761830    0.0003666463    
0.0625051640    0.0197703480    0.0003680155    
0.0627278250    0.0200369450    0.0003697256    
0.0629504860    0.0191822520    0.0003588133    
0.0631731470    0.0195772940    0.0003669739    
0.0633958080    0.0195806220    0.0003691173    
0.0636184690    0.0191211940    0.0003698414    
0.0638411300    0.0189850080    0.0003671386    
0.0640637910    0.0188930020    0.0003688239    
0.0642864520    0.0200085380    0.0003787350    
0.0645091130    0.0195582810    0.0003777307    
0.0647317740    0.0195648750    0.0003782109    
0.0649544350    0.0197115250    0.0003792080    
0.0651770960    0.0191290530    0.0003715255    
0.0653997570    0.0199298720    0.0003784001    
0.0656224180    0.0197857350    0.0003778492    
0.0658450790    0.0196556600    0.0003711920    
0.0660677400    0.0192294710    0.0003687083    
0.0662904010    0.0198288870    0.0003788806    
0.0665130620    0.0191907410    0.0003711172    
0.0667357230    0.0199386950    0.0003850059    
0.0669583840    0.0200344210    0.0003846377    
0.0671810450    0.0192660550    0.0003751072    
0.0674037060    0.0199923480    0.0003885857    
0.0676263670    0.0199983810    0.0003857989    
0.0678490280    0.0201809320    0.0003851856    
0.0680716890    0.0200566940    0.0003848526    
0.0682943500    0.0200820740    0.0003808782    
0.0685170110    0.0200287490    0.0003764962    
0.0687396720    0.0197957490    0.0003733054    
0.0689623330    0.0195655550    0.0003699525    
0.0691849940    0.0188588550    0.0003657263    
0.0694076550    0.0188670690    0.0003656107    
0.0696303160    0.0194481210    0.0003682590    
0.0698529770    0.0198805390    0.0003715502    
0.0700756380    0.0195764110    0.0003639644    
0.0702982990    0.0191338260    0.0003637452    
0.0705209600    0.0191925030    0.0003616723    
0.0707436210    0.0193542820    0.0003615255    
0.0709662820    0.0196110360    0.0003682540    
0.0711889430    0.0193278950    0.0003610956    
0.0714116040    0.0203484460    0.0003712627    
0.0716342650    0.0198744710    0.0003654235    
0.0718569260    0.0198679930    0.0003638924    
0.0720795870    0.0195990470    0.0003628831    
0.0723022480    0.0192005460    0.0003597223    
0.0725249090    0.0191776240    0.0003552021    
0.0727475700    0.0198546040    0.0003645041    
0.0729702310    0.0199145370    0.0003621424    
0.0731928920    0.0197421270    0.0003620124    
0.0734155530    0.0192667140    0.0003569134    
0.0736382140    0.0194053200    0.0003558962    
0.0738608750    0.0193791640    0.0003579539    
0.0740835360    0.0192304310    0.0003556924    
0.0743061970    0.0196902960    0.0003548521    
0.0745288580    0.0197840010    0.0003593529    
0.0747515190    0.0200588150    0.0003625548    
0.0749741800    0.0198885840    0.0003576713    
0.0751968410    0.0199146430    0.0003607157    
0.0754195020    0.0190297850    0.0003505450    
0.0756421630    0.0195139640    0.0003520748    
0.0758648240    0.0195249210    0.0003530202    
0.0760874850    0.0194615380    0.0003522775    
0.0763101460    0.0198569900    0.0003554971    
0.0765328070    0.0192391750    0.0003535037    
0.0767554680    0.0188572180    0.0003476022    
0.0769781290    0.0196735650    0.0003530062    
0.0772007900    0.0195774090    0.0003493182    
0.0774234510    0.0199835670    0.0003549306    
0.0776461120    0.0198009590    0.0003529700    
0.0778687730    0.0192765670    0.0003471143    
0.0780914340    0.0200348780    0.0003564045    
0.0783140950    0.0199875310    0.0003503351    
0.0785367560    0.0195530810    0.0003520935    
0.0787594170    0.0190548240    0.0003444643    
0.0789820780    0.0200372640    0.0003514228    
0.0792047390    0.0196659940    0.0003492901    
0.0794274000    0.0190509380    0.0003452413    
0.0796500610    0.0194047950    0.0003450321    
0.0798727220    0.0191546610    0.0003424846    
0.0800953830    0.0203040430    0.0003517995    
0.0803180440    0.0198833130    0.0003505607    
0.0805407050    0.0194021660    0.0003459712    
0.0807633660    0.0201420420    0.0003521788    
0.0809860270    0.0193517590    0.0003439260    
0.0812086880    0.0196014360    0.0003431463    
0.0814313490    0.0197503270    0.0003460180    
0.0816540100    0.0200949860    0.0003482295    
0.0818766710    0.0199322480    0.0003476085    
0.0820993320    0.0198777840    0.0003465006    
0.0823219930    0.0195853440    0.0003453609    
0.0825446540    0.0196678930    0.0003435735    
0.0827673150    0.0197242700    0.0003417540    
0.0829899760    0.0197131100    0.0003410491    
0.0832126370    0.0191102100    0.0003372974    
0.0834352980    0.0195286210    0.0003402075    
0.0836579590    0.0199079100    0.0003427308    
0.0838806200    0.0198011410    0.0003428801    
0.0841032810    0.0202421370    0.0003445252    
0.0843259420    0.0195173890    0.0003372595    
0.0845486030    0.0188472180    0.0003314189    
0.0847712640    0.0193205560    0.0003335098    
0.0849939250    0.0193763500    0.0003345726    
0.0852165860    0.0193808090    0.0003350495    
0.0854392470    0.0193848740    0.0003319114    
0.0856619080    0.0197752700    0.0003377059    
0.0858845690    0.0192620790    0.0003302934    
0.0861072300    0.0192705480    0.0003326466    
0.0863298910    0.0196643730    0.0003377881    
0.0865525520    0.0194345860    0.0003329090    
0.0867752130    0.0197955330    0.0003332751    
0.0869978740    0.0191408530    0.0003285530    
0.0872205350    0.0196265790    0.0003322723    
0.0874431960    0.0195197300    0.0003313669    
0.0876658570    0.0195281980    0.0003327113    
0.0878885180    0.0192084350    0.0003305419    
0.0881111790    0.0194939020    0.0003325617    
0.0883338400    0.0195827620    0.0003284386    
0.0885565010    0.0197326700    0.0003341642    
0.0887791620    0.0198196260    0.0003305567    
0.0890018230    0.0191099610    0.0003277331    
0.0892244840    0.0193836600    0.0003306329    
0.0894471450    0.0198242060    0.0003329566    
0.0896698060    0.0195972330    0.0003297964    
0.0898924670    0.0191127400    0.0003272039    
0.0901151280    0.0193379100    0.0003255707    
0.0903377890    0.0191167560    0.0003264128    
0.0905604500    0.0196154230    0.0003291253    
0.0907831110    0.0192432000    0.0003251766    
0.0910057720    0.0197751270    0.0003311529    
0.0912284330    0.0193476040    0.0003228639    
0.0914510940    0.0191755610    0.0003250095    
0.0916737550    0.0196121950    0.0003278733    
0.0918964160    0.0193390280    0.0003269359    
0.0921190770    0.0193273990    0.0003238825    
0.0923417380    0.0195876990    0.0003261899    
0.0925643990    0.0192324880    0.0003224278    
0.0927870600    0.0194232510    0.0003253517    
0.0930097210    0.0192920330    0.0003214892    
0.0932323820    0.0196799950    0.0003270926    
