# Diamond Light Source Ltd.
# Data extracted from: /dls/b21/data/2018/cm19678-3/processed/b21-386631_00547.dat
q(1/A)          Column          Error           
0.0035000000    2.0386647000    0.0242423470    
0.0037226610    1.8592390000    0.0226635370    
0.0039453220    1.6527671000    0.0194389380    
0.0041679830    1.2710081000    0.0139992790    
0.0043906440    0.9714057200    0.0117062330    
0.0046133050    0.7718420000    0.0100171660    
0.0048359660    0.5760197200    0.0081855343    
0.0050586270    0.4536682000    0.0071401768    
0.0052812880    0.4215248500    0.0065073692    
0.0055039490    0.3824670800    0.0058938821    
0.0057266100    0.3116230600    0.0051467534    
0.0059492710    0.2649561300    0.0047457579    
0.0061719320    0.2176152400    0.0041444883    
0.0063945930    0.1934909800    0.0039553905    
0.0066172539    0.1860043300    0.0036415477    
0.0068399149    0.1703844200    0.0034304043    
0.0070625759    0.1467457400    0.0031509080    
0.0072852369    0.1242029300    0.0028554284    
0.0075078979    0.1080996300    0.0026508069    
0.0077305589    0.0992666250    0.0024918093    
0.0079532199    0.0961695600    0.0024186426    
0.0081758809    0.0903454040    0.0023660684    
0.0083985419    0.0826899310    0.0021112514    
0.0086212029    0.0737956540    0.0019944771    
0.0088438639    0.0729862310    0.0019675769    
0.0090665249    0.0658575920    0.0018051646    
0.0092891859    0.0648474900    0.0018696502    
0.0095118469    0.0607195260    0.0017398216    
0.0097345079    0.0569452930    0.0016363860    
0.0099571689    0.0558839190    0.0015876370    
0.0101798300    0.0512833150    0.0015208832    
0.0104024910    0.0474872680    0.0014585599    
0.0106251520    0.0479005280    0.0014698670    
0.0108478130    0.0476953860    0.0014283641    
0.0110704740    0.0436979520    0.0013016647    
0.0112931350    0.0425119420    0.0012876496    
0.0115157960    0.0406684360    0.0012520776    
0.0117384570    0.0385315480    0.0012082477    
0.0119611180    0.0379527920    0.0012025802    
0.0121837790    0.0383084490    0.0011878946    
0.0124064400    0.0352488920    0.0010919723    
0.0126291010    0.0359224330    0.0010885586    
0.0128517620    0.0337814440    0.0010582569    
0.0130744230    0.0345560230    0.0010623825    
0.0132970840    0.0314697440    0.0010088737    
0.0135197450    0.0297892940    0.0009675113    
0.0137424060    0.0285684260    0.0009342874    
0.0139650670    0.0298510480    0.0009337576    
0.0141877280    0.0299831400    0.0009378895    
0.0144103890    0.0309131780    0.0009359039    
0.0146330500    0.0301302150    0.0009181093    
0.0148557110    0.0279638920    0.0008807798    
0.0150783720    0.0271761650    0.0008611097    
0.0153010330    0.0273434850    0.0008515782    
0.0155236940    0.0283820180    0.0008624403    
0.0157463550    0.0269009380    0.0008250890    
0.0159690160    0.0258432440    0.0008056369    
0.0161916770    0.0252052200    0.0007911475    
0.0164143380    0.0260675740    0.0008106630    
0.0166369990    0.0244138680    0.0007603390    
0.0168596600    0.0260328260    0.0007782270    
0.0170823210    0.0240750170    0.0007419120    
0.0173049820    0.0268425870    0.0007847502    
0.0175276430    0.0237802320    0.0007464197    
0.0177503040    0.0232729820    0.0007195918    
0.0179729650    0.0238169310    0.0007207331    
0.0181956260    0.0250946410    0.0007256303    
0.0184182870    0.0240480420    0.0007069896    
0.0186409480    0.0239745440    0.0007103763    
0.0188636090    0.0242351210    0.0007097345    
0.0190862700    0.0229990800    0.0006903177    
0.0193089310    0.0223904010    0.0006800600    
0.0195315920    0.0226087910    0.0006601283    
0.0197542530    0.0228293580    0.0006643069    
0.0199769140    0.0230226710    0.0006671137    
0.0201995750    0.0230564810    0.0006571492    
0.0204222360    0.0222727400    0.0006514280    
0.0206448970    0.0227273710    0.0006533660    
0.0208675580    0.0232964320    0.0006478734    
0.0210902190    0.0215441650    0.0006290435    
0.0213128800    0.0226076620    0.0006356388    
0.0215355410    0.0211998050    0.0006081962    
0.0217582020    0.0219500950    0.0006188652    
0.0219808630    0.0212485950    0.0006080963    
0.0222035240    0.0212241140    0.0006022389    
0.0224261850    0.0208312130    0.0005913283    
0.0226488460    0.0208006220    0.0005864568    
0.0228715070    0.0209935480    0.0005877065    
0.0230941680    0.0227539890    0.0006118521    
0.0233168290    0.0211478760    0.0005913321    
0.0235394900    0.0218965430    0.0005950675    
0.0237621510    0.0209631480    0.0005665716    
0.0239848120    0.0213186460    0.0005720164    
0.0242074730    0.0217490000    0.0005731365    
0.0244301340    0.0208449730    0.0005617387    
0.0246527950    0.0215411870    0.0005763303    
0.0248754560    0.0207458870    0.0005528798    
0.0250981170    0.0210901130    0.0005586907    
0.0253207780    0.0209778170    0.0005405648    
0.0255434390    0.0207734870    0.0005436670    
0.0257661000    0.0204641590    0.0005413496    
0.0259887610    0.0205081290    0.0005361717    
0.0262114220    0.0213647860    0.0005501712    
0.0264340830    0.0210079250    0.0005381343    
0.0266567440    0.0216613080    0.0005430622    
0.0268794050    0.0213093000    0.0005364332    
0.0271020660    0.0213380370    0.0005346217    
0.0273247270    0.0213868940    0.0005320189    
0.0275473880    0.0209986850    0.0005261193    
0.0277700490    0.0206599810    0.0005187742    
0.0279927100    0.0207106390    0.0005148779    
0.0282153710    0.0206152340    0.0005161880    
0.0284380320    0.0208623870    0.0005162629    
0.0286606930    0.0202556340    0.0005043461    
0.0288833540    0.0206477990    0.0005101722    
0.0291060150    0.0193001450    0.0004927741    
0.0293286760    0.0209680280    0.0005064682    
0.0295513370    0.0210404680    0.0005018177    
0.0297739980    0.0203196800    0.0004985768    
0.0299966590    0.0205415710    0.0004927297    
0.0302193200    0.0209134820    0.0005044155    
0.0304419810    0.0198671210    0.0004925396    
0.0306646420    0.0202490250    0.0004832166    
0.0308873030    0.0202230900    0.0004808212    
0.0311099640    0.0194204290    0.0004724061    
0.0313326250    0.0202062560    0.0004765308    
0.0315552860    0.0201106940    0.0004815638    
0.0317779470    0.0198223000    0.0004785148    
0.0320006080    0.0202777580    0.0004729848    
0.0322232690    0.0200362570    0.0004721280    
0.0324459300    0.0200012390    0.0004681936    
0.0326685910    0.0204050580    0.0004721167    
0.0328912520    0.0197377230    0.0004658701    
0.0331139130    0.0199773710    0.0004625929    
0.0333365740    0.0210129550    0.0004759718    
0.0335592350    0.0195215740    0.0004543588    
0.0337818960    0.0205568820    0.0004658802    
0.0340045570    0.0204179610    0.0004635659    
0.0342272170    0.0193487600    0.0004494852    
0.0344498780    0.0198496500    0.0004570693    
0.0346725390    0.0201046700    0.0004514770    
0.0348952000    0.0205447860    0.0004543128    
0.0351178610    0.0199019250    0.0004491950    
0.0353405220    0.0200123550    0.0004483875    
0.0355631830    0.0204900610    0.0004519989    
0.0357858440    0.0201909490    0.0004486878    
0.0360085050    0.0197012440    0.0004445523    
0.0362311660    0.0195588490    0.0004376775    
0.0364538270    0.0198243990    0.0004371021    
0.0366764880    0.0199881100    0.0004385847    
0.0368991490    0.0200633700    0.0004371945    
0.0371218100    0.0197308710    0.0004323163    
0.0373444710    0.0197951160    0.0004377351    
0.0375671320    0.0191873610    0.0004303354    
0.0377897930    0.0193882310    0.0004213837    
0.0380124540    0.0197157550    0.0004275942    
0.0382351150    0.0190295180    0.0004200869    
0.0384577760    0.0194553940    0.0004206633    
0.0386804370    0.0197534710    0.0004271083    
0.0389030980    0.0191734580    0.0004176045    
0.0391257590    0.0196049020    0.0004194102    
0.0393484200    0.0202930850    0.0004252718    
0.0395710810    0.0198831140    0.0004215212    
0.0397937420    0.0196239770    0.0004187655    
0.0400164030    0.0194145960    0.0004182199    
0.0402390640    0.0202078390    0.0004209966    
0.0404617250    0.0194067210    0.0004101334    
0.0406843860    0.0203681710    0.0004161105    
0.0409070470    0.0196925190    0.0004134129    
0.0411297080    0.0192622740    0.0004049163    
0.0413523690    0.0200889470    0.0004145798    
0.0415750300    0.0197964590    0.0004150466    
0.0417976910    0.0192150830    0.0003983310    
0.0420203520    0.0199837240    0.0004077462    
0.0422430130    0.0196742720    0.0004061085    
0.0424656740    0.0195819320    0.0003998812    
0.0426883350    0.0202138940    0.0004082990    
0.0429109960    0.0195022240    0.0004023002    
0.0431336570    0.0196341520    0.0003979714    
0.0433563180    0.0198840920    0.0004039514    
0.0435789790    0.0193357750    0.0003920846    
0.0438016400    0.0201977470    0.0004029087    
0.0440243010    0.0192859670    0.0003897149    
0.0442469620    0.0202191180    0.0004014228    
0.0444696230    0.0205095620    0.0004028459    
0.0446922840    0.0192867320    0.0003894919    
0.0449149450    0.0196627040    0.0003880125    
0.0451376060    0.0198924240    0.0003950924    
0.0453602670    0.0199615910    0.0003916297    
0.0455829280    0.0200611010    0.0003921506    
0.0458055890    0.0195745030    0.0003896243    
0.0460282500    0.0199076270    0.0003881876    
0.0462509110    0.0198476510    0.0003851916    
0.0464735720    0.0199224570    0.0003861347    
0.0466962330    0.0200662390    0.0003892873    
0.0469188940    0.0197123270    0.0003847452    
0.0471415550    0.0193690820    0.0003833395    
0.0473642160    0.0202392500    0.0003863691    
0.0475868770    0.0197757610    0.0003800221    
0.0478095380    0.0188719300    0.0003696118    
0.0480321990    0.0192673580    0.0003742822    
0.0482548600    0.0198349950    0.0003781011    
0.0484775210    0.0192604590    0.0003762842    
0.0487001820    0.0205493550    0.0003829811    
0.0489228430    0.0199996560    0.0003776210    
0.0491455040    0.0197591210    0.0003727473    
0.0493681650    0.0198712820    0.0003770160    
0.0495908260    0.0201416770    0.0003731860    
0.0498134870    0.0198786830    0.0003742709    
0.0500361480    0.0192829720    0.0003676450    
0.0502588090    0.0194507490    0.0003637084    
0.0504814700    0.0194461130    0.0003684192    
0.0507041310    0.0198383270    0.0003676918    
0.0509267920    0.0204494530    0.0003748567    
0.0511494530    0.0202793500    0.0003708052    
0.0513721140    0.0198860010    0.0003704252    
0.0515947750    0.0195099750    0.0003620415    
0.0518174360    0.0195743320    0.0003604538    
0.0520400970    0.0197685850    0.0003597262    
0.0522627580    0.0190874030    0.0003564782    
0.0524854190    0.0199132920    0.0003670692    
0.0527080800    0.0198105540    0.0003689558    
0.0529307410    0.0193728150    0.0003665703    
0.0531534020    0.0197622190    0.0003688882    
0.0533760630    0.0191239520    0.0003640182    
0.0535987240    0.0192890180    0.0003638790    
0.0538213850    0.0196332030    0.0003713644    
0.0540440460    0.0200879510    0.0003738628    
0.0542667070    0.0190960070    0.0003670274    
0.0544893680    0.0198437300    0.0003743434    
0.0547120290    0.0191130570    0.0003648700    
0.0549346900    0.0197467740    0.0003710646    
0.0551573510    0.0194720870    0.0003728124    
0.0553800120    0.0197318490    0.0003721004    
0.0556026730    0.0193814900    0.0003764283    
0.0558253340    0.0195290160    0.0003810222    
0.0560479950    0.0190309590    0.0003761324    
0.0562706560    0.0192794690    0.0003822403    
0.0564933170    0.0195926260    0.0003886783    
0.0567159780    0.0191632590    0.0003797871    
0.0569386390    0.0198700850    0.0003927938    
0.0571613000    0.0197224170    0.0003829054    
0.0573839610    0.0194035780    0.0003766443    
0.0576066220    0.0198787370    0.0003822834    
0.0578292830    0.0195940360    0.0003782802    
0.0580519440    0.0196800480    0.0003805796    
0.0582746050    0.0194266210    0.0003764538    
0.0584972660    0.0197776940    0.0003783862    
0.0587199270    0.0191535830    0.0003691582    
0.0589425880    0.0195841550    0.0003711011    
0.0591652490    0.0196160990    0.0003735892    
0.0593879100    0.0198375280    0.0003729017    
0.0596105710    0.0190822130    0.0003653478    
0.0598332320    0.0199719130    0.0003769628    
0.0600558930    0.0199428410    0.0003742866    
0.0602785540    0.0200058460    0.0003744811    
0.0605012150    0.0196424220    0.0003702823    
0.0607238760    0.0196116990    0.0003672963    
0.0609465370    0.0192159550    0.0003664339    
0.0611691980    0.0197746100    0.0003723114    
0.0613918590    0.0200446640    0.0003707527    
0.0616145200    0.0195111120    0.0003684623    
0.0618371810    0.0198324400    0.0003678355    
0.0620598420    0.0197502990    0.0003674514    
0.0622825030    0.0197036140    0.0003726296    
0.0625051640    0.0195650820    0.0003661024    
0.0627278250    0.0197506600    0.0003670771    
0.0629504860    0.0189408670    0.0003565508    
0.0631731470    0.0195362680    0.0003665915    
0.0633958080    0.0196991620    0.0003702353    
0.0636184690    0.0191929710    0.0003705372    
0.0638411300    0.0189213490    0.0003665249    
0.0640637910    0.0199300640    0.0003788137    
0.0642864520    0.0194352680    0.0003732723    
0.0645091130    0.0197044330    0.0003791418    
0.0647317740    0.0192872920    0.0003755207    
0.0649544350    0.0196315260    0.0003784402    
0.0651770960    0.0195694630    0.0003757804    
0.0653997570    0.0200091550    0.0003791544    
0.0656224180    0.0198725760    0.0003786799    
0.0658450790    0.0195647790    0.0003703352    
0.0660677400    0.0198942710    0.0003750300    
0.0662904010    0.0199087730    0.0003796454    
0.0665130620    0.0195282960    0.0003743692    
0.0667357230    0.0202957960    0.0003884407    
0.0669583840    0.0194069740    0.0003785691    
0.0671810450    0.0193101180    0.0003755383    
0.0674037060    0.0193657070    0.0003824497    
0.0676263670    0.0185994000    0.0003720624    
0.0678490280    0.0190636860    0.0003743740    
0.0680716890    0.0197763280    0.0003821557    
0.0682943500    0.0192443600    0.0003728519    
0.0685170110    0.0196751330    0.0003731602    
0.0687396720    0.0196763210    0.0003721800    
0.0689623330    0.0199085710    0.0003731837    
0.0691849940    0.0191782580    0.0003688126    
0.0694076550    0.0194624460    0.0003713369    
0.0696303160    0.0195808580    0.0003695159    
0.0698529770    0.0192349950    0.0003654704    
0.0700756380    0.0193262830    0.0003616340    
0.0702982990    0.0194314170    0.0003665653    
0.0705209600    0.0193835820    0.0003634706    
0.0707436210    0.0196314060    0.0003641069    
0.0709662820    0.0205033340    0.0003765409    
0.0711889430    0.0191797210    0.0003597111    
0.0714116040    0.0191294060    0.0003599724    
0.0716342650    0.0197269040    0.0003640667    
0.0718569260    0.0199415590    0.0003645678    
0.0720795870    0.0199957150    0.0003665392    
0.0723022480    0.0193423170    0.0003610502    
0.0725249090    0.0198752440    0.0003616072    
0.0727475700    0.0195068760    0.0003613004    
0.0729702310    0.0190257360    0.0003539710    
0.0731928920    0.0200344630    0.0003646852    
0.0734155530    0.0196835040    0.0003607555    
0.0736382140    0.0190008740    0.0003521701    
0.0738608750    0.0197695100    0.0003615433    
0.0740835360    0.0198885830    0.0003617302    
0.0743061970    0.0193771840    0.0003520216    
0.0745288580    0.0195623220    0.0003573362    
0.0747515190    0.0199804310    0.0003618480    
0.0749741800    0.0192713290    0.0003520795    
0.0751968410    0.0196535450    0.0003583455    
0.0754195020    0.0195789060    0.0003555690    
0.0756421630    0.0198064150    0.0003547054    
0.0758648240    0.0191102820    0.0003492539    
0.0760874850    0.0197423590    0.0003548122    
0.0763101460    0.0191762390    0.0003493525    
0.0765328070    0.0191354910    0.0003525521    
0.0767554680    0.0198570360    0.0003567004    
0.0769781290    0.0197941620    0.0003540887    
0.0772007900    0.0193782020    0.0003475387    
0.0774234510    0.0198514350    0.0003537574    
0.0776461120    0.0191216630    0.0003468649    
0.0778687730    0.0191768010    0.0003462171    
0.0780914340    0.0187987860    0.0003452371    
0.0783140950    0.0196132040    0.0003470412    
0.0785367560    0.0194075020    0.0003507825    
0.0787594170    0.0193228310    0.0003468805    
0.0789820780    0.0189589060    0.0003418378    
0.0792047390    0.0199143970    0.0003514914    
0.0794274000    0.0196330380    0.0003504782    
0.0796500610    0.0193682300    0.0003447090    
0.0798727220    0.0198468800    0.0003486203    
0.0800953830    0.0194448260    0.0003442776    
0.0803180440    0.0195127180    0.0003472806    
0.0805407050    0.0197910770    0.0003494236    
0.0807633660    0.0197543520    0.0003487752    
0.0809860270    0.0191013930    0.0003416961    
0.0812086880    0.0190490170    0.0003382785    
0.0814313490    0.0192534780    0.0003416402    
0.0816540100    0.0196004020    0.0003439196    
0.0818766710    0.0198536910    0.0003469250    
0.0820993320    0.0196847510    0.0003448163    
0.0823219930    0.0190618480    0.0003407162    
0.0825446540    0.0188939000    0.0003367474    
0.0827673150    0.0198488700    0.0003428339    
0.0829899760    0.0191528170    0.0003361696    
0.0832126370    0.0197236520    0.0003426704    
0.0834352980    0.0189302600    0.0003349570    
0.0836579590    0.0192709110    0.0003372051    
0.0838806200    0.0199498270    0.0003441672    
0.0841032810    0.0203362160    0.0003453271    
0.0843259420    0.0198323420    0.0003399719    
0.0845486030    0.0191563350    0.0003341278    
0.0847712640    0.0191711160    0.0003322196    
0.0849939250    0.0194921380    0.0003355730    
0.0852165860    0.0195374460    0.0003364028    
0.0854392470    0.0193851190    0.0003319156    
0.0856619080    0.0193083820    0.0003336976    
0.0858845690    0.0195171910    0.0003324755    
0.0861072300    0.0198277840    0.0003374239    
0.0863298910    0.0192932620    0.0003345876    
0.0865525520    0.0192010200    0.0003309046    
0.0867752130    0.0195320640    0.0003310519    
0.0869978740    0.0196148280    0.0003325981    
0.0872205350    0.0194524410    0.0003307970    
0.0874431960    0.0193737170    0.0003301273    
0.0876658570    0.0188652140    0.0003270168    
0.0878885180    0.0192257420    0.0003306928    
0.0881111790    0.0188814100    0.0003272976    
0.0883338400    0.0190817280    0.0003242118    
0.0885565010    0.0194273330    0.0003315708    
0.0887791620    0.0192079140    0.0003254177    
0.0890018230    0.0197509560    0.0003331864    
0.0892244840    0.0187466100    0.0003251564    
0.0894471450    0.0189912140    0.0003258884    
0.0896698060    0.0187705130    0.0003227672    
0.0898924670    0.0195555150    0.0003309744    
0.0901151280    0.0196889600    0.0003285145    
0.0903377890    0.0192619070    0.0003276517    
0.0905604500    0.0197647760    0.0003303780    
0.0907831110    0.0197379920    0.0003293327    
0.0910057720    0.0193594620    0.0003276562    
0.0912284330    0.0193963390    0.0003232723    
0.0914510940    0.0199910920    0.0003318509    
0.0916737550    0.0196014800    0.0003277858    
0.0918964160    0.0198146020    0.0003309335    
0.0921190770    0.0195773130    0.0003259718    
0.0923417380    0.0198432530    0.0003283130    
0.0925643990    0.0190921880    0.0003212516    
0.0927870600    0.0198049900    0.0003285354    
0.0930097210    0.0194530010    0.0003228297    
0.0932323820    0.0195497670    0.0003260106    
