# Diamond Light Source Ltd.
# Data extracted from: /dls/b21/data/2018/cm19678-3/processed/b21-386631_00548.dat
q(1/A)          Column          Error           
0.0035000000    2.0770312000    0.0244695520    
0.0037226610    1.8471068000    0.0225896150    
0.0039453220    1.5999737000    0.0191260760    
0.0041679830    1.2930739000    0.0141203650    
0.0043906440    0.9636590700    0.0116595360    
0.0046133050    0.7956430400    0.0101705060    
0.0048359660    0.5806798800    0.0082186312    
0.0050586270    0.4617652200    0.0072036591    
0.0052812880    0.4384074600    0.0066364460    
0.0055039490    0.3834710100    0.0059016497    
0.0057266100    0.3157072200    0.0051804032    
0.0059492710    0.2624093400    0.0047229242    
0.0061719320    0.2149342700    0.0041189057    
0.0063945930    0.1969703200    0.0039908200    
0.0066172539    0.1808022000    0.0035902863    
0.0068399149    0.1601647600    0.0033259568    
0.0070625759    0.1402525400    0.0030804282    
0.0072852369    0.1287341600    0.0029070667    
0.0075078979    0.1157714200    0.0027432755    
0.0077305589    0.1008942000    0.0025121699    
0.0079532199    0.0937376120    0.0023878804    
0.0081758809    0.0930730530    0.0024015354    
0.0083985419    0.0819902050    0.0021023130    
0.0086212029    0.0765996710    0.0020320288    
0.0088438639    0.0709184770    0.0019395175    
0.0090665249    0.0656605020    0.0018024729    
0.0092891859    0.0652256480    0.0018751055    
0.0095118469    0.0605208840    0.0017369844    
0.0097345079    0.0572281560    0.0016404555    
0.0099571689    0.0511937440    0.0015195639    
0.0101798300    0.0519154280    0.0015302373    
0.0104024910    0.0471294690    0.0014530638    
0.0106251520    0.0487581210    0.0014829760    
0.0108478130    0.0440171950    0.0013721913    
0.0110704740    0.0450168270    0.0013211702    
0.0112931350    0.0409913910    0.0012644198    
0.0115157960    0.0390499020    0.0012269171    
0.0117384570    0.0404643200    0.0012381881    
0.0119611180    0.0384105400    0.0012098183    
0.0121837790    0.0362829800    0.0011560719    
0.0124064400    0.0338961960    0.0010708215    
0.0126291010    0.0371104210    0.0011064190    
0.0128517620    0.0335166550    0.0010541080    
0.0130744230    0.0308329850    0.0010035282    
0.0132970840    0.0325374740    0.0010258523    
0.0135197450    0.0316750920    0.0009976716    
0.0137424060    0.0318076010    0.0009858380    
0.0139650670    0.0303187660    0.0009410503    
0.0141877280    0.0305702800    0.0009470340    
0.0144103890    0.0294684800    0.0009137788    
0.0146330500    0.0280603410    0.0008860179    
0.0148557110    0.0271874610    0.0008684716    
0.0150783720    0.0292229320    0.0008929539    
0.0153010330    0.0288025220    0.0008740084    
0.0155236940    0.0270982250    0.0008427147    
0.0157463550    0.0259649220    0.0008106126    
0.0159690160    0.0259189160    0.0008068206    
0.0161916770    0.0251062060    0.0007895970    
0.0164143380    0.0252863710    0.0007984285    
0.0166369990    0.0272557880    0.0008033801    
0.0168596600    0.0255678610    0.0007712507    
0.0170823210    0.0258586780    0.0007689091    
0.0173049820    0.0250763410    0.0007584974    
0.0175276430    0.0241553980    0.0007522893    
0.0177503040    0.0230285290    0.0007158071    
0.0179729650    0.0239917180    0.0007233775    
0.0181956260    0.0240458380    0.0007103095    
0.0184182870    0.0247758240    0.0007176125    
0.0186409480    0.0228802970    0.0006939799    
0.0188636090    0.0224686940    0.0006833843    
0.0190862700    0.0238074570    0.0007023490    
0.0193089310    0.0225352730    0.0006822609    
0.0195315920    0.0231102150    0.0006674126    
0.0197542530    0.0233515770    0.0006718661    
0.0199769140    0.0224237080    0.0006583827    
0.0201995750    0.0225323290    0.0006496408    
0.0204222360    0.0221205970    0.0006492033    
0.0206448970    0.0212625700    0.0006319643    
0.0208675580    0.0220895490    0.0006308725    
0.0210902190    0.0219117770    0.0006343915    
0.0213128800    0.0218037120    0.0006242385    
0.0215355410    0.0218805700    0.0006178881    
0.0217582020    0.0224563830    0.0006259657    
0.0219808630    0.0227977160    0.0006298769    
0.0222035240    0.0215832490    0.0006073166    
0.0224261850    0.0217547080    0.0006042975    
0.0226488460    0.0219583270    0.0006025599    
0.0228715070    0.0204508700    0.0005800644    
0.0230941680    0.0222606910    0.0006051872    
0.0233168290    0.0218922140    0.0006016524    
0.0235394900    0.0217189290    0.0005926529    
0.0237621510    0.0208715350    0.0005653358    
0.0239848120    0.0210733420    0.0005687195    
0.0242074730    0.0212961650    0.0005671420    
0.0244301340    0.0205424730    0.0005576514    
0.0246527950    0.0211405450    0.0005709492    
0.0248754560    0.0210997770    0.0005575789    
0.0250981170    0.0213271840    0.0005618256    
0.0253207780    0.0208805740    0.0005393139    
0.0255434390    0.0221681520    0.0005616241    
0.0257661000    0.0201636810    0.0005373639    
0.0259887610    0.0211251820    0.0005441816    
0.0262114220    0.0213367210    0.0005498132    
0.0264340830    0.0205395040    0.0005321044    
0.0266567440    0.0207902170    0.0005320341    
0.0268794050    0.0208234190    0.0005302856    
0.0271020660    0.0206953440    0.0005265122    
0.0273247270    0.0203416290    0.0005188583    
0.0275473880    0.0204321240    0.0005189765    
0.0277700490    0.0210119610    0.0005231779    
0.0279927100    0.0210053070    0.0005185310    
0.0282153710    0.0205508690    0.0005153848    
0.0284380320    0.0207732210    0.0005151617    
0.0286606930    0.0215493530    0.0005202063    
0.0288833540    0.0204463690    0.0005076809    
0.0291060150    0.0210492510    0.0005146224    
0.0293286760    0.0199162080    0.0004936049    
0.0295513370    0.0205500230    0.0004959377    
0.0297739980    0.0212619210    0.0005100087    
0.0299966590    0.0212746240    0.0005014477    
0.0302193200    0.0205852590    0.0005004448    
0.0304419810    0.0208320440    0.0005043620    
0.0306646420    0.0208373860    0.0004901897    
0.0308873030    0.0202805060    0.0004815063    
0.0311099640    0.0201101660    0.0004807249    
0.0313326250    0.0200716510    0.0004749440    
0.0315552860    0.0199264440    0.0004793557    
0.0317779470    0.0201113410    0.0004819940    
0.0320006080    0.0196932840    0.0004661214    
0.0322232690    0.0207819000    0.0004808358    
0.0324459300    0.0199028540    0.0004670436    
0.0326685910    0.0203070030    0.0004709840    
0.0328912520    0.0205846700    0.0004757634    
0.0331139130    0.0204060980    0.0004675332    
0.0333365740    0.0196547470    0.0004603351    
0.0335592350    0.0201986330    0.0004621738    
0.0337818960    0.0199975480    0.0004595013    
0.0340045570    0.0209865610    0.0004699793    
0.0342272170    0.0197040330    0.0004535959    
0.0344498780    0.0199761990    0.0004585268    
0.0346725390    0.0199933990    0.0004502287    
0.0348952000    0.0196308170    0.0004440952    
0.0351178610    0.0197602350    0.0004475960    
0.0353405220    0.0190782840    0.0004378011    
0.0355631830    0.0201911910    0.0004486931    
0.0357858440    0.0201712620    0.0004484718    
0.0360085050    0.0199823690    0.0004477157    
0.0362311660    0.0203426350    0.0004463638    
0.0364538270    0.0197186350    0.0004359373    
0.0366764880    0.0201808360    0.0004406968    
0.0368991490    0.0198730860    0.0004351191    
0.0371218100    0.0196269240    0.0004311788    
0.0373444710    0.0205019980    0.0004454851    
0.0375671320    0.0200466060    0.0004398682    
0.0377897930    0.0200662030    0.0004286906    
0.0380124540    0.0204857260    0.0004358665    
0.0382351150    0.0202817170    0.0004336909    
0.0384577760    0.0201196240    0.0004277867    
0.0386804370    0.0191534440    0.0004205741    
0.0389030980    0.0196011980    0.0004222396    
0.0391257590    0.0203498760    0.0004273072    
0.0393484200    0.0193129870    0.0004148776    
0.0395710810    0.0202586920    0.0004254863    
0.0397937420    0.0200531700    0.0004233227    
0.0400164030    0.0205590110    0.0004303724    
0.0402390640    0.0199361980    0.0004181601    
0.0404617250    0.0198230160    0.0004145116    
0.0406843860    0.0197223520    0.0004094630    
0.0409070470    0.0192848530    0.0004091140    
0.0411297080    0.0198413290    0.0004109601    
0.0413523690    0.0198581920    0.0004121944    
0.0415750300    0.0195617600    0.0004125815    
0.0417976910    0.0195373700    0.0004016601    
0.0420203520    0.0197593440    0.0004054532    
0.0422430130    0.0194649500    0.0004039449    
0.0424656740    0.0196066780    0.0004001363    
0.0426883350    0.0197523010    0.0004036128    
0.0429109960    0.0195356660    0.0004026475    
0.0431336570    0.0201506700    0.0004031747    
0.0433563180    0.0199664090    0.0004047892    
0.0435789790    0.0193678220    0.0003924119    
0.0438016400    0.0200935160    0.0004018703    
0.0440243010    0.0191759590    0.0003886043    
0.0442469620    0.0196535180    0.0003957708    
0.0444696230    0.0199638420    0.0003974528    
0.0446922840    0.0196566690    0.0003932120    
0.0449149450    0.0206047520    0.0003972012    
0.0451376060    0.0198848280    0.0003950195    
0.0453602670    0.0202461340    0.0003944135    
0.0455829280    0.0190801340    0.0003824450    
0.0458055890    0.0197453700    0.0003913236    
0.0460282500    0.0200214220    0.0003892979    
0.0462509110    0.0200646970    0.0003872945    
0.0464735720    0.0192865600    0.0003799247    
0.0466962330    0.0193490220    0.0003822693    
0.0469188940    0.0192770220    0.0003804758    
0.0471415550    0.0198624740    0.0003881937    
0.0473642160    0.0201141160    0.0003851753    
0.0475868770    0.0201557560    0.0003836583    
0.0478095380    0.0197987650    0.0003785815    
0.0480321990    0.0197256610    0.0003787099    
0.0482548600    0.0202460780    0.0003820015    
0.0484775210    0.0193709730    0.0003773646    
0.0487001820    0.0193290570    0.0003714380    
0.0489228430    0.0194223720    0.0003721335    
0.0491455040    0.0196327980    0.0003715562    
0.0493681650    0.0191061430    0.0003696886    
0.0495908260    0.0194573970    0.0003667944    
0.0498134870    0.0199775890    0.0003752032    
0.0500361480    0.0201804360    0.0003761055    
0.0502588090    0.0200086810    0.0003688902    
0.0504814700    0.0197325400    0.0003711249    
0.0507041310    0.0202065900    0.0003710912    
0.0509267920    0.0197556860    0.0003684454    
0.0511494530    0.0194998830    0.0003636115    
0.0513721140    0.0192721380    0.0003646653    
0.0515947750    0.0193758540    0.0003607973    
0.0518174360    0.0192825200    0.0003577591    
0.0520400970    0.0197426500    0.0003594925    
0.0522627580    0.0193672680    0.0003590844    
0.0524854190    0.0197443840    0.0003655114    
0.0527080800    0.0195909130    0.0003669071    
0.0529307410    0.0192551430    0.0003654576    
0.0531534020    0.0202513660    0.0003734279    
0.0533760630    0.0197685960    0.0003701050    
0.0535987240    0.0199688480    0.0003702381    
0.0538213850    0.0197107200    0.0003720991    
0.0540440460    0.0188079030    0.0003617573    
0.0542667070    0.0194489680    0.0003704061    
0.0544893680    0.0196674330    0.0003726791    
0.0547120290    0.0202974320    0.0003760073    
0.0549346900    0.0198725350    0.0003722467    
0.0551573510    0.0197792650    0.0003757439    
0.0553800120    0.0198513890    0.0003732282    
0.0556026730    0.0198057780    0.0003805287    
0.0558253340    0.0196779440    0.0003824747    
0.0560479950    0.0194772430    0.0003805194    
0.0562706560    0.0198329430    0.0003876906    
0.0564933170    0.0194772130    0.0003875343    
0.0567159780    0.0198258690    0.0003862997    
0.0569386390    0.0195286820    0.0003894072    
0.0571613000    0.0199977290    0.0003855712    
0.0573839610    0.0196085360    0.0003786307    
0.0576066220    0.0194305350    0.0003779516    
0.0578292830    0.0196015870    0.0003783554    
0.0580519440    0.0194742200    0.0003785865    
0.0582746050    0.0201855570    0.0003837392    
0.0584972660    0.0199227310    0.0003797735    
0.0587199270    0.0200930170    0.0003781053    
0.0589425880    0.0191202840    0.0003666821    
0.0591652490    0.0196590380    0.0003740002    
0.0593879100    0.0193961600    0.0003687323    
0.0596105710    0.0185438370    0.0003601594    
0.0598332320    0.0193175740    0.0003707385    
0.0600558930    0.0194935130    0.0003700485    
0.0602785540    0.0205108080    0.0003791802    
0.0605012150    0.0192447910    0.0003665176    
0.0607238760    0.0194330930    0.0003656223    
0.0609465370    0.0200058090    0.0003738914    
0.0611691980    0.0191229410    0.0003661276    
0.0613918590    0.0194071560    0.0003648116    
0.0616145200    0.0192399810    0.0003658955    
0.0618371810    0.0192596100    0.0003624867    
0.0620598420    0.0193471980    0.0003636845    
0.0622825030    0.0191259960    0.0003671294    
0.0625051640    0.0191953970    0.0003626294    
0.0627278250    0.0193074520    0.0003629374    
0.0629504860    0.0192632800    0.0003595748    
0.0631731470    0.0194814820    0.0003660795    
0.0633958080    0.0192540690    0.0003660311    
0.0636184690    0.0201947230    0.0003800865    
0.0638411300    0.0196670910    0.0003736803    
0.0640637910    0.0192030900    0.0003718430    
0.0642864520    0.0195072050    0.0003739648    
0.0645091130    0.0196827960    0.0003789360    
0.0647317740    0.0191705520    0.0003743849    
0.0649544350    0.0198871110    0.0003808981    
0.0651770960    0.0200171010    0.0003800563    
0.0653997570    0.0195136630    0.0003744328    
0.0656224180    0.0195120280    0.0003752313    
0.0658450790    0.0205674620    0.0003797088    
0.0660677400    0.0201490360    0.0003774260    
0.0662904010    0.0197787110    0.0003784057    
0.0665130620    0.0194208890    0.0003733406    
0.0667357230    0.0196938620    0.0003826396    
0.0669583840    0.0198133830    0.0003825149    
0.0671810450    0.0200334050    0.0003825092    
0.0674037060    0.0196605200    0.0003853523    
0.0676263670    0.0196490740    0.0003824196    
0.0678490280    0.0196962050    0.0003805364    
0.0680716890    0.0198356570    0.0003827309    
0.0682943500    0.0200536860    0.0003806138    
0.0685170110    0.0194418250    0.0003709434    
0.0687396720    0.0201904840    0.0003770137    
0.0689623330    0.0194891010    0.0003692336    
0.0691849940    0.0193416310    0.0003703826    
0.0694076550    0.0190942680    0.0003678101    
0.0696303160    0.0197205720    0.0003708342    
0.0698529770    0.0195199470    0.0003681698    
0.0700756380    0.0198069840    0.0003661061    
0.0702982990    0.0193901710    0.0003661783    
0.0705209600    0.0201131060    0.0003702496    
0.0707436210    0.0195641210    0.0003634847    
0.0709662820    0.0196875980    0.0003689768    
0.0711889430    0.0194633110    0.0003623630    
0.0714116040    0.0198883310    0.0003670458    
0.0716342650    0.0194382340    0.0003613954    
0.0718569260    0.0198151750    0.0003634130    
0.0720795870    0.0199354960    0.0003659892    
0.0723022480    0.0197671550    0.0003649960    
0.0725249090    0.0191057390    0.0003545402    
0.0727475700    0.0192059840    0.0003585053    
0.0729702310    0.0196779560    0.0003599894    
0.0731928920    0.0191252540    0.0003563162    
0.0734155530    0.0198688870    0.0003624527    
0.0736382140    0.0200193810    0.0003614879    
0.0738608750    0.0202193730    0.0003656360    
0.0740835360    0.0197704090    0.0003606562    
0.0743061970    0.0196652130    0.0003546305    
0.0745288580    0.0194124400    0.0003559669    
0.0747515190    0.0194105560    0.0003566527    
0.0749741800    0.0194066530    0.0003533158    
0.0751968410    0.0197321990    0.0003590641    
0.0754195020    0.0196178990    0.0003559251    
0.0756421630    0.0196669130    0.0003534563    
0.0758648240    0.0196466910    0.0003541238    
0.0760874850    0.0199849280    0.0003569876    
0.0763101460    0.0198893150    0.0003557909    
0.0765328070    0.0195579400    0.0003564247    
0.0767554680    0.0191780770    0.0003505514    
0.0769781290    0.0203011490    0.0003585970    
0.0772007900    0.0193098840    0.0003469277    
0.0774234510    0.0196751710    0.0003521856    
0.0776461120    0.0199210110    0.0003540429    
0.0778687730    0.0196270910    0.0003502605    
0.0780914340    0.0191857820    0.0003487748    
0.0783140950    0.0186739220    0.0003386315    
0.0785367560    0.0194204280    0.0003509016    
0.0787594170    0.0196033010    0.0003493911    
0.0789820780    0.0196556290    0.0003480645    
0.0792047390    0.0195672280    0.0003484163    
0.0794274000    0.0194893840    0.0003491959    
0.0796500610    0.0191108010    0.0003424127    
0.0798727220    0.0194735810    0.0003453284    
0.0800953830    0.0192317250    0.0003423880    
0.0803180440    0.0195933160    0.0003479993    
0.0805407050    0.0194149950    0.0003460899    
0.0807633660    0.0196930230    0.0003482356    
0.0809860270    0.0199023750    0.0003487889    
0.0812086880    0.0198362180    0.0003451996    
0.0814313490    0.0200296900    0.0003484610    
0.0816540100    0.0198178980    0.0003458247    
0.0818766710    0.0199509380    0.0003477758    
0.0820993320    0.0198420450    0.0003461934    
0.0823219930    0.0200486890    0.0003494267    
0.0825446540    0.0195243440    0.0003423217    
0.0827673150    0.0192924930    0.0003379970    
0.0829899760    0.0194598860    0.0003388558    
0.0832126370    0.0193845530    0.0003397141    
0.0834352980    0.0196061640    0.0003408866    
0.0836579590    0.0194776730    0.0003390114    
0.0838806200    0.0195700780    0.0003408780    
0.0841032810    0.0190815700    0.0003345071    
0.0843259420    0.0192964200    0.0003353491    
0.0845486030    0.0197801710    0.0003395269    
0.0847712640    0.0190331860    0.0003310244    
0.0849939250    0.0196483700    0.0003369172    
0.0852165860    0.0195145240    0.0003362075    
0.0854392470    0.0198570690    0.0003359338    
0.0856619080    0.0197527010    0.0003375174    
0.0858845690    0.0193531870    0.0003310778    
0.0861072300    0.0199084270    0.0003381116    
0.0863298910    0.0198099340    0.0003390403    
0.0865525520    0.0195548360    0.0003339415    
0.0867752130    0.0196557550    0.0003321006    
0.0869978740    0.0196037970    0.0003325066    
0.0872205350    0.0192895500    0.0003294112    
0.0874431960    0.0192670780    0.0003292195    
0.0876658570    0.0197497710    0.0003345977    
0.0878885180    0.0192487370    0.0003308926    
0.0881111790    0.0200390580    0.0003371840    
0.0883338400    0.0195722390    0.0003283544    
0.0885565010    0.0189522170    0.0003274933    
0.0887791620    0.0197980740    0.0003303811    
0.0890018230    0.0190092710    0.0003268727    
0.0892244840    0.0196266630    0.0003327031    
0.0894471450    0.0194779850    0.0003300405    
0.0896698060    0.0196698810    0.0003304113    
0.0898924670    0.0198582580    0.0003335286    
0.0901151280    0.0184339670    0.0003178743    
0.0903377890    0.0195241070    0.0003298763    
0.0905604500    0.0192845680    0.0003263419    
0.0907831110    0.0198206670    0.0003300238    
0.0910057720    0.0198144460    0.0003314862    
0.0912284330    0.0198168430    0.0003267598    
0.0914510940    0.0196112390    0.0003286851    
0.0916737550    0.0197058760    0.0003286596    
0.0918964160    0.0189360340    0.0003235157    
0.0921190770    0.0194310130    0.0003247536    
0.0923417380    0.0197891830    0.0003278674    
0.0925643990    0.0193194630    0.0003231601    
0.0927870600    0.0197670910    0.0003282230    
0.0930097210    0.0191317940    0.0003201554    
0.0932323820    0.0201697860    0.0003311421    
