# Diamond Light Source Ltd.
# Data extracted from: /dls/b21/data/2018/cm19678-3/processed/b21-386631_00544.dat
q(1/A)          Column          Error           
0.0035000000    2.0702877000    0.0244206310    
0.0037226610    1.8087293000    0.0223453220    
0.0039453220    1.6120241000    0.0191907630    
0.0041679830    1.2566656000    0.0139149330    
0.0043906440    0.9768916400    0.0117349100    
0.0046133050    0.7769886600    0.0100468000    
0.0048359660    0.5817552600    0.0082231512    
0.0050586270    0.4665843200    0.0072384341    
0.0052812880    0.4248277600    0.0065304041    
0.0055039490    0.3796437100    0.0058699212    
0.0057266100    0.3220107900    0.0052299018    
0.0059492710    0.2600889400    0.0047002319    
0.0061719320    0.2252632000    0.0042151318    
0.0063945930    0.1962569500    0.0039820920    
0.0066172539    0.1815214300    0.0035960705    
0.0068399149    0.1694305600    0.0034195267    
0.0070625759    0.1447445200    0.0031281949    
0.0072852369    0.1270632200    0.0028870549    
0.0075078979    0.1145803300    0.0027281031    
0.0077305589    0.0985058590    0.0024813268    
0.0079532199    0.0978005550    0.0024381662    
0.0081758809    0.0881115740    0.0023357723    
0.0083985419    0.0858069700    0.0021498823    
0.0086212029    0.0770808490    0.0020376363    
0.0088438639    0.0698582070    0.0019242422    
0.0090665249    0.0664517740    0.0018126207    
0.0092891859    0.0647457890    0.0018674944    
0.0095118469    0.0592799140    0.0017184389    
0.0097345079    0.0596286300    0.0016738788    
0.0099571689    0.0526877410    0.0015409989    
0.0101798300    0.0516060510    0.0015250985    
0.0104024910    0.0488399930    0.0014786426    
0.0106251520    0.0474595560    0.0014625458    
0.0108478130    0.0458221860    0.0013995177    
0.0110704740    0.0433945030    0.0012966588    
0.0112931350    0.0428703130    0.0012925886    
0.0115157960    0.0409080760    0.0012552979    
0.0117384570    0.0397146290    0.0012262041    
0.0119611180    0.0348405500    0.0011517931    
0.0121837790    0.0380225350    0.0011830168    
0.0124064400    0.0369130480    0.0011170397    
0.0126291010    0.0360607460    0.0010902499    
0.0128517620    0.0334583810    0.0010527960    
0.0130744230    0.0329639300    0.0010372377    
0.0132970840    0.0330301680    0.0010332022    
0.0135197450    0.0314001260    0.0009929592    
0.0137424060    0.0311425650    0.0009751116    
0.0139650670    0.0294787850    0.0009275747    
0.0141877280    0.0295212810    0.0009302945    
0.0144103890    0.0265866740    0.0008676233    
0.0146330500    0.0298563900    0.0009135907    
0.0148557110    0.0284976940    0.0008888187    
0.0150783720    0.0283285200    0.0008788528    
0.0153010330    0.0282773790    0.0008656791    
0.0155236940    0.0281777690    0.0008590145    
0.0157463550    0.0258695770    0.0008088193    
0.0159690160    0.0271040960    0.0008247514    
0.0161916770    0.0270725220    0.0008196272    
0.0164143380    0.0245620270    0.0007866144    
0.0166369990    0.0263834940    0.0007901233    
0.0168596600    0.0256881610    0.0007727729    
0.0170823210    0.0248568810    0.0007535849    
0.0173049820    0.0251721530    0.0007596599    
0.0175276430    0.0249566780    0.0007643780    
0.0177503040    0.0243674690    0.0007360463    
0.0179729650    0.0252595800    0.0007419667    
0.0181956260    0.0240277970    0.0007097765    
0.0184182870    0.0231787530    0.0006938378    
0.0186409480    0.0229893300    0.0006953704    
0.0188636090    0.0237187760    0.0007018741    
0.0190862700    0.0221746350    0.0006775818    
0.0193089310    0.0225802850    0.0006826856    
0.0195315920    0.0230928760    0.0006669119    
0.0197542530    0.0216342250    0.0006464461    
0.0199769140    0.0223103020    0.0006564694    
0.0201995750    0.0224031270    0.0006475325    
0.0204222360    0.0231320940    0.0006636312    
0.0206448970    0.0223915320    0.0006482814    
0.0208675580    0.0224690640    0.0006360301    
0.0210902190    0.0222991060    0.0006397338    
0.0213128800    0.0211980230    0.0006152760    
0.0215355410    0.0216026200    0.0006137207    
0.0217582020    0.0221082590    0.0006208618    
0.0219808630    0.0214589880    0.0006108740    
0.0222035240    0.0219768800    0.0006125997    
0.0224261850    0.0212855030    0.0005975209    
0.0226488460    0.0225697060    0.0006106615    
0.0228715070    0.0217343250    0.0005977649    
0.0230941680    0.0218329770    0.0005991201    
0.0233168290    0.0217436080    0.0005993820    
0.0235394900    0.0212986380    0.0005866703    
0.0237621510    0.0203662290    0.0005582408    
0.0239848120    0.0214869630    0.0005740583    
0.0242074730    0.0205859390    0.0005573955    
0.0244301340    0.0212834000    0.0005674061    
0.0246527950    0.0211246830    0.0005705208    
0.0248754560    0.0220262450    0.0005694750    
0.0250981170    0.0208231400    0.0005549386    
0.0253207780    0.0207953110    0.0005380097    
0.0255434390    0.0211136110    0.0005478975    
0.0257661000    0.0215652470    0.0005555176    
0.0259887610    0.0208011670    0.0005397895    
0.0262114220    0.0215896980    0.0005528555    
0.0264340830    0.0209511040    0.0005372078    
0.0266567440    0.0212235790    0.0005373488    
0.0268794050    0.0207403250    0.0005290280    
0.0271020660    0.0206396620    0.0005256061    
0.0273247270    0.0210405000    0.0005274982    
0.0275473880    0.0206407200    0.0005214232    
0.0277700490    0.0201370830    0.0005119781    
0.0279927100    0.0208232680    0.0005160855    
0.0282153710    0.0212070500    0.0005233517    
0.0284380320    0.0200682670    0.0005061551    
0.0286606930    0.0205920490    0.0005083295    
0.0288833540    0.0207459340    0.0005111945    
0.0291060150    0.0199270960    0.0005005291    
0.0293286760    0.0206347270    0.0005022414    
0.0295513370    0.0201518980    0.0004909260    
0.0297739980    0.0205980760    0.0005017954    
0.0299966590    0.0204083150    0.0004909477    
0.0302193200    0.0210439410    0.0005057997    
0.0304419810    0.0203405410    0.0004981896    
0.0306646420    0.0202686560    0.0004832725    
0.0308873030    0.0203681020    0.0004823640    
0.0311099640    0.0203477010    0.0004833742    
0.0313326250    0.0201239710    0.0004753841    
0.0315552860    0.0203724070    0.0004845083    
0.0317779470    0.0202463090    0.0004834272    
0.0320006080    0.0210455300    0.0004816781    
0.0322232690    0.0189653750    0.0004591683    
0.0324459300    0.0202712230    0.0004711690    
0.0326685910    0.0196586720    0.0004632307    
0.0328912520    0.0202066270    0.0004711975    
0.0331139130    0.0208724600    0.0004726681    
0.0333365740    0.0204587820    0.0004694802    
0.0335592350    0.0205004960    0.0004654398    
0.0337818960    0.0197926360    0.0004569695    
0.0340045570    0.0191303470    0.0004485455    
0.0342272170    0.0199188000    0.0004558902    
0.0344498780    0.0203398220    0.0004625077    
0.0346725390    0.0198466940    0.0004484055    
0.0348952000    0.0196963990    0.0004446695    
0.0351178610    0.0200088160    0.0004502335    
0.0353405220    0.0198168910    0.0004460278    
0.0355631830    0.0202158960    0.0004487991    
0.0357858440    0.0201660910    0.0004482460    
0.0360085050    0.0199072340    0.0004467055    
0.0362311660    0.0200435520    0.0004429041    
0.0364538270    0.0195593840    0.0004340105    
0.0366764880    0.0199637490    0.0004381557    
0.0368991490    0.0196868200    0.0004329127    
0.0371218100    0.0199056240    0.0004340664    
0.0373444710    0.0199449490    0.0004392266    
0.0375671320    0.0203305440    0.0004428062    
0.0377897930    0.0203989080    0.0004320678    
0.0380124540    0.0194232070    0.0004242534    
0.0382351150    0.0199328940    0.0004297839    
0.0384577760    0.0199045740    0.0004253347    
0.0386804370    0.0197204430    0.0004265937    
0.0389030980    0.0192229370    0.0004179887    
0.0391257590    0.0198056210    0.0004213962    
0.0393484200    0.0196636270    0.0004184698    
0.0395710810    0.0194755430    0.0004170247    
0.0397937420    0.0194666270    0.0004169293    
0.0400164030    0.0200664560    0.0004250261    
0.0402390640    0.0202455180    0.0004212335    
0.0404617250    0.0194963400    0.0004109276    
0.0406843860    0.0196990600    0.0004090676    
0.0409070470    0.0205105570    0.0004217566    
0.0411297080    0.0197583980    0.0004099464    
0.0413523690    0.0180137090    0.0003924378    
0.0415750300    0.0201731460    0.0004188221    
0.0417976910    0.0194979570    0.0004011042    
0.0420203520    0.0194369200    0.0004019807    
0.0422430130    0.0198607960    0.0004078786    
0.0424656740    0.0199918030    0.0004038954    
0.0426883350    0.0191441200    0.0003972014    
0.0429109960    0.0196205210    0.0004033696    
0.0431336570    0.0199501560    0.0004010132    
0.0433563180    0.0197792210    0.0004027361    
0.0435789790    0.0198458610    0.0003970761    
0.0438016400    0.0192913650    0.0003936194    
0.0440243010    0.0201294870    0.0003979994    
0.0442469620    0.0195830260    0.0003949122    
0.0444696230    0.0202967630    0.0004006027    
0.0446922840    0.0192017660    0.0003884896    
0.0449149450    0.0201837810    0.0003929752    
0.0451376060    0.0190779350    0.0003867767    
0.0453602670    0.0193479990    0.0003854214    
0.0455829280    0.0199620420    0.0003910369    
0.0458055890    0.0188703460    0.0003824110    
0.0460282500    0.0195298770    0.0003843451    
0.0462509110    0.0197508400    0.0003841093    
0.0464735720    0.0196834060    0.0003836695    
0.0466962330    0.0191156530    0.0003798145    
0.0469188940    0.0197278020    0.0003847542    
0.0471415550    0.0194609310    0.0003841056    
0.0473642160    0.0197010240    0.0003810564    
0.0475868770    0.0195641450    0.0003778439    
0.0478095380    0.0194149960    0.0003747538    
0.0480321990    0.0196018810    0.0003773782    
0.0482548600    0.0194170420    0.0003739583    
0.0484775210    0.0198339230    0.0003817040    
0.0487001820    0.0196426450    0.0003742984    
0.0489228430    0.0193793000    0.0003715811    
0.0491455040    0.0197164390    0.0003722071    
0.0493681650    0.0196350410    0.0003746299    
0.0495908260    0.0193667960    0.0003658021    
0.0498134870    0.0194133640    0.0003697281    
0.0500361480    0.0198430980    0.0003728088    
0.0502588090    0.0195927080    0.0003648986    
0.0504814700    0.0201083230    0.0003745015    
0.0507041310    0.0189247830    0.0003589936    
0.0509267920    0.0198507250    0.0003691920    
0.0511494530    0.0198646590    0.0003668590    
0.0513721140    0.0198713320    0.0003701519    
0.0515947750    0.0194754440    0.0003615876    
0.0518174360    0.0193078490    0.0003578597    
0.0520400970    0.0192830460    0.0003551501    
0.0522627580    0.0193194730    0.0003585064    
0.0524854190    0.0196687180    0.0003646735    
0.0527080800    0.0197547420    0.0003682997    
0.0529307410    0.0192684200    0.0003654464    
0.0531534020    0.0200159890    0.0003711122    
0.0533760630    0.0195529720    0.0003679429    
0.0535987240    0.0200293180    0.0003706592    
0.0538213850    0.0190291060    0.0003654716    
0.0540440460    0.0193361210    0.0003666645    
0.0542667070    0.0193497870    0.0003693219    
0.0544893680    0.0196526770    0.0003723995    
0.0547120290    0.0195096140    0.0003684997    
0.0549346900    0.0197391760    0.0003708563    
0.0551573510    0.0197715580    0.0003755297    
0.0553800120    0.0196682110    0.0003713628    
0.0556026730    0.0196228890    0.0003786256    
0.0558253340    0.0198414630    0.0003839165    
0.0560479950    0.0197820550    0.0003833415    
0.0562706560    0.0195530140    0.0003848005    
0.0564933170    0.0198401400    0.0003909814    
0.0567159780    0.0198185140    0.0003860831    
0.0569386390    0.0199795730    0.0003937292    
0.0571613000    0.0191581580    0.0003772490    
0.0573839610    0.0194404050    0.0003768624    
0.0576066220    0.0193792260    0.0003773106    
0.0578292830    0.0194555220    0.0003768017    
0.0580519440    0.0194890260    0.0003785883    
0.0582746050    0.0191790220    0.0003739091    
0.0584972660    0.0197269350    0.0003777609    
0.0587199270    0.0191678930    0.0003691598    
0.0589425880    0.0191832330    0.0003671474    
0.0591652490    0.0196016290    0.0003733136    
0.0593879100    0.0203902640    0.0003779216    
0.0596105710    0.0199208910    0.0003731525    
0.0598332320    0.0197509970    0.0003747338    
0.0600558930    0.0196754310    0.0003716317    
0.0602785540    0.0192766210    0.0003674571    
0.0605012150    0.0197046590    0.0003707317    
0.0607238760    0.0197415820    0.0003683746    
0.0609465370    0.0199628690    0.0003733498    
0.0611691980    0.0197600220    0.0003720368    
0.0613918590    0.0196324320    0.0003667852    
0.0616145200    0.0192603110    0.0003659514    
0.0618371810    0.0198246280    0.0003676274    
0.0620598420    0.0194761390    0.0003647575    
0.0622825030    0.0194214880    0.0003698157    
0.0625051640    0.0197560140    0.0003677487    
0.0627278250    0.0194429470    0.0003640720    
0.0629504860    0.0198792770    0.0003651417    
0.0631731470    0.0201130110    0.0003718262    
0.0633958080    0.0195664250    0.0003688497    
0.0636184690    0.0200008640    0.0003781159    
0.0638411300    0.0196523360    0.0003734000    
0.0640637910    0.0197930500    0.0003773700    
0.0642864520    0.0200083590    0.0003785960    
0.0645091130    0.0197992450    0.0003799126    
0.0647317740    0.0195653010    0.0003780779    
0.0649544350    0.0189390860    0.0003715690    
0.0651770960    0.0194973430    0.0003749489    
0.0653997570    0.0196928640    0.0003760070    
0.0656224180    0.0195190200    0.0003751577    
0.0658450790    0.0195153230    0.0003697304    
0.0660677400    0.0191519480    0.0003678309    
0.0662904010    0.0196698260    0.0003772210    
0.0665130620    0.0200087310    0.0003788065    
0.0667357230    0.0194562200    0.0003801813    
0.0669583840    0.0198058970    0.0003822991    
0.0671810450    0.0195221120    0.0003774548    
0.0674037060    0.0199401160    0.0003879371    
0.0676263670    0.0196863920    0.0003826389    
0.0678490280    0.0206070940    0.0003890902    
0.0680716890    0.0198650500    0.0003828707    
0.0682943500    0.0199303620    0.0003792993    
0.0685170110    0.0196040420    0.0003723480    
0.0687396720    0.0198095350    0.0003733000    
0.0689623330    0.0191040020    0.0003654303    
0.0691849940    0.0189727530    0.0003666960    
0.0694076550    0.0196321620    0.0003728148    
0.0696303160    0.0194967330    0.0003685853    
0.0698529770    0.0192901950    0.0003658594    
0.0700756380    0.0191091700    0.0003594643    
0.0702982990    0.0199076930    0.0003708936    
0.0705209600    0.0197098130    0.0003663813    
0.0707436210    0.0196574130    0.0003642136    
0.0709662820    0.0196037270    0.0003680518    
0.0711889430    0.0196172410    0.0003636566    
0.0714116040    0.0191288330    0.0003598342    
0.0716342650    0.0196989250    0.0003636742    
0.0718569260    0.0192208840    0.0003577875    
0.0720795870    0.0198869680    0.0003654063    
0.0723022480    0.0192607040    0.0003601547    
0.0725249090    0.0201301240    0.0003637842    
0.0727475700    0.0200140700    0.0003658323    
0.0729702310    0.0197290000    0.0003603207    
0.0731928920    0.0197676140    0.0003621147    
0.0734155530    0.0192989940    0.0003570828    
0.0736382140    0.0195216990    0.0003568324    
0.0738608750    0.0197945690    0.0003616389    
0.0740835360    0.0204853150    0.0003669813    
0.0743061970    0.0197399230    0.0003551702    
0.0745288580    0.0190456600    0.0003524558    
0.0747515190    0.0195466030    0.0003577660    
0.0749741800    0.0195142180    0.0003541606    
0.0751968410    0.0190383850    0.0003525627    
0.0754195020    0.0192999050    0.0003528962    
0.0756421630    0.0190427880    0.0003476722    
0.0758648240    0.0198870760    0.0003561499    
0.0760874850    0.0194856590    0.0003523679    
0.0763101460    0.0201542230    0.0003580181    
0.0765328070    0.0195562480    0.0003562755    
0.0767554680    0.0200216680    0.0003580439    
0.0769781290    0.0194820760    0.0003511567    
0.0772007900    0.0194822460    0.0003483419    
0.0774234510    0.0191627560    0.0003474388    
0.0776461120    0.0194030690    0.0003492790    
0.0778687730    0.0192063770    0.0003463561    
0.0780914340    0.0199823390    0.0003558078    
0.0783140950    0.0193164750    0.0003442790    
0.0785367560    0.0197923270    0.0003541126    
0.0787594170    0.0187921060    0.0003419574    
0.0789820780    0.0195423390    0.0003469297    
0.0792047390    0.0191991870    0.0003449946    
0.0794274000    0.0194372490    0.0003485976    
0.0796500610    0.0200160350    0.0003502970    
0.0798727220    0.0196180690    0.0003464771    
0.0800953830    0.0194061190    0.0003438079    
0.0803180440    0.0199306590    0.0003508506    
0.0805407050    0.0195175580    0.0003468726    
0.0807633660    0.0193644290    0.0003451885    
0.0809860270    0.0196614490    0.0003465413    
0.0812086880    0.0193170980    0.0003405249    
0.0814313490    0.0193119680    0.0003420325    
0.0816540100    0.0187115710    0.0003359072    
0.0818766710    0.0193483700    0.0003423552    
0.0820993320    0.0191330560    0.0003398245    
0.0823219930    0.0196259140    0.0003455931    
0.0825446540    0.0194857050    0.0003418545    
0.0827673150    0.0195383720    0.0003400164    
0.0829899760    0.0191917540    0.0003363870    
0.0832126370    0.0196317660    0.0003417452    
0.0834352980    0.0190051320    0.0003354950    
0.0836579590    0.0196989040    0.0003408033    
0.0838806200    0.0193774020    0.0003390685    
0.0841032810    0.0195067260    0.0003380862    
0.0843259420    0.0196546520    0.0003383206    
0.0845486030    0.0192470290    0.0003347942    
0.0847712640    0.0195999430    0.0003357908    
0.0849939250    0.0198356790    0.0003383923    
0.0852165860    0.0196040670    0.0003368516    
0.0854392470    0.0191834150    0.0003300624    
0.0856619080    0.0194612620    0.0003348925    
0.0858845690    0.0189821150    0.0003277654    
0.0861072300    0.0194401910    0.0003339864    
0.0863298910    0.0201081740    0.0003414547    
0.0865525520    0.0193635100    0.0003321792    
0.0867752130    0.0190018200    0.0003264070    
0.0869978740    0.0193862100    0.0003305321    
0.0872205350    0.0198709240    0.0003342130    
0.0874431960    0.0203318940    0.0003380676    
0.0876658570    0.0191911650    0.0003297081    
0.0878885180    0.0195014380    0.0003329326    
0.0881111790    0.0194117370    0.0003317397    
0.0883338400    0.0195410420    0.0003279696    
0.0885565010    0.0189549620    0.0003273942    
0.0887791620    0.0190119440    0.0003236339    
0.0890018230    0.0189500760    0.0003262409    
0.0892244840    0.0197979130    0.0003340260    
0.0894471450    0.0197148350    0.0003319165    
0.0896698060    0.0186180150    0.0003213348    
0.0898924670    0.0195970660    0.0003312036    
0.0901151280    0.0193019800    0.0003251501    
0.0903377890    0.0195595820    0.0003300520    
0.0905604500    0.0198108990    0.0003306412    
0.0907831110    0.0194049580    0.0003264220    
0.0910057720    0.0194338440    0.0003281639    
0.0912284330    0.0198396620    0.0003268252    
0.0914510940    0.0193102830    0.0003260310    
0.0916737550    0.0197677740    0.0003290518    
0.0918964160    0.0195017430    0.0003281894    
0.0921190770    0.0195140590    0.0003253247    
0.0923417380    0.0199697440    0.0003292362    
0.0925643990    0.0198235120    0.0003272258    
0.0927870600    0.0192240080    0.0003235613    
0.0930097210    0.0203112760    0.0003297528    
0.0932323820    0.0192637200    0.0003234974    
