# Diamond Light Source Ltd.
# Data extracted from: /dls/b21/data/2018/cm19678-3/processed/b21-386631_00545.dat
q(1/A)          Column          Error           
0.0035000000    2.0584852000    0.0243543770    
0.0037226610    1.8282960000    0.0224690500    
0.0039453220    1.6335060000    0.0193209500    
0.0041679830    1.2933952000    0.0141188230    
0.0043906440    0.9619403000    0.0116464150    
0.0046133050    0.7803279000    0.0100697950    
0.0048359660    0.5998256200    0.0083510723    
0.0050586270    0.4635716100    0.0072160510    
0.0052812880    0.4267557700    0.0065461347    
0.0055039490    0.3666785000    0.0057696373    
0.0057266100    0.3187885600    0.0052044077    
0.0059492710    0.2700186900    0.0047897946    
0.0061719320    0.2246170800    0.0042096795    
0.0063945930    0.1964743000    0.0039848618    
0.0066172539    0.1815729500    0.0035970912    
0.0068399149    0.1714806400    0.0034406405    
0.0070625759    0.1510071300    0.0031956049    
0.0072852369    0.1286084600    0.0029049691    
0.0075078979    0.1146778200    0.0027296508    
0.0077305589    0.1013472800    0.0025172167    
0.0079532199    0.0989835270    0.0024532156    
0.0081758809    0.0880746450    0.0023356142    
0.0083985419    0.0809820970    0.0020888609    
0.0086212029    0.0785574960    0.0020573533    
0.0088438639    0.0679693780    0.0018983194    
0.0090665249    0.0656793170    0.0018023104    
0.0092891859    0.0636326790    0.0018516345    
0.0095118469    0.0564564750    0.0016772539    
0.0097345079    0.0583765000    0.0016564459    
0.0099571689    0.0534240320    0.0015519491    
0.0101798300    0.0515305310    0.0015241984    
0.0104024910    0.0471970330    0.0014537656    
0.0106251520    0.0451737630    0.0014270934    
0.0108478130    0.0446807600    0.0013821730    
0.0110704740    0.0432517950    0.0012947086    
0.0112931350    0.0451045730    0.0013260317    
0.0115157960    0.0384922470    0.0012178408    
0.0117384570    0.0373400750    0.0011891502    
0.0119611180    0.0382021750    0.0012062508    
0.0121837790    0.0362660470    0.0011555323    
0.0124064400    0.0367206490    0.0011142828    
0.0126291010    0.0362358390    0.0010930486    
0.0128517620    0.0334347410    0.0010525734    
0.0130744230    0.0332671070    0.0010421445    
0.0132970840    0.0333951540    0.0010390425    
0.0135197450    0.0315346740    0.0009952255    
0.0137424060    0.0298076190    0.0009541186    
0.0139650670    0.0291076140    0.0009218474    
0.0141877280    0.0287085770    0.0009175301    
0.0144103890    0.0299645210    0.0009212224    
0.0146330500    0.0284666970    0.0008922020    
0.0148557110    0.0277570900    0.0008773177    
0.0150783720    0.0295092960    0.0008971090    
0.0153010330    0.0278877650    0.0008598166    
0.0155236940    0.0279762070    0.0008560580    
0.0157463550    0.0276728730    0.0008366534    
0.0159690160    0.0273879270    0.0008291761    
0.0161916770    0.0252930610    0.0007923450    
0.0164143380    0.0268117070    0.0008219656    
0.0166369990    0.0243081070    0.0007585180    
0.0168596600    0.0255326760    0.0007705399    
0.0170823210    0.0257780510    0.0007675303    
0.0173049820    0.0241244280    0.0007437880    
0.0175276430    0.0238865260    0.0007479161    
0.0177503040    0.0251750040    0.0007482493    
0.0179729650    0.0252667490    0.0007421773    
0.0181956260    0.0247686580    0.0007207382    
0.0184182870    0.0229360270    0.0006902933    
0.0186409480    0.0231641680    0.0006981087    
0.0188636090    0.0247227270    0.0007166760    
0.0190862700    0.0233821370    0.0006958846    
0.0193089310    0.0232473650    0.0006927947    
0.0195315920    0.0229453060    0.0006648719    
0.0197542530    0.0227417050    0.0006628798    
0.0199769140    0.0218722340    0.0006500847    
0.0201995750    0.0222784360    0.0006458196    
0.0204222360    0.0240527790    0.0006768050    
0.0206448970    0.0222101430    0.0006457419    
0.0208675580    0.0218451210    0.0006272260    
0.0210902190    0.0227093200    0.0006456829    
0.0213128800    0.0218649910    0.0006249692    
0.0215355410    0.0219226800    0.0006183381    
0.0217582020    0.0214692360    0.0006119100    
0.0219808630    0.0215520520    0.0006122841    
0.0222035240    0.0216073380    0.0006075136    
0.0224261850    0.0209392020    0.0005927244    
0.0226488460    0.0212704650    0.0005929086    
0.0228715070    0.0209346810    0.0005867487    
0.0230941680    0.0212307020    0.0005908827    
0.0233168290    0.0215183990    0.0005963545    
0.0235394900    0.0207389290    0.0005789926    
0.0237621510    0.0201730340    0.0005556656    
0.0239848120    0.0214163550    0.0005731956    
0.0242074730    0.0214522890    0.0005690843    
0.0244301340    0.0224091410    0.0005823012    
0.0246527950    0.0209457280    0.0005681797    
0.0248754560    0.0198822670    0.0005411268    
0.0250981170    0.0204444230    0.0005499470    
0.0253207780    0.0205088270    0.0005343668    
0.0255434390    0.0212191580    0.0005493432    
0.0257661000    0.0205693800    0.0005426163    
0.0259887610    0.0214235760    0.0005478835    
0.0262114220    0.0212984410    0.0005491916    
0.0264340830    0.0204748040    0.0005311416    
0.0266567440    0.0218147780    0.0005448589    
0.0268794050    0.0205572420    0.0005267626    
0.0271020660    0.0210739610    0.0005311826    
0.0273247270    0.0208877310    0.0005256543    
0.0275473880    0.0200668400    0.0005141964    
0.0277700490    0.0211063200    0.0005242290    
0.0279927100    0.0212130080    0.0005209668    
0.0282153710    0.0209030120    0.0005196604    
0.0284380320    0.0204570540    0.0005111070    
0.0286606930    0.0205476860    0.0005078536    
0.0288833540    0.0200714340    0.0005028871    
0.0291060150    0.0201968450    0.0005039770    
0.0293286760    0.0199191420    0.0004935261    
0.0295513370    0.0197987280    0.0004866742    
0.0297739980    0.0197479730    0.0004914013    
0.0299966590    0.0202369010    0.0004889510    
0.0302193200    0.0207459000    0.0005022764    
0.0304419810    0.0200655910    0.0004948813    
0.0306646420    0.0200899910    0.0004812060    
0.0308873030    0.0205452840    0.0004845262    
0.0311099640    0.0206176580    0.0004866392    
0.0313326250    0.0204105100    0.0004788245    
0.0315552860    0.0201476670    0.0004818968    
0.0317779470    0.0200442240    0.0004810768    
0.0320006080    0.0196620380    0.0004656428    
0.0322232690    0.0201939600    0.0004738748    
0.0324459300    0.0199045200    0.0004669542    
0.0326685910    0.0199590520    0.0004668225    
0.0328912520    0.0197727250    0.0004661771    
0.0331139130    0.0200111280    0.0004628784    
0.0333365740    0.0196455740    0.0004601203    
0.0335592350    0.0213730760    0.0004753095    
0.0337818960    0.0199037880    0.0004583159    
0.0340045570    0.0205033700    0.0004644290    
0.0342272170    0.0197992080    0.0004545840    
0.0344498780    0.0203455950    0.0004626389    
0.0346725390    0.0204299600    0.0004550114    
0.0348952000    0.0198927840    0.0004469442    
0.0351178610    0.0204097180    0.0004547862    
0.0353405220    0.0198325580    0.0004462674    
0.0355631830    0.0197233180    0.0004433606    
0.0357858440    0.0200522190    0.0004470421    
0.0360085050    0.0200131500    0.0004479558    
0.0362311660    0.0202058760    0.0004447570    
0.0364538270    0.0199984280    0.0004389168    
0.0366764880    0.0197193170    0.0004355269    
0.0368991490    0.0200256930    0.0004366846    
0.0371218100    0.0202899950    0.0004382994    
0.0373444710    0.0202698970    0.0004428529    
0.0375671320    0.0200372500    0.0004396630    
0.0377897930    0.0193977360    0.0004213913    
0.0380124540    0.0195399530    0.0004255869    
0.0382351150    0.0195214280    0.0004253852    
0.0384577760    0.0199374980    0.0004257467    
0.0386804370    0.0202521910    0.0004323682    
0.0389030980    0.0205648340    0.0004323933    
0.0391257590    0.0203941900    0.0004276724    
0.0393484200    0.0199542690    0.0004216109    
0.0395710810    0.0200973900    0.0004236902    
0.0397937420    0.0196865240    0.0004193371    
0.0400164030    0.0203513060    0.0004280929    
0.0402390640    0.0201635970    0.0004204401    
0.0404617250    0.0203855660    0.0004202540    
0.0406843860    0.0201125090    0.0004133968    
0.0409070470    0.0191977780    0.0004080940    
0.0411297080    0.0199767050    0.0004122634    
0.0413523690    0.0195923680    0.0004093308    
0.0415750300    0.0191003460    0.0004075914    
0.0417976910    0.0194292080    0.0004004533    
0.0420203520    0.0201991780    0.0004098453    
0.0422430130    0.0190871930    0.0003999127    
0.0424656740    0.0200464510    0.0004045045    
0.0426883350    0.0199161950    0.0004051893    
0.0429109960    0.0191283870    0.0003983352    
0.0431336570    0.0201332030    0.0004029059    
0.0433563180    0.0191122160    0.0003959434    
0.0435789790    0.0195812980    0.0003944765    
0.0438016400    0.0206384610    0.0004071883    
0.0440243010    0.0194582540    0.0003913629    
0.0442469620    0.0195646860    0.0003947832    
0.0444696230    0.0196618910    0.0003943435    
0.0446922840    0.0194902530    0.0003914526    
0.0449149450    0.0200670560    0.0003918928    
0.0451376060    0.0196794600    0.0003928826    
0.0453602670    0.0199602070    0.0003915272    
0.0455829280    0.0198451130    0.0003899453    
0.0458055890    0.0199997170    0.0003937440    
0.0460282500    0.0202012280    0.0003909508    
0.0462509110    0.0190167000    0.0003769565    
0.0464735720    0.0196515900    0.0003834137    
0.0466962330    0.0192569560    0.0003812698    
0.0469188940    0.0200336430    0.0003877802    
0.0471415550    0.0204674560    0.0003939693    
0.0473642160    0.0193748540    0.0003779425    
0.0475868770    0.0206062130    0.0003878312    
0.0478095380    0.0197316400    0.0003778510    
0.0480321990    0.0199126750    0.0003804121    
0.0482548600    0.0188894420    0.0003688950    
0.0484775210    0.0196117650    0.0003796141    
0.0487001820    0.0202332440    0.0003799377    
0.0489228430    0.0192921530    0.0003707973    
0.0491455040    0.0198415210    0.0003734389    
0.0493681650    0.0197836110    0.0003760980    
0.0495908260    0.0190751070    0.0003630885    
0.0498134870    0.0193413960    0.0003690945    
0.0500361480    0.0200589180    0.0003748839    
0.0502588090    0.0193739390    0.0003629071    
0.0504814700    0.0194651910    0.0003685162    
0.0507041310    0.0197339540    0.0003666400    
0.0509267920    0.0194442590    0.0003654445    
0.0511494530    0.0198702970    0.0003669631    
0.0513721140    0.0200769830    0.0003721152    
0.0515947750    0.0196085610    0.0003628727    
0.0518174360    0.0196981360    0.0003615098    
0.0520400970    0.0197268940    0.0003592651    
0.0522627580    0.0198107420    0.0003630875    
0.0524854190    0.0193834800    0.0003620709    
0.0527080800    0.0196573230    0.0003674426    
0.0529307410    0.0200781230    0.0003730988    
0.0531534020    0.0195192350    0.0003665301    
0.0533760630    0.0186373870    0.0003592760    
0.0535987240    0.0195684340    0.0003664218    
0.0538213850    0.0193925890    0.0003689979    
0.0540440460    0.0192998800    0.0003663727    
0.0542667070    0.0192918190    0.0003688206    
0.0544893680    0.0192065030    0.0003682002    
0.0547120290    0.0196822450    0.0003701790    
0.0549346900    0.0199399260    0.0003727903    
0.0551573510    0.0202337850    0.0003799479    
0.0553800120    0.0195615720    0.0003704073    
0.0556026730    0.0198038430    0.0003804213    
0.0558253340    0.0195424400    0.0003810666    
0.0560479950    0.0192972500    0.0003786687    
0.0562706560    0.0193010150    0.0003823670    
0.0564933170    0.0197687010    0.0003903322    
0.0567159780    0.0196059610    0.0003840616    
0.0569386390    0.0200085270    0.0003940703    
0.0571613000    0.0200404100    0.0003858923    
0.0573839610    0.0194020760    0.0003765442    
0.0576066220    0.0194435120    0.0003779895    
0.0578292830    0.0190595600    0.0003730005    
0.0580519440    0.0199800820    0.0003833826    
0.0582746050    0.0205553060    0.0003871475    
0.0584972660    0.0204561330    0.0003847340    
0.0587199270    0.0192302270    0.0003698121    
0.0589425880    0.0196877240    0.0003719966    
0.0591652490    0.0196640870    0.0003739609    
0.0593879100    0.0197444420    0.0003719413    
0.0596105710    0.0191924090    0.0003663180    
0.0598332320    0.0199059510    0.0003762543    
0.0600558930    0.0194212230    0.0003692755    
0.0602785540    0.0197935720    0.0003724045    
0.0605012150    0.0198846790    0.0003724742    
0.0607238760    0.0198434460    0.0003693762    
0.0609465370    0.0193050130    0.0003671987    
0.0611691980    0.0197586240    0.0003720764    
0.0613918590    0.0197613850    0.0003680400    
0.0616145200    0.0195439840    0.0003686888    
0.0618371810    0.0200962040    0.0003701894    
0.0620598420    0.0198848310    0.0003686170    
0.0622825030    0.0190325440    0.0003661459    
0.0625051640    0.0199875850    0.0003699502    
0.0627278250    0.0195302960    0.0003649407    
0.0629504860    0.0195964400    0.0003625863    
0.0631731470    0.0196511620    0.0003675845    
0.0633958080    0.0196902170    0.0003700672    
0.0636184690    0.0194345170    0.0003727769    
0.0638411300    0.0197998480    0.0003748519    
0.0640637910    0.0197770770    0.0003772713    
0.0642864520    0.0193691170    0.0003725519    
0.0645091130    0.0199215360    0.0003811382    
0.0647317740    0.0195489310    0.0003779733    
0.0649544350    0.0203007630    0.0003847492    
0.0651770960    0.0203034760    0.0003826760    
0.0653997570    0.0194614680    0.0003738445    
0.0656224180    0.0191350780    0.0003715024    
0.0658450790    0.0197380720    0.0003718873    
0.0660677400    0.0198569710    0.0003745932    
0.0662904010    0.0188794200    0.0003696167    
0.0665130620    0.0190316230    0.0003694938    
0.0667357230    0.0197292570    0.0003828939    
0.0669583840    0.0200551020    0.0003847513    
0.0671810450    0.0196882540    0.0003791113    
0.0674037060    0.0196513450    0.0003851724    
0.0676263670    0.0200565080    0.0003862739    
0.0678490280    0.0187978280    0.0003716699    
0.0680716890    0.0185198950    0.0003697330    
0.0682943500    0.0189540200    0.0003699446    
0.0685170110    0.0194610490    0.0003710402    
0.0687396720    0.0190340910    0.0003659725    
0.0689623330    0.0193821160    0.0003681329    
0.0691849940    0.0193113360    0.0003700060    
0.0694076550    0.0196448160    0.0003729879    
0.0696303160    0.0196207580    0.0003698082    
0.0698529770    0.0189139210    0.0003623250    
0.0700756380    0.0196895190    0.0003649337    
0.0702982990    0.0197198080    0.0003691916    
0.0705209600    0.0198993450    0.0003681909    
0.0707436210    0.0189542340    0.0003576907    
0.0709662820    0.0193811950    0.0003660088    
0.0711889430    0.0195081740    0.0003626957    
0.0714116040    0.0200009240    0.0003679974    
0.0716342650    0.0198388340    0.0003650152    
0.0718569260    0.0192729730    0.0003583229    
0.0720795870    0.0195299520    0.0003621629    
0.0723022480    0.0190977600    0.0003586790    
0.0725249090    0.0195768730    0.0003588012    
0.0727475700    0.0193709310    0.0003599575    
0.0729702310    0.0191026710    0.0003546054    
0.0731928920    0.0197533190    0.0003620351    
0.0734155530    0.0197208290    0.0003610154    
0.0736382140    0.0198665040    0.0003600210    
0.0738608750    0.0197605340    0.0003613791    
0.0740835360    0.0199058570    0.0003618051    
0.0743061970    0.0198094480    0.0003558456    
0.0745288580    0.0197687430    0.0003591350    
0.0747515190    0.0192180940    0.0003547973    
0.0749741800    0.0194811800    0.0003539109    
0.0751968410    0.0191286890    0.0003534480    
0.0754195020    0.0197636520    0.0003571615    
0.0756421630    0.0192894700    0.0003499664    
0.0758648240    0.0198672010    0.0003560224    
0.0760874850    0.0197079000    0.0003544219    
0.0763101460    0.0194283590    0.0003515617    
0.0765328070    0.0194514260    0.0003553698    
0.0767554680    0.0199825180    0.0003577445    
0.0769781290    0.0200954060    0.0003566920    
0.0772007900    0.0192634920    0.0003464298    
0.0774234510    0.0199117340    0.0003542139    
0.0776461120    0.0190312210    0.0003459650    
0.0778687730    0.0197616300    0.0003513769    
0.0780914340    0.0199943470    0.0003559652    
0.0783140950    0.0193587850    0.0003447047    
0.0785367560    0.0189424000    0.0003464751    
0.0787594170    0.0189903940    0.0003438055    
0.0789820780    0.0195170820    0.0003467547    
0.0792047390    0.0195332920    0.0003480328    
0.0794274000    0.0197054220    0.0003510440    
0.0796500610    0.0192797170    0.0003438424    
0.0798727220    0.0192318980    0.0003430987    
0.0800953830    0.0198807710    0.0003480364    
0.0803180440    0.0193864770    0.0003460767    
0.0805407050    0.0195970960    0.0003476280    
0.0807633660    0.0196715220    0.0003479642    
0.0809860270    0.0194043140    0.0003443167    
0.0812086880    0.0191724670    0.0003392959    
0.0814313490    0.0193962220    0.0003428264    
0.0816540100    0.0193019730    0.0003412139    
0.0818766710    0.0190630080    0.0003398694    
0.0820993320    0.0196999630    0.0003448712    
0.0823219930    0.0199906340    0.0003488390    
0.0825446540    0.0185853640    0.0003339107    
0.0827673150    0.0194906480    0.0003396491    
0.0829899760    0.0199757050    0.0003432373    
0.0832126370    0.0193398030    0.0003392426    
0.0834352980    0.0198576760    0.0003429860    
0.0836579590    0.0197280860    0.0003411041    
0.0838806200    0.0195075320    0.0003402534    
0.0841032810    0.0201452830    0.0003436241    
0.0843259420    0.0189670250    0.0003323969    
0.0845486030    0.0197418140    0.0003391183    
0.0847712640    0.0189494950    0.0003302188    
0.0849939250    0.0199510250    0.0003394229    
0.0852165860    0.0197485830    0.0003381389    
0.0854392470    0.0191150120    0.0003295202    
0.0856619080    0.0194149050    0.0003345409    
0.0858845690    0.0199046100    0.0003356829    
0.0861072300    0.0199393130    0.0003382948    
0.0863298910    0.0192149040    0.0003338316    
0.0865525520    0.0197623140    0.0003356301    
0.0867752130    0.0195400210    0.0003310442    
0.0869978740    0.0197750370    0.0003338778    
0.0872205350    0.0193986270    0.0003302641    
0.0874431960    0.0194548850    0.0003307430    
0.0876658570    0.0187659910    0.0003260816    
0.0878885180    0.0198367330    0.0003358301    
0.0881111790    0.0196610960    0.0003339111    
0.0883338400    0.0196401900    0.0003288472    
0.0885565010    0.0195316410    0.0003323842    
0.0887791620    0.0193920660    0.0003268997    
0.0890018230    0.0195622090    0.0003315152    
0.0892244840    0.0189635870    0.0003269584    
0.0894471450    0.0195862780    0.0003308795    
0.0896698060    0.0195109160    0.0003289967    
0.0898924670    0.0194066580    0.0003296374    
0.0901151280    0.0197457660    0.0003289134    
0.0903377890    0.0195261380    0.0003298165    
0.0905604500    0.0197226820    0.0003299510    
0.0907831110    0.0200036550    0.0003314663    
0.0910057720    0.0196389090    0.0003299376    
0.0912284330    0.0200283980    0.0003284227    
0.0914510940    0.0197782850    0.0003300050    
0.0916737550    0.0201404710    0.0003321864    
0.0918964160    0.0194686060    0.0003279570    
0.0921190770    0.0195033220    0.0003252813    
0.0923417380    0.0188460600    0.0003198846    
0.0925643990    0.0188836070    0.0003194194    
0.0927870600    0.0194637040    0.0003256184    
0.0930097210    0.0198618620    0.0003261306    
0.0932323820    0.0191713740    0.0003227669    
