# Diamond Light Source Ltd.
# Data extracted from: /dls/b21/data/2018/cm19678-3/processed/b21-386631_00562.dat
q(1/A)          Column          Error           
0.0035000000    2.0521016000    0.0243385440    
0.0037226610    1.8299398000    0.0224994490    
0.0039453220    1.5995985000    0.0191366360    
0.0041679830    1.2801378000    0.0140589620    
0.0043906440    0.9744142600    0.0117322700    
0.0046133050    0.7547904100    0.0099125928    
0.0048359660    0.5851849500    0.0082559743    
0.0050586270    0.4636215500    0.0072229566    
0.0052812880    0.4276274900    0.0065587346    
0.0055039490    0.3821656700    0.0058955408    
0.0057266100    0.3157896100    0.0051845478    
0.0059492710    0.2678679300    0.0047749887    
0.0061719320    0.2215452500    0.0041845705    
0.0063945930    0.1941574200    0.0039648742    
0.0066172539    0.1791882300    0.0035766186    
0.0068399149    0.1670185400    0.0033986474    
0.0070625759    0.1466054100    0.0031515295    
0.0072852369    0.1216757200    0.0028281388    
0.0075078979    0.1161217600    0.0027492624    
0.0077305589    0.0987744970    0.0024873046    
0.0079532199    0.0987360100    0.0024523591    
0.0081758809    0.0873651040    0.0023282878    
0.0083985419    0.0810204710    0.0020912426    
0.0086212029    0.0804267300    0.0020835661    
0.0088438639    0.0728724580    0.0019673714    
0.0090665249    0.0649061560    0.0017932888    
0.0092891859    0.0622902620    0.0018336534    
0.0095118469    0.0596534810    0.0017256465    
0.0097345079    0.0585761560    0.0016607746    
0.0099571689    0.0533850710    0.0015527841    
0.0101798300    0.0496815470    0.0014979550    
0.0104024910    0.0484038120    0.0014735635    
0.0106251520    0.0472878170    0.0014614230    
0.0108478130    0.0456181750    0.0013978582    
0.0110704740    0.0431358170    0.0012941392    
0.0112931350    0.0430771310    0.0012970568    
0.0115157960    0.0383301980    0.0012163721    
0.0117384570    0.0405185190    0.0012398465    
0.0119611180    0.0364778380    0.0011797776    
0.0121837790    0.0373274690    0.0011733789    
0.0124064400    0.0345852010    0.0010823742    
0.0126291010    0.0351452230    0.0010774459    
0.0128517620    0.0340262980    0.0010628030    
0.0130744230    0.0316265170    0.0010170402    
0.0132970840    0.0316418400    0.0010123121    
0.0135197450    0.0306162160    0.0009815108    
0.0137424060    0.0304122030    0.0009646165    
0.0139650670    0.0315000460    0.0009598499    
0.0141877280    0.0298180370    0.0009359357    
0.0144103890    0.0299902920    0.0009224508    
0.0146330500    0.0288823150    0.0008995031    
0.0148557110    0.0271960970    0.0008691910    
0.0150783720    0.0278686410    0.0008726010    
0.0153010330    0.0274601270    0.0008539693    
0.0155236940    0.0276593670    0.0008519653    
0.0157463550    0.0268106060    0.0008242592    
0.0159690160    0.0270098850    0.0008241772    
0.0161916770    0.0256868920    0.0007992109    
0.0164143380    0.0253454840    0.0007998964    
0.0166369990    0.0253005020    0.0007745455    
0.0168596600    0.0249265290    0.0007620262    
0.0170823210    0.0241762500    0.0007439727    
0.0173049820    0.0244666730    0.0007497218    
0.0175276430    0.0244458180    0.0007573048    
0.0177503040    0.0247526220    0.0007426158    
0.0179729650    0.0241330520    0.0007259908    
0.0181956260    0.0239309720    0.0007090853    
0.0184182870    0.0222698320    0.0006808086    
0.0186409480    0.0241755770    0.0007138306    
0.0188636090    0.0235394360    0.0006999464    
0.0190862700    0.0227189580    0.0006865645    
0.0193089310    0.0231652720    0.0006921949    
0.0195315920    0.0225621580    0.0006598928    
0.0197542530    0.0237893450    0.0006785886    
0.0199769140    0.0223569600    0.0006578422    
0.0201995750    0.0236315560    0.0006657437    
0.0204222360    0.0219975980    0.0006478293    
0.0206448970    0.0221186170    0.0006449920    
0.0208675580    0.0225340950    0.0006376156    
0.0210902190    0.0217756020    0.0006328406    
0.0213128800    0.0217613330    0.0006240490    
0.0215355410    0.0210712210    0.0006067588    
0.0217582020    0.0226437090    0.0006289919    
0.0219808630    0.0215909950    0.0006133905    
0.0222035240    0.0217661640    0.0006102929    
0.0224261850    0.0218342730    0.0006058068    
0.0226488460    0.0217228250    0.0005997212    
0.0228715070    0.0214832300    0.0005949230    
0.0230941680    0.0215326630    0.0005956072    
0.0233168290    0.0223685770    0.0006085702    
0.0235394900    0.0211164690    0.0005847665    
0.0237621510    0.0210221580    0.0005677519    
0.0239848120    0.0208710330    0.0005663620    
0.0242074730    0.0220052640    0.0005768928    
0.0244301340    0.0209641070    0.0005637224    
0.0246527950    0.0212151820    0.0005723391    
0.0248754560    0.0215559110    0.0005639509    
0.0250981170    0.0211927300    0.0005604268    
0.0253207780    0.0215641130    0.0005484371    
0.0255434390    0.0209867940    0.0005468204    
0.0257661000    0.0208933480    0.0005473665    
0.0259887610    0.0210271460    0.0005432809    
0.0262114220    0.0216206610    0.0005538300    
0.0264340830    0.0208844920    0.0005369137    
0.0266567440    0.0201227650    0.0005237747    
0.0268794050    0.0204726880    0.0005261528    
0.0271020660    0.0202804360    0.0005215565    
0.0273247270    0.0212832880    0.0005310873    
0.0275473880    0.0205122890    0.0005203417    
0.0277700490    0.0212488100    0.0005264705    
0.0279927100    0.0213282440    0.0005228516    
0.0282153710    0.0212255150    0.0005241267    
0.0284380320    0.0205707750    0.0005129885    
0.0286606930    0.0210249290    0.0005141814    
0.0288833540    0.0211553730    0.0005167538    
0.0291060150    0.0200821560    0.0005029979    
0.0293286760    0.0209841290    0.0005070050    
0.0295513370    0.0211647930    0.0005036382    
0.0297739980    0.0200286550    0.0004953280    
0.0299966590    0.0198710760    0.0004849490    
0.0302193200    0.0205153710    0.0004999290    
0.0304419810    0.0203097140    0.0004983323    
0.0306646420    0.0202533090    0.0004835943    
0.0308873030    0.0204450390    0.0004837792    
0.0311099640    0.0209886130    0.0004914409    
0.0313326250    0.0205711780    0.0004811395    
0.0315552860    0.0204265590    0.0004856588    
0.0317779470    0.0201498450    0.0004827782    
0.0320006080    0.0205924080    0.0004769624    
0.0322232690    0.0200967680    0.0004731599    
0.0324459300    0.0213013120    0.0004834968    
0.0326685910    0.0201373140    0.0004693260    
0.0328912520    0.0205131450    0.0004752540    
0.0331139130    0.0202296330    0.0004658190    
0.0333365740    0.0208254470    0.0004741636    
0.0335592350    0.0202680450    0.0004632772    
0.0337818960    0.0204155160    0.0004645893    
0.0340045570    0.0201926330    0.0004613125    
0.0342272170    0.0196049530    0.0004527570    
0.0344498780    0.0206352940    0.0004663418    
0.0346725390    0.0194110450    0.0004439203    
0.0348952000    0.0198180700    0.0004465070    
0.0351178610    0.0197765500    0.0004480805    
0.0353405220    0.0197677950    0.0004459405    
0.0355631830    0.0208073100    0.0004557924    
0.0357858440    0.0200385310    0.0004472931    
0.0360085050    0.0202602530    0.0004511198    
0.0362311660    0.0195754860    0.0004381596    
0.0364538270    0.0205460440    0.0004452874    
0.0366764880    0.0201404110    0.0004405500    
0.0368991490    0.0199092430    0.0004358063    
0.0371218100    0.0199567370    0.0004350775    
0.0373444710    0.0201999020    0.0004424869    
0.0375671320    0.0202184260    0.0004420450    
0.0377897930    0.0192860550    0.0004205559    
0.0380124540    0.0208846120    0.0004403841    
0.0382351150    0.0199002900    0.0004298811    
0.0384577760    0.0199826310    0.0004266133    
0.0386804370    0.0201870650    0.0004320622    
0.0389030980    0.0195363730    0.0004218230    
0.0391257590    0.0189665470    0.0004128042    
0.0393484200    0.0195084160    0.0004172506    
0.0395710810    0.0194715300    0.0004174175    
0.0397937420    0.0199368560    0.0004223759    
0.0400164030    0.0201264630    0.0004261060    
0.0402390640    0.0202439450    0.0004216573    
0.0404617250    0.0199797570    0.0004164257    
0.0406843860    0.0198168670    0.0004107178    
0.0409070470    0.0199364120    0.0004162462    
0.0411297080    0.0202258860    0.0004152013    
0.0413523690    0.0199019250    0.0004129243    
0.0415750300    0.0199103610    0.0004165202    
0.0417976910    0.0201588790    0.0004082719    
0.0420203520    0.0196191930    0.0004042832    
0.0422430130    0.0197596320    0.0004072636    
0.0424656740    0.0194694000    0.0003990000    
0.0426883350    0.0194649400    0.0004009344    
0.0429109960    0.0191297110    0.0003987087    
0.0431336570    0.0200484200    0.0004024197    
0.0433563180    0.0205190710    0.0004106279    
0.0435789790    0.0198634810    0.0003976675    
0.0438016400    0.0198548400    0.0003997439    
0.0440243010    0.0203135250    0.0004002325    
0.0442469620    0.0197436860    0.0003969432    
0.0444696230    0.0198955020    0.0003970375    
0.0446922840    0.0201083200    0.0003979701    
0.0449149450    0.0196892890    0.0003885371    
0.0451376060    0.0192907030    0.0003893340    
0.0453602670    0.0194807880    0.0003871459    
0.0455829280    0.0192975920    0.0003848757    
0.0458055890    0.0198339440    0.0003924629    
0.0460282500    0.0198663270    0.0003880468    
0.0462509110    0.0198520300    0.0003854945    
0.0464735720    0.0190650860    0.0003779899    
0.0466962330    0.0193446890    0.0003824824    
0.0469188940    0.0199495290    0.0003873147    
0.0471415550    0.0206411860    0.0003959951    
0.0473642160    0.0193803210    0.0003783372    
0.0475868770    0.0195538710    0.0003781395    
0.0478095380    0.0202167150    0.0003828127    
0.0480321990    0.0198758510    0.0003804034    
0.0482548600    0.0194576490    0.0003747403    
0.0484775210    0.0198385950    0.0003821479    
0.0487001820    0.0195836610    0.0003741266    
0.0489228430    0.0196197380    0.0003742698    
0.0491455040    0.0196943010    0.0003723869    
0.0493681650    0.0191961990    0.0003708069    
0.0495908260    0.0192065080    0.0003646659    
0.0498134870    0.0190235340    0.0003663796    
0.0500361480    0.0192739500    0.0003678074    
0.0502588090    0.0191569700    0.0003611952    
0.0504814700    0.0198568210    0.0003725410    
0.0507041310    0.0197354910    0.0003669854    
0.0509267920    0.0193624210    0.0003650040    
0.0511494530    0.0198179400    0.0003668103    
0.0513721140    0.0199612540    0.0003713762    
0.0515947750    0.0197987230    0.0003649573    
0.0518174360    0.0193083480    0.0003582383    
0.0520400970    0.0195003500    0.0003575188    
0.0522627580    0.0202598700    0.0003675118    
0.0524854190    0.0204212750    0.0003719728    
0.0527080800    0.0189497160    0.0003610944    
0.0529307410    0.0194198450    0.0003672630    
0.0531534020    0.0195200300    0.0003668686    
0.0533760630    0.0194204040    0.0003670767    
0.0535987240    0.0194663200    0.0003657945    
0.0538213850    0.0195120370    0.0003704669    
0.0540440460    0.0195786150    0.0003693421    
0.0542667070    0.0198635300    0.0003745836    
0.0544893680    0.0190997810    0.0003675074    
0.0547120290    0.0203594930    0.0003768338    
0.0549346900    0.0198712240    0.0003724836    
0.0551573510    0.0192839900    0.0003712581    
0.0553800120    0.0200747210    0.0003755730    
0.0556026730    0.0195614340    0.0003784273    
0.0558253340    0.0197564090    0.0003834931    
0.0560479950    0.0192800110    0.0003788414    
0.0562706560    0.0198291530    0.0003879131    
0.0564933170    0.0200283310    0.0003932419    
0.0567159780    0.0200031640    0.0003882829    
0.0569386390    0.0202623900    0.0003969204    
0.0571613000    0.0199500730    0.0003853693    
0.0573839610    0.0189905560    0.0003728659    
0.0576066220    0.0195669840    0.0003795303    
0.0578292830    0.0192256320    0.0003749603    
0.0580519440    0.0193750190    0.0003778738    
0.0582746050    0.0197596920    0.0003799238    
0.0584972660    0.0193839890    0.0003748543    
0.0587199270    0.0200629330    0.0003780751    
0.0589425880    0.0194698040    0.0003702662    
0.0591652490    0.0194858800    0.0003725987    
0.0593879100    0.0191343520    0.0003664805    
0.0596105710    0.0195492910    0.0003700421    
0.0598332320    0.0198991720    0.0003765300    
0.0600558930    0.0192804640    0.0003682671    
0.0602785540    0.0192256840    0.0003673548    
0.0605012150    0.0198716810    0.0003726887    
0.0607238760    0.0193213590    0.0003648138    
0.0609465370    0.0198576790    0.0003727540    
0.0611691980    0.0191415350    0.0003665508    
0.0613918590    0.0195361530    0.0003662671    
0.0616145200    0.0190915580    0.0003647255    
0.0618371810    0.0195859940    0.0003657900    
0.0620598420    0.0205574040    0.0003751376    
0.0622825030    0.0193703680    0.0003697147    
0.0625051640    0.0193445830    0.0003642796    
0.0627278250    0.0197841960    0.0003676369    
0.0629504860    0.0198469190    0.0003652257    
0.0631731470    0.0193973640    0.0003655328    
0.0633958080    0.0196630870    0.0003701461    
0.0636184690    0.0200999970    0.0003794479    
0.0638411300    0.0195441330    0.0003727598    
0.0640637910    0.0190557730    0.0003706619    
0.0642864520    0.0193036130    0.0003722573    
0.0645091130    0.0202424320    0.0003845426    
0.0647317740    0.0193060480    0.0003759571    
0.0649544350    0.0193731700    0.0003761958    
0.0651770960    0.0196826310    0.0003771200    
0.0653997570    0.0201441240    0.0003806882    
0.0656224180    0.0197115780    0.0003773977    
0.0658450790    0.0197316210    0.0003721623    
0.0660677400    0.0197583450    0.0003739992    
0.0662904010    0.0195152290    0.0003761284    
0.0665130620    0.0199140300    0.0003783040    
0.0667357230    0.0189981330    0.0003760717    
0.0669583840    0.0189599550    0.0003744366    
0.0671810450    0.0197896480    0.0003804295    
0.0674037060    0.0189910450    0.0003789880    
0.0676263670    0.0196455810    0.0003826416    
0.0678490280    0.0200465110    0.0003841625    
0.0680716890    0.0195368570    0.0003800916    
0.0682943500    0.0203120220    0.0003833139    
0.0685170110    0.0197796920    0.0003744032    
0.0687396720    0.0200835900    0.0003762661    
0.0689623330    0.0193891200    0.0003685319    
0.0691849940    0.0189414090    0.0003667759    
0.0694076550    0.0199711900    0.0003764131    
0.0696303160    0.0198656920    0.0003724454    
0.0698529770    0.0192053740    0.0003654357    
0.0700756380    0.0198470660    0.0003667217    
0.0702982990    0.0192014850    0.0003646363    
0.0705209600    0.0196896090    0.0003665761    
0.0707436210    0.0201583570    0.0003692106    
0.0709662820    0.0196447240    0.0003688215    
0.0711889430    0.0200230590    0.0003677827    
0.0714116040    0.0198132240    0.0003665974    
0.0716342650    0.0198275850    0.0003652412    
0.0718569260    0.0194946700    0.0003607033    
0.0720795870    0.0196123380    0.0003632537    
0.0723022480    0.0199151060    0.0003666047    
0.0725249090    0.0195924840    0.0003592684    
0.0727475700    0.0188631570    0.0003555291    
0.0729702310    0.0194801020    0.0003584148    
0.0731928920    0.0199751360    0.0003643909    
0.0734155530    0.0191870750    0.0003564179    
0.0736382140    0.0194514110    0.0003565617    
0.0738608750    0.0193460250    0.0003578917    
0.0740835360    0.0198034780    0.0003611994    
0.0743061970    0.0199605110    0.0003575224    
0.0745288580    0.0198502170    0.0003601993    
0.0747515190    0.0198105870    0.0003605502    
0.0749741800    0.0198835210    0.0003578697    
0.0751968410    0.0197259160    0.0003592473    
0.0754195020    0.0197217690    0.0003571050    
0.0756421630    0.0197759470    0.0003546720    
0.0758648240    0.0197305290    0.0003551161    
0.0760874850    0.0197371260    0.0003550050    
0.0763101460    0.0191957940    0.0003497668    
0.0765328070    0.0193499860    0.0003547621    
0.0767554680    0.0193385050    0.0003522502    
0.0769781290    0.0196496730    0.0003530324    
0.0772007900    0.0193045410    0.0003471119    
0.0774234510    0.0204464070    0.0003592622    
0.0776461120    0.0194247440    0.0003498392    
0.0778687730    0.0197660430    0.0003517335    
0.0780914340    0.0190083190    0.0003473904    
0.0783140950    0.0197442550    0.0003484341    
0.0785367560    0.0195543700    0.0003523453    
0.0787594170    0.0194424910    0.0003481880    
0.0789820780    0.0194412550    0.0003463929    
0.0792047390    0.0192207010    0.0003455486    
0.0794274000    0.0193964530    0.0003485956    
0.0796500610    0.0202360500    0.0003525851    
0.0798727220    0.0195364560    0.0003461170    
0.0800953830    0.0195565710    0.0003454987    
0.0803180440    0.0199909080    0.0003517477    
0.0805407050    0.0195954410    0.0003479273    
0.0807633660    0.0190904510    0.0003430960    
0.0809860270    0.0195067040    0.0003455357    
0.0812086880    0.0196101410    0.0003434566    
0.0814313490    0.0192370180    0.0003417249    
0.0816540100    0.0193368500    0.0003418304    
0.0818766710    0.0194191850    0.0003433396    
0.0820993320    0.0199230570    0.0003471316    
0.0823219930    0.0196303680    0.0003459935    
0.0825446540    0.0193401450    0.0003409312    
0.0827673150    0.0191700960    0.0003371487    
0.0829899760    0.0194623170    0.0003391039    
0.0832126370    0.0196310910    0.0003420965    
0.0834352980    0.0197333180    0.0003422191    
0.0836579590    0.0193619600    0.0003382292    
0.0838806200    0.0195071080    0.0003405570    
0.0841032810    0.0198880900    0.0003417319    
0.0843259420    0.0192872510    0.0003354939    
0.0845486030    0.0195965770    0.0003381737    
0.0847712640    0.0192662150    0.0003332677    
0.0849939250    0.0198771610    0.0003391000    
0.0852165860    0.0187924440    0.0003301496    
0.0854392470    0.0195592900    0.0003336286    
0.0856619080    0.0196347850    0.0003367338    
0.0858845690    0.0198214770    0.0003352837    
0.0861072300    0.0191473490    0.0003318077    
0.0863298910    0.0194123140    0.0003358451    
0.0865525520    0.0196952360    0.0003353626    
0.0867752130    0.0198843530    0.0003342498    
0.0869978740    0.0193307470    0.0003304039    
0.0872205350    0.0194055140    0.0003306211    
0.0874431960    0.0193942780    0.0003305256    
0.0876658570    0.0199294840    0.0003363416    
0.0878885180    0.0191719960    0.0003304534    
0.0881111790    0.0192534910    0.0003307301    
0.0883338400    0.0199735450    0.0003319257    
0.0885565010    0.0198445990    0.0003353391    
0.0887791620    0.0192062810    0.0003256238    
0.0890018230    0.0196088130    0.0003322096    
0.0892244840    0.0187211300    0.0003251549    
0.0894471450    0.0194704750    0.0003301978    
0.0896698060    0.0199963390    0.0003333649    
0.0898924670    0.0191500420    0.0003277464    
0.0901151280    0.0186562530    0.0003199992    
0.0903377890    0.0190368060    0.0003259517    
0.0905604500    0.0191666210    0.0003255602    
0.0907831110    0.0194015200    0.0003267342    
0.0910057720    0.0193967430    0.0003281932    
0.0912284330    0.0198002250    0.0003268414    
0.0914510940    0.0193451500    0.0003266662    
0.0916737550    0.0193974530    0.0003262958    
0.0918964160    0.0185130990    0.0003200966    
0.0921190770    0.0195168240    0.0003256878    
0.0923417380    0.0185211150    0.0003174012    
0.0925643990    0.0193128630    0.0003233212    
0.0927870600    0.0195152460    0.0003263437    
0.0930097210    0.0194310200    0.0003228653    
0.0932323820    0.0185854130    0.0003180830    
