# Diamond Light Source Ltd.
# Data extracted from: /dls/b21/data/2018/cm19678-3/processed/b21-386631_00554.dat
q(1/A)          Column          Error           
0.0035000000    2.0660331000    0.0244095340    
0.0037226610    1.8414847000    0.0225596940    
0.0039453220    1.6216526000    0.0192590430    
0.0041679830    1.2841785000    0.0140745100    
0.0043906440    0.9617842300    0.0116505040    
0.0046133050    0.7660459200    0.0099815309    
0.0048359660    0.6032535100    0.0083785210    
0.0050586270    0.4616115700    0.0072038924    
0.0052812880    0.4174768000    0.0064773759    
0.0055039490    0.3841686800    0.0059081901    
0.0057266100    0.3188091100    0.0052068252    
0.0059492710    0.2665955300    0.0047613938    
0.0061719320    0.2214158400    0.0041813805    
0.0063945930    0.1916290000    0.0039371204    
0.0066172539    0.1821579000    0.0036044380    
0.0068399149    0.1664468900    0.0033912303    
0.0070625759    0.1457230100    0.0031405529    
0.0072852369    0.1251733200    0.0028671493    
0.0075078979    0.1132162800    0.0027133730    
0.0077305589    0.0998079580    0.0024991069    
0.0079532199    0.0960873110    0.0024181040    
0.0081758809    0.0905684440    0.0023694732    
0.0083985419    0.0835866890    0.0021231040    
0.0086212029    0.0764683500    0.0020306899    
0.0088438639    0.0707344210    0.0019373841    
0.0090665249    0.0676666160    0.0018301648    
0.0092891859    0.0621777500    0.0018311349    
0.0095118469    0.0581012080    0.0017022455    
0.0097345079    0.0544753960    0.0016008333    
0.0099571689    0.0552751310    0.0015792895    
0.0101798300    0.0520714390    0.0015328395    
0.0104024910    0.0481790170    0.0014694463    
0.0106251520    0.0473335870    0.0014614423    
0.0108478130    0.0454468900    0.0013945751    
0.0110704740    0.0439874090    0.0013062366    
0.0112931350    0.0404224240    0.0012558636    
0.0115157960    0.0387569170    0.0012225488    
0.0117384570    0.0398739620    0.0012293669    
0.0119611180    0.0374346720    0.0011945884    
0.0121837790    0.0364079580    0.0011582914    
0.0124064400    0.0359063520    0.0011023350    
0.0126291010    0.0351451680    0.0010769383    
0.0128517620    0.0336294790    0.0010560906    
0.0130744230    0.0332631990    0.0010425338    
0.0132970840    0.0327445500    0.0010293161    
0.0135197450    0.0318448690    0.0010005407    
0.0137424060    0.0299862290    0.0009573866    
0.0139650670    0.0304477040    0.0009432367    
0.0141877280    0.0302302390    0.0009419394    
0.0144103890    0.0296219290    0.0009163370    
0.0146330500    0.0290510630    0.0009017027    
0.0148557110    0.0281418850    0.0008837597    
0.0150783720    0.0263411230    0.0008479508    
0.0153010330    0.0287609110    0.0008735505    
0.0155236940    0.0268730420    0.0008393728    
0.0157463550    0.0266081720    0.0008207553    
0.0159690160    0.0268086050    0.0008207143    
0.0161916770    0.0264825500    0.0008111127    
0.0164143380    0.0265826850    0.0008188013    
0.0166369990    0.0268402150    0.0007973904    
0.0168596600    0.0242281420    0.0007509218    
0.0170823210    0.0245880920    0.0007499298    
0.0173049820    0.0254535410    0.0007643327    
0.0175276430    0.0238837430    0.0007481958    
0.0177503040    0.0245290140    0.0007389062    
0.0179729650    0.0243940060    0.0007295620    
0.0181956260    0.0244122430    0.0007158431    
0.0184182870    0.0236420410    0.0007011400    
0.0186409480    0.0237527490    0.0007072278    
0.0188636090    0.0234341230    0.0006980504    
0.0190862700    0.0238169240    0.0007026283    
0.0193089310    0.0235360980    0.0006973850    
0.0195315920    0.0224445270    0.0006578607    
0.0197542530    0.0245791860    0.0006894372    
0.0199769140    0.0233221950    0.0006715769    
0.0201995750    0.0222414880    0.0006455628    
0.0204222360    0.0223771820    0.0006530875    
0.0206448970    0.0223608830    0.0006482096    
0.0208675580    0.0204400570    0.0006069817    
0.0210902190    0.0227105830    0.0006459800    
0.0213128800    0.0223845100    0.0006326237    
0.0215355410    0.0217147150    0.0006156643    
0.0217582020    0.0204928340    0.0005980920    
0.0219808630    0.0214140010    0.0006105838    
0.0222035240    0.0215234480    0.0006065952    
0.0224261850    0.0217297740    0.0006040711    
0.0226488460    0.0218347270    0.0006009811    
0.0228715070    0.0201298150    0.0005756077    
0.0230941680    0.0215782490    0.0005959569    
0.0233168290    0.0207430160    0.0005857646    
0.0235394900    0.0214039980    0.0005884573    
0.0237621510    0.0204049450    0.0005590920    
0.0239848120    0.0215270020    0.0005749228    
0.0242074730    0.0214406200    0.0005691754    
0.0244301340    0.0206263630    0.0005589000    
0.0246527950    0.0222750440    0.0005861854    
0.0248754560    0.0223463560    0.0005739276    
0.0250981170    0.0202252040    0.0005472270    
0.0253207780    0.0208470720    0.0005389882    
0.0255434390    0.0207820100    0.0005438901    
0.0257661000    0.0214610830    0.0005544926    
0.0259887610    0.0208531100    0.0005407734    
0.0262114220    0.0202680230    0.0005359736    
0.0264340830    0.0211268670    0.0005397662    
0.0266567440    0.0205396950    0.0005289241    
0.0268794050    0.0206830950    0.0005286009    
0.0271020660    0.0204891680    0.0005239871    
0.0273247270    0.0213294700    0.0005314131    
0.0275473880    0.0209281770    0.0005253430    
0.0277700490    0.0199256440    0.0005095756    
0.0279927100    0.0213081850    0.0005223598    
0.0282153710    0.0195634150    0.0005029504    
0.0284380320    0.0198357070    0.0005035027    
0.0286606930    0.0204900770    0.0005073604    
0.0288833540    0.0202527290    0.0005053715    
0.0291060150    0.0200632680    0.0005025248    
0.0293286760    0.0205605250    0.0005016254    
0.0295513370    0.0200553150    0.0004900293    
0.0297739980    0.0208420310    0.0005050481    
0.0299966590    0.0199233310    0.0004853578    
0.0302193200    0.0202039700    0.0004958869    
0.0304419810    0.0198141930    0.0004919840    
0.0306646420    0.0203611570    0.0004846521    
0.0308873030    0.0211577540    0.0004919078    
0.0311099640    0.0204515490    0.0004848844    
0.0313326250    0.0204281590    0.0004792386    
0.0315552860    0.0203612030    0.0004846532    
0.0317779470    0.0204544680    0.0004861850    
0.0320006080    0.0204516330    0.0004751058    
0.0322232690    0.0197662370    0.0004690320    
0.0324459300    0.0197024510    0.0004647787    
0.0326685910    0.0197686800    0.0004647917    
0.0328912520    0.0201528380    0.0004708401    
0.0331139130    0.0202856190    0.0004662437    
0.0333365740    0.0195223470    0.0004588732    
0.0335592350    0.0210318590    0.0004717039    
0.0337818960    0.0196674980    0.0004557842    
0.0340045570    0.0200999380    0.0004600359    
0.0342272170    0.0197432060    0.0004541369    
0.0344498780    0.0199946720    0.0004588300    
0.0346725390    0.0201940600    0.0004525723    
0.0348952000    0.0197994300    0.0004460870    
0.0351178610    0.0195855240    0.0004457015    
0.0353405220    0.0204828880    0.0004537212    
0.0355631830    0.0203488440    0.0004505310    
0.0357858440    0.0199498600    0.0004460924    
0.0360085050    0.0200806330    0.0004489044    
0.0362311660    0.0199490010    0.0004421120    
0.0364538270    0.0195722130    0.0004344021    
0.0366764880    0.0201792340    0.0004407670    
0.0368991490    0.0205195430    0.0004422274    
0.0371218100    0.0196631570    0.0004316624    
0.0373444710    0.0195224100    0.0004347986    
0.0375671320    0.0193980000    0.0004327798    
0.0377897930    0.0200741820    0.0004288611    
0.0380124540    0.0195011850    0.0004253483    
0.0382351150    0.0199743480    0.0004304777    
0.0384577760    0.0203551070    0.0004303684    
0.0386804370    0.0187360800    0.0004160493    
0.0389030980    0.0201003540    0.0004276671    
0.0391257590    0.0202323020    0.0004261557    
0.0393484200    0.0190442750    0.0004120632    
0.0395710810    0.0196051950    0.0004186507    
0.0397937420    0.0197482470    0.0004201755    
0.0400164030    0.0209367100    0.0004343940    
0.0402390640    0.0196896690    0.0004156492    
0.0404617250    0.0206199720    0.0004228459    
0.0406843860    0.0198067340    0.0004104196    
0.0409070470    0.0200652640    0.0004173928    
0.0411297080    0.0201217100    0.0004139358    
0.0413523690    0.0194638030    0.0004081619    
0.0415750300    0.0198219920    0.0004153993    
0.0417976910    0.0197681820    0.0004041061    
0.0420203520    0.0195258330    0.0004031304    
0.0422430130    0.0203280800    0.0004128859    
0.0424656740    0.0198840610    0.0004030369    
0.0426883350    0.0195373890    0.0004014909    
0.0429109960    0.0192860650    0.0004001465    
0.0431336570    0.0188352140    0.0003898703    
0.0433563180    0.0188824500    0.0003937263    
0.0435789790    0.0207833510    0.0004065799    
0.0438016400    0.0188391320    0.0003892017    
0.0440243010    0.0201526110    0.0003984566    
0.0442469620    0.0198367390    0.0003976904    
0.0444696230    0.0200667720    0.0003985552    
0.0446922840    0.0199635050    0.0003963479    
0.0449149450    0.0209499840    0.0004005945    
0.0451376060    0.0200811430    0.0003970436    
0.0453602670    0.0196161970    0.0003883064    
0.0455829280    0.0193407930    0.0003851250    
0.0458055890    0.0202963190    0.0003968244    
0.0460282500    0.0194993050    0.0003842647    
0.0462509110    0.0195566490    0.0003824358    
0.0464735720    0.0200504250    0.0003874523    
0.0466962330    0.0196815950    0.0003856172    
0.0469188940    0.0195476270    0.0003832131    
0.0471415550    0.0199538620    0.0003891631    
0.0473642160    0.0190595600    0.0003750168    
0.0475868770    0.0192140290    0.0003746628    
0.0478095380    0.0197776700    0.0003784550    
0.0480321990    0.0197335050    0.0003788605    
0.0482548600    0.0195691370    0.0003756356    
0.0484775210    0.0196507860    0.0003801559    
0.0487001820    0.0190868230    0.0003691766    
0.0489228430    0.0199436660    0.0003771694    
0.0491455040    0.0189652840    0.0003652577    
0.0493681650    0.0198865910    0.0003772385    
0.0495908260    0.0202329480    0.0003741073    
0.0498134870    0.0189985930    0.0003659671    
0.0500361480    0.0197326600    0.0003719834    
0.0502588090    0.0202887870    0.0003715372    
0.0504814700    0.0201663380    0.0003752567    
0.0507041310    0.0201532660    0.0003706749    
0.0509267920    0.0202722380    0.0003733054    
0.0511494530    0.0192227540    0.0003610902    
0.0513721140    0.0193281220    0.0003652672    
0.0515947750    0.0192693010    0.0003598754    
0.0518174360    0.0192304250    0.0003573466    
0.0520400970    0.0197439520    0.0003595758    
0.0522627580    0.0192617430    0.0003581760    
0.0524854190    0.0197590040    0.0003657194    
0.0527080800    0.0190281340    0.0003616706    
0.0529307410    0.0201718150    0.0003741299    
0.0531534020    0.0196532210    0.0003679449    
0.0533760630    0.0197279340    0.0003697977    
0.0535987240    0.0195578870    0.0003664814    
0.0538213850    0.0190509670    0.0003658914    
0.0540440460    0.0195253970    0.0003686663    
0.0542667070    0.0198519060    0.0003742979    
0.0544893680    0.0193997290    0.0003702077    
0.0547120290    0.0197480430    0.0003709575    
0.0549346900    0.0197060470    0.0003707578    
0.0551573510    0.0190587700    0.0003689101    
0.0553800120    0.0188062990    0.0003633432    
0.0556026730    0.0200769580    0.0003832011    
0.0558253340    0.0196634580    0.0003824099    
0.0560479950    0.0200799500    0.0003864388    
0.0562706560    0.0200455310    0.0003898404    
0.0564933170    0.0203643270    0.0003963402    
0.0567159780    0.0194421980    0.0003826196    
0.0569386390    0.0198393980    0.0003925708    
0.0571613000    0.0201692960    0.0003872986    
0.0573839610    0.0193091420    0.0003758037    
0.0576066220    0.0193941340    0.0003776725    
0.0578292830    0.0190541240    0.0003731085    
0.0580519440    0.0199163690    0.0003829363    
0.0582746050    0.0195805510    0.0003780198    
0.0584972660    0.0195902680    0.0003766663    
0.0587199270    0.0200298270    0.0003775854    
0.0589425880    0.0196906790    0.0003721853    
0.0591652490    0.0198732750    0.0003761073    
0.0593879100    0.0201261710    0.0003756819    
0.0596105710    0.0191180340    0.0003657656    
0.0598332320    0.0203644780    0.0003807276    
0.0600558930    0.0200845450    0.0003756911    
0.0602785540    0.0193268160    0.0003681465    
0.0605012150    0.0202440460    0.0003759873    
0.0607238760    0.0192825420    0.0003642757    
0.0609465370    0.0198250220    0.0003722722    
0.0611691980    0.0199650520    0.0003741767    
0.0613918590    0.0201900960    0.0003721716    
0.0616145200    0.0194216610    0.0003676921    
0.0618371810    0.0190010900    0.0003601172    
0.0620598420    0.0192454640    0.0003627992    
0.0622825030    0.0199302470    0.0003748433    
0.0625051640    0.0198129760    0.0003684900    
0.0627278250    0.0192195780    0.0003621825    
0.0629504860    0.0197543920    0.0003642020    
0.0631731470    0.0194548200    0.0003659016    
0.0633958080    0.0202919870    0.0003758420    
0.0636184690    0.0201455010    0.0003796985    
0.0638411300    0.0192558430    0.0003698263    
0.0640637910    0.0197437570    0.0003771163    
0.0642864520    0.0196440570    0.0003753489    
0.0645091130    0.0197563070    0.0003797184    
0.0647317740    0.0192952050    0.0003756747    
0.0649544350    0.0193476510    0.0003757711    
0.0651770960    0.0197435260    0.0003775253    
0.0653997570    0.0202258040    0.0003812798    
0.0656224180    0.0193754100    0.0003739897    
0.0658450790    0.0199795510    0.0003743170    
0.0660677400    0.0190607880    0.0003671652    
0.0662904010    0.0199893670    0.0003804911    
0.0665130620    0.0194501510    0.0003736960    
0.0667357230    0.0194413840    0.0003802545    
0.0669583840    0.0196439570    0.0003809516    
0.0671810450    0.0194787810    0.0003772521    
0.0674037060    0.0198950190    0.0003877206    
0.0676263670    0.0193665010    0.0003797353    
0.0678490280    0.0189023430    0.0003728628    
0.0680716890    0.0192377470    0.0003769934    
0.0682943500    0.0197653610    0.0003779428    
0.0685170110    0.0194495560    0.0003710910    
0.0687396720    0.0196703100    0.0003721995    
0.0689623330    0.0196508100    0.0003708360    
0.0691849940    0.0190300260    0.0003674599    
0.0694076550    0.0189317510    0.0003663143    
0.0696303160    0.0194702980    0.0003685468    
0.0698529770    0.0198125320    0.0003709926    
0.0700756380    0.0198554780    0.0003666269    
0.0702982990    0.0193217840    0.0003656047    
0.0705209600    0.0199506450    0.0003688245    
0.0707436210    0.0190584510    0.0003588278    
0.0709662820    0.0199444730    0.0003714499    
0.0711889430    0.0195722870    0.0003634482    
0.0714116040    0.0199640060    0.0003678166    
0.0716342650    0.0194190770    0.0003612891    
0.0718569260    0.0187762270    0.0003538278    
0.0720795870    0.0199703100    0.0003663814    
0.0723022480    0.0191345020    0.0003591790    
0.0725249090    0.0194095140    0.0003574187    
0.0727475700    0.0196889410    0.0003630570    
0.0729702310    0.0198900180    0.0003619959    
0.0731928920    0.0193785780    0.0003587395    
0.0734155530    0.0197511110    0.0003614487    
0.0736382140    0.0194527060    0.0003564058    
0.0738608750    0.0195990280    0.0003600549    
0.0740835360    0.0193636180    0.0003569975    
0.0743061970    0.0192379870    0.0003508269    
0.0745288580    0.0194332190    0.0003562282    
0.0747515190    0.0194903880    0.0003574564    
0.0749741800    0.0192856710    0.0003522828    
0.0751968410    0.0199426750    0.0003610458    
0.0754195020    0.0190959740    0.0003512284    
0.0756421630    0.0196366040    0.0003532541    
0.0758648240    0.0195331790    0.0003531695    
0.0760874850    0.0196739070    0.0003542692    
0.0763101460    0.0198208190    0.0003552483    
0.0765328070    0.0199101160    0.0003596909    
0.0767554680    0.0193523680    0.0003522107    
0.0769781290    0.0192002940    0.0003488081    
0.0772007900    0.0198288730    0.0003516288    
0.0774234510    0.0196073150    0.0003516477    
0.0776461120    0.0194190640    0.0003496236    
0.0778687730    0.0191283910    0.0003458507    
0.0780914340    0.0197579240    0.0003540073    
0.0783140950    0.0198731210    0.0003494049    
0.0785367560    0.0197770070    0.0003541788    
0.0787594170    0.0197294600    0.0003505833    
0.0789820780    0.0198052640    0.0003494563    
0.0792047390    0.0194136420    0.0003471152    
0.0794274000    0.0195409470    0.0003497270    
0.0796500610    0.0199285540    0.0003497314    
0.0798727220    0.0194568200    0.0003452483    
0.0800953830    0.0193979220    0.0003439326    
0.0803180440    0.0196814900    0.0003488507    
0.0805407050    0.0195770110    0.0003476000    
0.0807633660    0.0196392500    0.0003478290    
0.0809860270    0.0196656910    0.0003467777    
0.0812086880    0.0192130850    0.0003398019    
0.0814313490    0.0197222920    0.0003458455    
0.0816540100    0.0199948170    0.0003474340    
0.0818766710    0.0202378470    0.0003503372    
0.0820993320    0.0198559780    0.0003463838    
0.0823219930    0.0198190520    0.0003474888    
0.0825446540    0.0195321080    0.0003424578    
0.0827673150    0.0190158160    0.0003356313    
0.0829899760    0.0195679730    0.0003398631    
0.0832126370    0.0194041730    0.0003399536    
0.0834352980    0.0193293570    0.0003385389    
0.0836579590    0.0194204870    0.0003385807    
0.0838806200    0.0194947010    0.0003402885    
0.0841032810    0.0192064850    0.0003356669    
0.0843259420    0.0196947220    0.0003388598    
0.0845486030    0.0193216120    0.0003356349    
0.0847712640    0.0197318890    0.0003371126    
0.0849939250    0.0190435530    0.0003317571    
0.0852165860    0.0191166560    0.0003328287    
0.0854392470    0.0195522650    0.0003334118    
0.0856619080    0.0198817150    0.0003386852    
0.0858845690    0.0194458740    0.0003319356    
0.0861072300    0.0198761320    0.0003379044    
0.0863298910    0.0198642500    0.0003395722    
0.0865525520    0.0196938280    0.0003351929    
0.0867752130    0.0194053570    0.0003300441    
0.0869978740    0.0199501120    0.0003354974    
0.0872205350    0.0188695190    0.0003258698    
0.0874431960    0.0197418360    0.0003333172    
0.0876658570    0.0199958040    0.0003367423    
0.0878885180    0.0193474380    0.0003318058    
0.0881111790    0.0198483720    0.0003356426    
0.0883338400    0.0187313530    0.0003212873    
0.0885565010    0.0200070970    0.0003365509    
0.0887791620    0.0192654340    0.0003259714    
0.0890018230    0.0197703050    0.0003334179    
0.0892244840    0.0200068450    0.0003359768    
0.0894471450    0.0193850280    0.0003293175    
0.0896698060    0.0197387790    0.0003310552    
0.0898924670    0.0193393790    0.0003292078    
0.0901151280    0.0191541630    0.0003240887    
0.0903377890    0.0189296890    0.0003248805    
0.0905604500    0.0192977620    0.0003265184    
0.0907831110    0.0194107590    0.0003266583    
0.0910057720    0.0191177530    0.0003256711    
0.0912284330    0.0190539420    0.0003204720    
0.0914510940    0.0191946930    0.0003252404    
0.0916737550    0.0194340460    0.0003264498    
0.0918964160    0.0189712110    0.0003238804    
0.0921190770    0.0193301440    0.0003239739    
0.0923417380    0.0190253860    0.0003215418    
0.0925643990    0.0191162450    0.0003215199    
0.0927870600    0.0193278750    0.0003246205    
0.0930097210    0.0197932820    0.0003257078    
0.0932323820    0.0200309600    0.0003300661    
