# Diamond Light Source Ltd.
# Data extracted from: /dls/b21/data/2018/cm19678-3/processed/b21-386631_00559.dat
q(1/A)          Column          Error           
0.0035000000    2.0725840000    0.0244579290    
0.0037226610    1.8789077000    0.0227968400    
0.0039453220    1.6073777000    0.0191817190    
0.0041679830    1.3018735000    0.0141767840    
0.0043906440    0.9639621400    0.0116683290    
0.0046133050    0.7544203900    0.0099094426    
0.0048359660    0.5881278900    0.0082761068    
0.0050586270    0.4611913900    0.0072034780    
0.0052812880    0.4252520000    0.0065400170    
0.0055039490    0.3837469700    0.0059072960    
0.0057266100    0.3221266800    0.0052359290    
0.0059492710    0.2663822000    0.0047613820    
0.0061719320    0.2193793200    0.0041637625    
0.0063945930    0.2061104900    0.0040848009    
0.0066172539    0.1738087400    0.0035222659    
0.0068399149    0.1658187300    0.0033861720    
0.0070625759    0.1405554600    0.0030855933    
0.0072852369    0.1251414900    0.0028679255    
0.0075078979    0.1110285500    0.0026880984    
0.0077305589    0.0991985200    0.0024924566    
0.0079532199    0.0980517420    0.0024436690    
0.0081758809    0.0903923700    0.0023681107    
0.0083985419    0.0816563340    0.0020992802    
0.0086212029    0.0745323300    0.0020056163    
0.0088438639    0.0723308050    0.0019599037    
0.0090665249    0.0643517890    0.0017854843    
0.0092891859    0.0588811090    0.0017826398    
0.0095118469    0.0596448120    0.0017253957    
0.0097345079    0.0574848020    0.0016451110    
0.0099571689    0.0540546900    0.0015623787    
0.0101798300    0.0517064590    0.0015280658    
0.0104024910    0.0495181120    0.0014903200    
0.0106251520    0.0481841140    0.0014751007    
0.0108478130    0.0430418810    0.0013577137    
0.0110704740    0.0448376500    0.0013193252    
0.0112931350    0.0413917700    0.0012713381    
0.0115157960    0.0397912300    0.0012392474    
0.0117384570    0.0389573700    0.0012156384    
0.0119611180    0.0366251410    0.0011820713    
0.0121837790    0.0364738160    0.0011597999    
0.0124064400    0.0353252910    0.0010938143    
0.0126291010    0.0345786660    0.0010686485    
0.0128517620    0.0360792300    0.0010943153    
0.0130744230    0.0329953650    0.0010387412    
0.0132970840    0.0315077130    0.0010100909    
0.0135197450    0.0330342810    0.0010194600    
0.0137424060    0.0327327250    0.0010006686    
0.0139650670    0.0305011820    0.0009444403    
0.0141877280    0.0292849880    0.0009274649    
0.0144103890    0.0307518940    0.0009340223    
0.0146330500    0.0284859800    0.0008932452    
0.0148557110    0.0272199200    0.0008695085    
0.0150783720    0.0278099550    0.0008716184    
0.0153010330    0.0271109430    0.0008484608    
0.0155236940    0.0275241540    0.0008498186    
0.0157463550    0.0271614300    0.0008295742    
0.0159690160    0.0255978280    0.0008022860    
0.0161916770    0.0266030790    0.0008132799    
0.0164143380    0.0269572150    0.0008248774    
0.0166369990    0.0261029100    0.0007866748    
0.0168596600    0.0259011890    0.0007767250    
0.0170823210    0.0244932090    0.0007487792    
0.0173049820    0.0248076680    0.0007548733    
0.0175276430    0.0258966030    0.0007793962    
0.0177503040    0.0242812220    0.0007354570    
0.0179729650    0.0246754620    0.0007340507    
0.0181956260    0.0234443230    0.0007017874    
0.0184182870    0.0241394870    0.0007087597    
0.0186409480    0.0237927290    0.0007081044    
0.0188636090    0.0229533370    0.0006911274    
0.0190862700    0.0241677990    0.0007080667    
0.0193089310    0.0237202730    0.0007003868    
0.0195315920    0.0224816890    0.0006586671    
0.0197542530    0.0234762260    0.0006740590    
0.0199769140    0.0235342960    0.0006748922    
0.0201995750    0.0222591910    0.0006460766    
0.0204222360    0.0222614620    0.0006516558    
0.0206448970    0.0229240440    0.0006565826    
0.0208675580    0.0219896480    0.0006298200    
0.0210902190    0.0228573810    0.0006483222    
0.0213128800    0.0223128610    0.0006318617    
0.0215355410    0.0218892230    0.0006183791    
0.0217582020    0.0223434380    0.0006247622    
0.0219808630    0.0214833160    0.0006118145    
0.0222035240    0.0223276060    0.0006180689    
0.0224261850    0.0217134570    0.0006040845    
0.0226488460    0.0224480720    0.0006096060    
0.0228715070    0.0219742820    0.0006016401    
0.0230941680    0.0213977540    0.0005936953    
0.0233168290    0.0215044850    0.0005966566    
0.0235394900    0.0216962850    0.0005926973    
0.0237621510    0.0204978420    0.0005605862    
0.0239848120    0.0209602010    0.0005675292    
0.0242074730    0.0207620870    0.0005603195    
0.0244301340    0.0222038710    0.0005801094    
0.0246527950    0.0202086160    0.0005585560    
0.0248754560    0.0218035640    0.0005671400    
0.0250981170    0.0201079400    0.0005458555    
0.0253207780    0.0223977570    0.0005588970    
0.0255434390    0.0209267620    0.0005459981    
0.0257661000    0.0209189870    0.0005476625    
0.0259887610    0.0207153250    0.0005391984    
0.0262114220    0.0218161050    0.0005562872    
0.0264340830    0.0198325540    0.0005231789    
0.0266567440    0.0214420800    0.0005406330    
0.0268794050    0.0212944500    0.0005365697    
0.0271020660    0.0201165560    0.0005194072    
0.0273247270    0.0200611550    0.0005155764    
0.0275473880    0.0202981440    0.0005175808    
0.0277700490    0.0209979210    0.0005233152    
0.0279927100    0.0212866980    0.0005223041    
0.0282153710    0.0208212750    0.0005190740    
0.0284380320    0.0209259310    0.0005173604    
0.0286606930    0.0213990600    0.0005186984    
0.0288833540    0.0203067110    0.0005062460    
0.0291060150    0.0204445440    0.0005074791    
0.0293286760    0.0207728600    0.0005044096    
0.0295513370    0.0212336140    0.0005044197    
0.0297739980    0.0191806210    0.0004846930    
0.0299966590    0.0202586890    0.0004896203    
0.0302193200    0.0191968680    0.0004835621    
0.0304419810    0.0206124030    0.0005019955    
0.0306646420    0.0208045380    0.0004900955    
0.0308873030    0.0199384560    0.0004777134    
0.0311099640    0.0201917010    0.0004819859    
0.0313326250    0.0200056010    0.0004744448    
0.0315552860    0.0198232360    0.0004783981    
0.0317779470    0.0204360520    0.0004861594    
0.0320006080    0.0207882400    0.0004791902    
0.0322232690    0.0195257840    0.0004663560    
0.0324459300    0.0206069300    0.0004755164    
0.0326685910    0.0197625410    0.0004649045    
0.0328912520    0.0196954820    0.0004656520    
0.0331139130    0.0194008950    0.0004561445    
0.0333365740    0.0197213900    0.0004613901    
0.0335592350    0.0208050790    0.0004693406    
0.0337818960    0.0203702650    0.0004640404    
0.0340045570    0.0197892760    0.0004566486    
0.0342272170    0.0199575550    0.0004567772    
0.0344498780    0.0202213350    0.0004616069    
0.0346725390    0.0196822940    0.0004469787    
0.0348952000    0.0202275870    0.0004510639    
0.0351178610    0.0195199070    0.0004451313    
0.0353405220    0.0205796590    0.0004549727    
0.0355631830    0.0195763940    0.0004420729    
0.0357858440    0.0202452590    0.0004495617    
0.0360085050    0.0199057940    0.0004471237    
0.0362311660    0.0205728470    0.0004491503    
0.0364538270    0.0206106020    0.0004459540    
0.0366764880    0.0201182140    0.0004402752    
0.0368991490    0.0203069570    0.0004401057    
0.0371218100    0.0199917720    0.0004354276    
0.0373444710    0.0200515950    0.0004408275    
0.0375671320    0.0197903060    0.0004373081    
0.0377897930    0.0201451760    0.0004297897    
0.0380124540    0.0201109360    0.0004321187    
0.0382351150    0.0197117020    0.0004278082    
0.0384577760    0.0193604830    0.0004198891    
0.0386804370    0.0198605190    0.0004285223    
0.0389030980    0.0193058710    0.0004192967    
0.0391257590    0.0199789060    0.0004236472    
0.0393484200    0.0201658800    0.0004241925    
0.0395710810    0.0194955410    0.0004176444    
0.0397937420    0.0194239790    0.0004168773    
0.0400164030    0.0205474760    0.0004305084    
0.0402390640    0.0200829380    0.0004199467    
0.0404617250    0.0198553610    0.0004150972    
0.0406843860    0.0202310350    0.0004149574    
0.0409070470    0.0192557410    0.0004090490    
0.0411297080    0.0193281260    0.0004058525    
0.0413523690    0.0200018260    0.0004139293    
0.0415750300    0.0202036830    0.0004195466    
0.0417976910    0.0199327290    0.0004059459    
0.0420203520    0.0201994180    0.0004101880    
0.0422430130    0.0197567600    0.0004072044    
0.0424656740    0.0190904840    0.0003950695    
0.0426883350    0.0187107100    0.0003930613    
0.0429109960    0.0204646520    0.0004123559    
0.0431336570    0.0196659180    0.0003985334    
0.0433563180    0.0198916510    0.0004042718    
0.0435789790    0.0190566180    0.0003894787    
0.0438016400    0.0196105450    0.0003972482    
0.0440243010    0.0200740370    0.0003978373    
0.0442469620    0.0193897270    0.0003933404    
0.0444696230    0.0198213110    0.0003962677    
0.0446922840    0.0191603740    0.0003884480    
0.0449149450    0.0198550810    0.0003901412    
0.0451376060    0.0202464010    0.0003988326    
0.0453602670    0.0197087380    0.0003893761    
0.0455829280    0.0201697300    0.0003934481    
0.0458055890    0.0196835320    0.0003909436    
0.0460282500    0.0190070610    0.0003795344    
0.0462509110    0.0197443600    0.0003844197    
0.0464735720    0.0187326210    0.0003746524    
0.0466962330    0.0192813870    0.0003818284    
0.0469188940    0.0200218150    0.0003879876    
0.0471415550    0.0203647330    0.0003933058    
0.0473642160    0.0194587360    0.0003790743    
0.0475868770    0.0193828640    0.0003764550    
0.0478095380    0.0195542390    0.0003764610    
0.0480321990    0.0198365650    0.0003799997    
0.0482548600    0.0198517110    0.0003784885    
0.0484775210    0.0194235410    0.0003781018    
0.0487001820    0.0193878660    0.0003722246    
0.0489228430    0.0197311040    0.0003753033    
0.0491455040    0.0191141420    0.0003668343    
0.0493681650    0.0204037390    0.0003822641    
0.0495908260    0.0193144810    0.0003656629    
0.0498134870    0.0193735290    0.0003697077    
0.0500361480    0.0191658800    0.0003667481    
0.0502588090    0.0195355000    0.0003647197    
0.0504814700    0.0201963660    0.0003756854    
0.0507041310    0.0193027630    0.0003629134    
0.0509267920    0.0189468230    0.0003610392    
0.0511494530    0.0197675420    0.0003663169    
0.0513721140    0.0198132770    0.0003699702    
0.0515947750    0.0199371000    0.0003662038    
0.0518174360    0.0192324400    0.0003575075    
0.0520400970    0.0204084920    0.0003657224    
0.0522627580    0.0201636060    0.0003666110    
0.0524854190    0.0197340840    0.0003656341    
0.0527080800    0.0196831010    0.0003679888    
0.0529307410    0.0191600740    0.0003647719    
0.0531534020    0.0197860630    0.0003693333    
0.0533760630    0.0188417840    0.0003615406    
0.0535987240    0.0196490540    0.0003674807    
0.0538213850    0.0198889760    0.0003740010    
0.0540440460    0.0205859080    0.0003786965    
0.0542667070    0.0196346330    0.0003723920    
0.0544893680    0.0189202460    0.0003657495    
0.0547120290    0.0197219180    0.0003708595    
0.0549346900    0.0198683360    0.0003724295    
0.0551573510    0.0191739900    0.0003701708    
0.0553800120    0.0191865930    0.0003671445    
0.0556026730    0.0198147850    0.0003808424    
0.0558253340    0.0202671000    0.0003883898    
0.0560479950    0.0198726440    0.0003845918    
0.0562706560    0.0202511740    0.0003919908    
0.0564933170    0.0195159070    0.0003881505    
0.0567159780    0.0202112620    0.0003902690    
0.0569386390    0.0194276100    0.0003886299    
0.0571613000    0.0192326480    0.0003783492    
0.0573839610    0.0194196700    0.0003770277    
0.0576066220    0.0195641400    0.0003794751    
0.0578292830    0.0198004740    0.0003804970    
0.0580519440    0.0192985170    0.0003770997    
0.0582746050    0.0191871230    0.0003743517    
0.0584972660    0.0190550120    0.0003716327    
0.0587199270    0.0199175450    0.0003766754    
0.0589425880    0.0196148250    0.0003716156    
0.0591652490    0.0196183960    0.0003738364    
0.0593879100    0.0188929530    0.0003641349    
0.0596105710    0.0193783690    0.0003683941    
0.0598332320    0.0192052880    0.0003698800    
0.0600558930    0.0199528370    0.0003746062    
0.0602785540    0.0195878370    0.0003707717    
0.0605012150    0.0195263490    0.0003694093    
0.0607238760    0.0197180080    0.0003685126    
0.0609465370    0.0197568480    0.0003717794    
0.0611691980    0.0193001730    0.0003680399    
0.0613918590    0.0200345200    0.0003708825    
0.0616145200    0.0199526560    0.0003728329    
0.0618371810    0.0196377920    0.0003662467    
0.0620598420    0.0199589340    0.0003696099    
0.0622825030    0.0191488310    0.0003675677    
0.0625051640    0.0200207920    0.0003705648    
0.0627278250    0.0192758590    0.0003628568    
0.0629504860    0.0190309200    0.0003576129    
0.0631731470    0.0205584930    0.0003762869    
0.0633958080    0.0200016000    0.0003732915    
0.0636184690    0.0194811290    0.0003735336    
0.0638411300    0.0192285190    0.0003697109    
0.0640637910    0.0196225040    0.0003761061    
0.0642864520    0.0197099370    0.0003761274    
0.0645091130    0.0192096210    0.0003745768    
0.0647317740    0.0192154010    0.0003750462    
0.0649544350    0.0195164350    0.0003775568    
0.0651770960    0.0192246210    0.0003726794    
0.0653997570    0.0192348420    0.0003719700    
0.0656224180    0.0194919760    0.0003752623    
0.0658450790    0.0198550840    0.0003732977    
0.0660677400    0.0203642050    0.0003796624    
0.0662904010    0.0194036690    0.0003750245    
0.0665130620    0.0185961810    0.0003655457    
0.0667357230    0.0187422990    0.0003735038    
0.0669583840    0.0202732610    0.0003871595    
0.0671810450    0.0199476410    0.0003819173    
0.0674037060    0.0191470880    0.0003805142    
0.0676263670    0.0196948880    0.0003830936    
0.0678490280    0.0192559870    0.0003764843    
0.0680716890    0.0196966780    0.0003816154    
0.0682943500    0.0197738600    0.0003781745    
0.0685170110    0.0196421850    0.0003730724    
0.0687396720    0.0192207760    0.0003680683    
0.0689623330    0.0196454400    0.0003709329    
0.0691849940    0.0198049920    0.0003750165    
0.0694076550    0.0192092800    0.0003691363    
0.0696303160    0.0201420710    0.0003749999    
0.0698529770    0.0201342070    0.0003741410    
0.0700756380    0.0195325280    0.0003637778    
0.0702982990    0.0194340920    0.0003668116    
0.0705209600    0.0190657790    0.0003606960    
0.0707436210    0.0189113490    0.0003575825    
0.0709662820    0.0197387970    0.0003696767    
0.0711889430    0.0200876930    0.0003683491    
0.0714116040    0.0192813460    0.0003616171    
0.0716342650    0.0194816230    0.0003620144    
0.0718569260    0.0199989850    0.0003653125    
0.0720795870    0.0193740390    0.0003610139    
0.0723022480    0.0195275980    0.0003629941    
0.0725249090    0.0198070060    0.0003612036    
0.0727475700    0.0195706120    0.0003621084    
0.0729702310    0.0199256300    0.0003624640    
0.0731928920    0.0194538190    0.0003595783    
0.0734155530    0.0192835840    0.0003572872    
0.0736382140    0.0193963030    0.0003560303    
0.0738608750    0.0199654790    0.0003635499    
0.0740835360    0.0196952070    0.0003601844    
0.0743061970    0.0196374680    0.0003545917    
0.0745288580    0.0198800080    0.0003604433    
0.0747515190    0.0197289760    0.0003597807    
0.0749741800    0.0196359070    0.0003556086    
0.0751968410    0.0198342570    0.0003602063    
0.0754195020    0.0195443430    0.0003554692    
0.0756421630    0.0201801090    0.0003582519    
0.0758648240    0.0197979580    0.0003556966    
0.0760874850    0.0190064330    0.0003483463    
0.0763101460    0.0202953910    0.0003596191    
0.0765328070    0.0194772380    0.0003559008    
0.0767554680    0.0191432360    0.0003504418    
0.0769781290    0.0190570320    0.0003476426    
0.0772007900    0.0194951900    0.0003487964    
0.0774234510    0.0195976740    0.0003517011    
0.0776461120    0.0200392900    0.0003553043    
0.0778687730    0.0193563920    0.0003480442    
0.0780914340    0.0196593880    0.0003532640    
0.0783140950    0.0197044970    0.0003480578    
0.0785367560    0.0196784870    0.0003534361    
0.0787594170    0.0195394200    0.0003490295    
0.0789820780    0.0196976090    0.0003486439    
0.0792047390    0.0197210270    0.0003499916    
0.0794274000    0.0189614120    0.0003446390    
0.0796500610    0.0191090480    0.0003426013    
0.0798727220    0.0194477810    0.0003453055    
0.0800953830    0.0194926990    0.0003449090    
0.0803180440    0.0200313200    0.0003520775    
0.0805407050    0.0193455240    0.0003456763    
0.0807633660    0.0192294780    0.0003443181    
0.0809860270    0.0196201450    0.0003465137    
0.0812086880    0.0188855500    0.0003370271    
0.0814313490    0.0199747000    0.0003481900    
0.0816540100    0.0191527830    0.0003401749    
0.0818766710    0.0196591430    0.0003454292    
0.0820993320    0.0198536400    0.0003465012    
0.0823219930    0.0195116650    0.0003449208    
0.0825446540    0.0195115990    0.0003424142    
0.0827673150    0.0195171010    0.0003401617    
0.0829899760    0.0191286650    0.0003361602    
0.0832126370    0.0193182870    0.0003393353    
0.0834352980    0.0199322050    0.0003439144    
0.0836579590    0.0195895420    0.0003401865    
0.0838806200    0.0194686050    0.0003401960    
0.0841032810    0.0195740340    0.0003389983    
0.0843259420    0.0192552730    0.0003351913    
0.0845486030    0.0187768370    0.0003310011    
0.0847712640    0.0192461230    0.0003330696    
0.0849939250    0.0192669390    0.0003338300    
0.0852165860    0.0196538080    0.0003376066    
0.0854392470    0.0197840460    0.0003355156    
0.0856619080    0.0192508410    0.0003334010    
0.0858845690    0.0190870950    0.0003289901    
0.0861072300    0.0190640780    0.0003310614    
0.0863298910    0.0191596850    0.0003336284    
0.0865525520    0.0195439240    0.0003340476    
0.0867752130    0.0196061900    0.0003318796    
0.0869978740    0.0193505240    0.0003305489    
0.0872205350    0.0193069480    0.0003297564    
0.0874431960    0.0194421500    0.0003309092    
0.0876658570    0.0193703910    0.0003315662    
0.0878885180    0.0191919890    0.0003306017    
0.0881111790    0.0189780360    0.0003283319    
0.0883338400    0.0191157820    0.0003246966    
0.0885565010    0.0195640900    0.0003329365    
0.0887791620    0.0192697280    0.0003261374    
0.0890018230    0.0193583560    0.0003300572    
0.0892244840    0.0194016460    0.0003309878    
0.0894471450    0.0192380870    0.0003281975    
0.0896698060    0.0194655350    0.0003288867    
0.0898924670    0.0196408030    0.0003318953    
0.0901151280    0.0194822220    0.0003269823    
0.0903377890    0.0190842610    0.0003263340    
0.0905604500    0.0197665070    0.0003305917    
0.0907831110    0.0196682790    0.0003289488    
0.0910057720    0.0192717750    0.0003271105    
0.0912284330    0.0187939940    0.0003184051    
0.0914510940    0.0190500250    0.0003241413    
0.0916737550    0.0196580590    0.0003284565    
0.0918964160    0.0193958090    0.0003276151    
0.0921190770    0.0198237330    0.0003282147    
0.0923417380    0.0191438610    0.0003226697    
0.0925643990    0.0191964040    0.0003223215    
0.0927870600    0.0198288860    0.0003289318    
0.0930097210    0.0191921830    0.0003208516    
0.0932323820    0.0198563950    0.0003287555    
