# Diamond Light Source Ltd.
# Data extracted from: /dls/b21/data/2018/cm19678-3/processed/b21-386631_00570.dat
q(1/A)          Column          Error           
0.0035000000    2.0863589000    0.0245555970    
0.0037226610    1.8631594000    0.0227163890    
0.0039453220    1.6088557000    0.0192034600    
0.0041679830    1.2860047000    0.0140996070    
0.0043906440    0.9472992900    0.0115748300    
0.0046133050    0.7734234400    0.0100402280    
0.0048359660    0.5785413000    0.0082139065    
0.0050586270    0.4593341500    0.0071938003    
0.0052812880    0.4406301300    0.0066617014    
0.0055039490    0.3760688000    0.0058518378    
0.0057266100    0.3167656800    0.0051956733    
0.0059492710    0.2696386100    0.0047936226    
0.0061719320    0.2110493300    0.0040866973    
0.0063945930    0.1973901200    0.0040001468    
0.0066172539    0.1821911300    0.0036086296    
0.0068399149    0.1708890800    0.0034398677    
0.0070625759    0.1509191700    0.0031994799    
0.0072852369    0.1286666200    0.0029099969    
0.0075078979    0.1147624300    0.0027347654    
0.0077305589    0.0995830120    0.0024989641    
0.0079532199    0.0959884350    0.0024194494    
0.0081758809    0.0895823040    0.0023590633    
0.0083985419    0.0815501830    0.0020993281    
0.0086212029    0.0772808350    0.0020436371    
0.0088438639    0.0693971200    0.0019210390    
0.0090665249    0.0639424300    0.0017809949    
0.0092891859    0.0634459740    0.0018516974    
0.0095118469    0.0595252560    0.0017248264    
0.0097345079    0.0569493870    0.0016385345    
0.0099571689    0.0553032220    0.0015813835    
0.0101798300    0.0486107720    0.0014826146    
0.0104024910    0.0499890540    0.0014983985    
0.0106251520    0.0458524100    0.0014399360    
0.0108478130    0.0448581760    0.0013869978    
0.0110704740    0.0443927150    0.0013136469    
0.0112931350    0.0417212490    0.0012772476    
0.0115157960    0.0406177780    0.0012528954    
0.0117384570    0.0382121880    0.0012047666    
0.0119611180    0.0367508930    0.0011848963    
0.0121837790    0.0385909920    0.0011937896    
0.0124064400    0.0355424580    0.0010979102    
0.0126291010    0.0374362830    0.0011126780    
0.0128517620    0.0347319170    0.0010744114    
0.0130744230    0.0315662900    0.0010166818    
0.0132970840    0.0345009000    0.0010576929    
0.0135197450    0.0327637520    0.0010159608    
0.0137424060    0.0317353200    0.0009859684    
0.0139650670    0.0298102000    0.0009343100    
0.0141877280    0.0308539040    0.0009526259    
0.0144103890    0.0296570420    0.0009178624    
0.0146330500    0.0284402170    0.0008931285    
0.0148557110    0.0271453430    0.0008689013    
0.0150783720    0.0267805780    0.0008559110    
0.0153010330    0.0273601840    0.0008529259    
0.0155236940    0.0261950000    0.0008296040    
0.0157463550    0.0262592880    0.0008162304    
0.0159690160    0.0272437790    0.0008282352    
0.0161916770    0.0265891300    0.0008136142    
0.0164143380    0.0262605640    0.0008146973    
0.0166369990    0.0258769360    0.0007837898    
0.0168596600    0.0248398670    0.0007611574    
0.0170823210    0.0256722940    0.0007671065    
0.0173049820    0.0248180910    0.0007555403    
0.0175276430    0.0230893650    0.0007364364    
0.0177503040    0.0242247110    0.0007350954    
0.0179729650    0.0248836370    0.0007376371    
0.0181956260    0.0239176610    0.0007093139    
0.0184182870    0.0238802790    0.0007054189    
0.0186409480    0.0247532980    0.0007227433    
0.0188636090    0.0237761050    0.0007038788    
0.0190862700    0.0227670350    0.0006877034    
0.0193089310    0.0235451510    0.0006982666    
0.0195315920    0.0233428930    0.0006716163    
0.0197542530    0.0231202580    0.0006693796    
0.0199769140    0.0231202660    0.0006693798    
0.0201995750    0.0224018480    0.0006485801    
0.0204222360    0.0232274290    0.0006660922    
0.0206448970    0.0226912970    0.0006536809    
0.0208675580    0.0227056840    0.0006404230    
0.0210902190    0.0230723150    0.0006518019    
0.0213128800    0.0230237830    0.0006422810    
0.0215355410    0.0230382670    0.0006348292    
0.0217582020    0.0216213430    0.0006149976    
0.0219808630    0.0218960970    0.0006180802    
0.0222035240    0.0215010730    0.0006069295    
0.0224261850    0.0218941710    0.0006070016    
0.0226488460    0.0207708930    0.0005867859    
0.0228715070    0.0212946180    0.0005926615    
0.0230941680    0.0216904990    0.0005981452    
0.0233168290    0.0208206500    0.0005874886    
0.0235394900    0.0209959290    0.0005834454    
0.0237621510    0.0217075540    0.0005772796    
0.0239848120    0.0210038280    0.0005685022    
0.0242074730    0.0218954320    0.0005757970    
0.0244301340    0.0211107150    0.0005660299    
0.0246527950    0.0205295640    0.0005633531    
0.0248754560    0.0211829740    0.0005593870    
0.0250981170    0.0196750570    0.0005403115    
0.0253207780    0.0216458900    0.0005498061    
0.0255434390    0.0210262810    0.0005476634    
0.0257661000    0.0202867400    0.0005396860    
0.0259887610    0.0214037590    0.0005484539    
0.0262114220    0.0223568370    0.0005635183    
0.0264340830    0.0206746520    0.0005345304    
0.0266567440    0.0207338860    0.0005319880    
0.0268794050    0.0210794470    0.0005342136    
0.0271020660    0.0201436600    0.0005201071    
0.0273247270    0.0209240860    0.0005269030    
0.0275473880    0.0205633720    0.0005213022    
0.0277700490    0.0214833040    0.0005296855    
0.0279927100    0.0207507320    0.0005160341    
0.0282153710    0.0205124220    0.0005155567    
0.0284380320    0.0207107710    0.0005150403    
0.0286606930    0.0209368890    0.0005134120    
0.0288833540    0.0203719840    0.0005074004    
0.0291060150    0.0212036860    0.0005171631    
0.0293286760    0.0207517900    0.0005044933    
0.0295513370    0.0202663060    0.0004931281    
0.0297739980    0.0209603110    0.0005070219    
0.0299966590    0.0211628310    0.0005007639    
0.0302193200    0.0207107860    0.0005026061    
0.0304419810    0.0202973960    0.0004984804    
0.0306646420    0.0207978860    0.0004903471    
0.0308873030    0.0208707500    0.0004890836    
0.0311099640    0.0204147590    0.0004849672    
0.0313326250    0.0206184340    0.0004819812    
0.0315552860    0.0194568760    0.0004742759    
0.0317779470    0.0197108220    0.0004777767    
0.0320006080    0.0202189710    0.0004729018    
0.0322232690    0.0203439910    0.0004763473    
0.0324459300    0.0202611160    0.0004718271    
0.0326685910    0.0205667170    0.0004745885    
0.0328912520    0.0197661140    0.0004668003    
0.0331139130    0.0198673370    0.0004619062    
0.0333365740    0.0200614210    0.0004656640    
0.0335592350    0.0205680580    0.0004669737    
0.0337818960    0.0201330800    0.0004616416    
0.0340045570    0.0200480750    0.0004599344    
0.0342272170    0.0207172420    0.0004657030    
0.0344498780    0.0200586500    0.0004600560    
0.0346725390    0.0204609800    0.0004560417    
0.0348952000    0.0201541200    0.0004505472    
0.0351178610    0.0198308110    0.0004489643    
0.0353405220    0.0200937130    0.0004498718    
0.0355631830    0.0199226520    0.0004462657    
0.0357858440    0.0201425840    0.0004487223    
0.0360085050    0.0202544310    0.0004513260    
0.0362311660    0.0198444910    0.0004414249    
0.0364538270    0.0199523580    0.0004390704    
0.0366764880    0.0197690420    0.0004367316    
0.0368991490    0.0202197040    0.0004394550    
0.0371218100    0.0201421620    0.0004373567    
0.0373444710    0.0196419090    0.0004365947    
0.0375671320    0.0206007460    0.0004464729    
0.0377897930    0.0197132300    0.0004254434    
0.0380124540    0.0195244080    0.0004260575    
0.0382351150    0.0195523130    0.0004263620    
0.0384577760    0.0195324690    0.0004220340    
0.0386804370    0.0204150130    0.0004347558    
0.0389030980    0.0199610800    0.0004266396    
0.0391257590    0.0197719430    0.0004217310    
0.0393484200    0.0202913340    0.0004257965    
0.0395710810    0.0190559370    0.0004131869    
0.0397937420    0.0193157630    0.0004159944    
0.0400164030    0.0201777470    0.0004269048    
0.0402390640    0.0196175790    0.0004153322    
0.0404617250    0.0202731510    0.0004197241    
0.0406843860    0.0193122810    0.0004056987    
0.0409070470    0.0190032490    0.0004066320    
0.0411297080    0.0197211110    0.0004102338    
0.0413523690    0.0195055400    0.0004090371    
0.0415750300    0.0199604610    0.0004172944    
0.0417976910    0.0194628720    0.0004014030    
0.0420203520    0.0205269050    0.0004137782    
0.0422430130    0.0199934830    0.0004099126    
0.0424656740    0.0196319740    0.0004009031    
0.0426883350    0.0197363810    0.0004039627    
0.0429109960    0.0196269420    0.0004040998    
0.0431336570    0.0197490250    0.0003996436    
0.0433563180    0.0196140390    0.0004017112    
0.0435789790    0.0203496640    0.0004027466    
0.0438016400    0.0201526690    0.0004029728    
0.0440243010    0.0195800030    0.0003931759    
0.0442469620    0.0196315840    0.0003960525    
0.0444696230    0.0201018690    0.0003993311    
0.0446922840    0.0195016220    0.0003921558    
0.0449149450    0.0195210420    0.0003871059    
0.0451376060    0.0194948310    0.0003916236    
0.0453602670    0.0190959360    0.0003835330    
0.0455829280    0.0189595760    0.0003817192    
0.0458055890    0.0196323010    0.0003906974    
0.0460282500    0.0194348750    0.0003840404    
0.0462509110    0.0201906640    0.0003890020    
0.0464735720    0.0197482750    0.0003849340    
0.0466962330    0.0199660880    0.0003888104    
0.0469188940    0.0200864340    0.0003888749    
0.0471415550    0.0199890430    0.0003899234    
0.0473642160    0.0198177130    0.0003828125    
0.0475868770    0.0195627280    0.0003784523    
0.0478095380    0.0194136630    0.0003753579    
0.0480321990    0.0198487130    0.0003803720    
0.0482548600    0.0194015480    0.0003744245    
0.0484775210    0.0195750030    0.0003798287    
0.0487001820    0.0201009550    0.0003792633    
0.0489228430    0.0195646870    0.0003739689    
0.0491455040    0.0198589630    0.0003741650    
0.0493681650    0.0199937770    0.0003786591    
0.0495908260    0.0195623300    0.0003682494    
0.0498134870    0.0193501780    0.0003697336    
0.0500361480    0.0200982320    0.0003758156    
0.0502588090    0.0192072670    0.0003618863    
0.0504814700    0.0200416350    0.0003744955    
0.0507041310    0.0188846670    0.0003592033    
0.0509267920    0.0191996880    0.0003636852    
0.0511494530    0.0194339110    0.0003634571    
0.0513721140    0.0195909350    0.0003681362    
0.0515947750    0.0193510330    0.0003610242    
0.0518174360    0.0194513350    0.0003597783    
0.0520400970    0.0190709650    0.0003537731    
0.0522627580    0.0194565630    0.0003603685    
0.0524854190    0.0195842980    0.0003644892    
0.0527080800    0.0199851830    0.0003710516    
0.0529307410    0.0194292760    0.0003675729    
0.0531534020    0.0198679490    0.0003703460    
0.0533760630    0.0195687840    0.0003686977    
0.0535987240    0.0200333890    0.0003713072    
0.0538213850    0.0198664770    0.0003740411    
0.0540440460    0.0198044450    0.0003716892    
0.0542667070    0.0199864150    0.0003759662    
0.0544893680    0.0201068370    0.0003772981    
0.0547120290    0.0190850860    0.0003650685    
0.0549346900    0.0205172640    0.0003787175    
0.0551573510    0.0203376440    0.0003814948    
0.0553800120    0.0195571560    0.0003709226    
0.0556026730    0.0192844250    0.0003759640    
0.0558253340    0.0198546820    0.0003846766    
0.0560479950    0.0201379140    0.0003874109    
0.0562706560    0.0195718660    0.0003856198    
0.0564933170    0.0193875950    0.0003871330    
0.0567159780    0.0190839480    0.0003794843    
0.0569386390    0.0195004940    0.0003896204    
0.0571613000    0.0189380820    0.0003756935    
0.0573839610    0.0198709600    0.0003816402    
0.0576066220    0.0191261650    0.0003754561    
0.0578292830    0.0194464240    0.0003773338    
0.0580519440    0.0194868470    0.0003791904    
0.0582746050    0.0205806280    0.0003879686    
0.0584972660    0.0200169380    0.0003811540    
0.0587199270    0.0201013110    0.0003786639    
0.0589425880    0.0199091520    0.0003746454    
0.0591652490    0.0190813060    0.0003689319    
0.0593879100    0.0202817710    0.0003775354    
0.0596105710    0.0195447340    0.0003702212    
0.0598332320    0.0193024960    0.0003710647    
0.0600558930    0.0201346560    0.0003765626    
0.0602785540    0.0201904970    0.0003766858    
0.0605012150    0.0199375520    0.0003735301    
0.0607238760    0.0189928600    0.0003619165    
0.0609465370    0.0190619030    0.0003654281    
0.0611691980    0.0198181160    0.0003731967    
0.0613918590    0.0195390060    0.0003665139    
0.0616145200    0.0199376820    0.0003729439    
0.0618371810    0.0191717890    0.0003621188    
0.0620598420    0.0193347100    0.0003640291    
0.0622825030    0.0191463700    0.0003677916    
0.0625051640    0.0192785470    0.0003638757    
0.0627278250    0.0190213990    0.0003606965    
0.0629504860    0.0187537560    0.0003552383    
0.0631731470    0.0201723990    0.0003729878    
0.0633958080    0.0200704060    0.0003741849    
0.0636184690    0.0198157650    0.0003769818    
0.0638411300    0.0196672750    0.0003741569    
0.0640637910    0.0203563620    0.0003833325    
0.0642864520    0.0196789940    0.0003760851    
0.0645091130    0.0199668910    0.0003821458    
0.0647317740    0.0202455020    0.0003852270    
0.0649544350    0.0203472590    0.0003857690    
0.0651770960    0.0200607670    0.0003809540    
0.0653997570    0.0187565500    0.0003675636    
0.0656224180    0.0195471750    0.0003760463    
0.0658450790    0.0197904740    0.0003729408    
0.0660677400    0.0195056660    0.0003718233    
0.0662904010    0.0200322310    0.0003813070    
0.0665130620    0.0196069820    0.0003756017    
0.0667357230    0.0192072990    0.0003783634    
0.0669583840    0.0197379050    0.0003822707    
0.0671810450    0.0195498390    0.0003783446    
0.0674037060    0.0199906860    0.0003890682    
0.0676263670    0.0201019730    0.0003872932    
0.0678490280    0.0190755500    0.0003749686    
0.0680716890    0.0196269690    0.0003811960    
0.0682943500    0.0195035670    0.0003758338    
0.0685170110    0.0194983580    0.0003719544    
0.0687396720    0.0201924210    0.0003775109    
0.0689623330    0.0196789220    0.0003714989    
0.0691849940    0.0193623710    0.0003710519    
0.0694076550    0.0197039650    0.0003741109    
0.0696303160    0.0195819590    0.0003699982    
0.0698529770    0.0194025000    0.0003675270    
0.0700756380    0.0199319760    0.0003677261    
0.0702982990    0.0198831740    0.0003712754    
0.0705209600    0.0194467840    0.0003645275    
0.0707436210    0.0196815740    0.0003650373    
0.0709662820    0.0195435430    0.0003680915    
0.0711889430    0.0187688140    0.0003562914    
0.0714116040    0.0200000240    0.0003685428    
0.0716342650    0.0196695390    0.0003640012    
0.0718569260    0.0206406730    0.0003713769    
0.0720795870    0.0192115300    0.0003597387    
0.0723022480    0.0199187700    0.0003668587    
0.0725249090    0.0191543220    0.0003554418    
0.0727475700    0.0199525570    0.0003658711    
0.0729702310    0.0198336330    0.0003618698    
0.0731928920    0.0192936820    0.0003583365    
0.0734155530    0.0188455520    0.0003534439    
0.0736382140    0.0195860350    0.0003580084    
0.0738608750    0.0190113210    0.0003549954    
0.0740835360    0.0197745110    0.0003611519    
0.0743061970    0.0190420160    0.0003494095    
0.0745288580    0.0196908420    0.0003589659    
0.0747515190    0.0190000240    0.0003533092    
0.0749741800    0.0195785290    0.0003553278    
0.0751968410    0.0195531090    0.0003578851    
0.0754195020    0.0196483620    0.0003566539    
0.0756421630    0.0203091950    0.0003596379    
0.0758648240    0.0188519580    0.0003473283    
0.0760874850    0.0192430110    0.0003507436    
0.0763101460    0.0194932370    0.0003526780    
0.0765328070    0.0187480870    0.0003494106    
0.0767554680    0.0196572470    0.0003553546    
0.0769781290    0.0197558420    0.0003541975    
0.0772007900    0.0197464150    0.0003512730    
0.0774234510    0.0196114380    0.0003520615    
0.0776461120    0.0193723910    0.0003495774    
0.0778687730    0.0199025960    0.0003531584    
0.0780914340    0.0196223110    0.0003531684    
0.0783140950    0.0194109160    0.0003456878    
0.0785367560    0.0193299690    0.0003505282    
0.0787594170    0.0199653020    0.0003530504    
0.0789820780    0.0199589590    0.0003511855    
0.0792047390    0.0189763530    0.0003435514    
0.0794274000    0.0195075790    0.0003498027    
0.0796500610    0.0189010680    0.0003409613    
0.0798727220    0.0192836650    0.0003440770    
0.0800953830    0.0198306300    0.0003481201    
0.0803180440    0.0194758310    0.0003473952    
0.0805407050    0.0191860370    0.0003444803    
0.0807633660    0.0194652880    0.0003466561    
0.0809860270    0.0196772210    0.0003472511    
0.0812086880    0.0196939350    0.0003443964    
0.0814313490    0.0199043700    0.0003478106    
0.0816540100    0.0194084900    0.0003426688    
0.0818766710    0.0196005430    0.0003451463    
0.0820993320    0.0196321110    0.0003447946    
0.0823219930    0.0192021450    0.0003424045    
0.0825446540    0.0195499220    0.0003429811    
0.0827673150    0.0194009170    0.0003393761    
0.0829899760    0.0195093690    0.0003397175    
0.0832126370    0.0199710210    0.0003452529    
0.0834352980    0.0191628360    0.0003374387    
0.0836579590    0.0197046680    0.0003414144    
0.0838806200    0.0188400480    0.0003348846    
0.0841032810    0.0193593700    0.0003373614    
0.0843259420    0.0192870590    0.0003356938    
0.0845486030    0.0192169750    0.0003350835    
0.0847712640    0.0200454760    0.0003401449    
0.0849939250    0.0193450250    0.0003347311    
0.0852165860    0.0198370800    0.0003394055    
0.0854392470    0.0199189570    0.0003368844    
0.0856619080    0.0195716540    0.0003363940    
0.0858845690    0.0192831570    0.0003308981    
0.0861072300    0.0199763210    0.0003391179    
0.0863298910    0.0192785760    0.0003348873    
0.0865525520    0.0200276400    0.0003383839    
0.0867752130    0.0197057360    0.0003329451    
0.0869978740    0.0193426710    0.0003307043    
0.0872205350    0.0194908730    0.0003315465    
0.0874431960    0.0194232260    0.0003309709    
0.0876658570    0.0196465470    0.0003341462    
0.0878885180    0.0192805760    0.0003315869    
0.0881111790    0.0198795580    0.0003362661    
0.0883338400    0.0197821660    0.0003305301    
0.0885565010    0.0196698770    0.0003340602    
0.0887791620    0.0201081990    0.0003333818    
0.0890018230    0.0191646730    0.0003286231    
0.0892244840    0.0195012910    0.0003320602    
0.0894471450    0.0198246590    0.0003333877    
0.0896698060    0.0193303970    0.0003279638    
0.0898924670    0.0194201610    0.0003302481    
0.0901151280    0.0198491820    0.0003302697    
0.0903377890    0.0187802990    0.0003239427    
0.0905604500    0.0196436530    0.0003297847    
0.0907831110    0.0197994500    0.0003302662    
0.0910057720    0.0195368080    0.0003295738    
0.0912284330    0.0195647420    0.0003250872    
0.0914510940    0.0198654500    0.0003312289    
0.0916737550    0.0193658110    0.0003262254    
0.0918964160    0.0191337990    0.0003256139    
0.0921190770    0.0199266230    0.0003292870    
0.0923417380    0.0192785730    0.0003240211    
0.0925643990    0.0194282010    0.0003244801    
0.0927870600    0.0198829210    0.0003296015    
0.0930097210    0.0201257690    0.0003287840    
0.0932323820    0.0190655850    0.0003223593    
