# Diamond Light Source Ltd.
# Data extracted from: /dls/b21/data/2018/cm19678-3/processed/b21-386631_00568.dat
q(1/A)          Column          Error           
0.0035000000    2.1095949000    0.0246858690    
0.0037226610    1.8287441000    0.0225000590    
0.0039453220    1.5908798000    0.0190911680    
0.0041679830    1.2845980000    0.0140884180    
0.0043906440    0.9712875200    0.0117175770    
0.0046133050    0.7854180200    0.0101152870    
0.0048359660    0.5946910300    0.0083257078    
0.0050586270    0.4623733100    0.0072157800    
0.0052812880    0.4303462700    0.0065818804    
0.0055039490    0.3681472600    0.0057884503    
0.0057266100    0.3162687600    0.0051903163    
0.0059492710    0.2667799300    0.0047669684    
0.0061719320    0.2252613800    0.0042210136    
0.0063945930    0.1897575800    0.0039210798    
0.0066172539    0.1857447400    0.0036427542    
0.0068399149    0.1686593700    0.0034165102    
0.0070625759    0.1450821400    0.0031362239    
0.0072852369    0.1277480100    0.0028988754    
0.0075078979    0.1134031100    0.0027178506    
0.0077305589    0.1028558800    0.0025390710    
0.0079532199    0.1011221700    0.0024826939    
0.0081758809    0.0933878970    0.0024080565    
0.0083985419    0.0846969070    0.0021389199    
0.0086212029    0.0772967430    0.0020433435    
0.0088438639    0.0724988460    0.0019630163    
0.0090665249    0.0658445880    0.0018068456    
0.0092891859    0.0627124820    0.0018405087    
0.0095118469    0.0613941780    0.0017512625    
0.0097345079    0.0563558610    0.0016295718    
0.0099571689    0.0544624050    0.0015689290    
0.0101798300    0.0485868010    0.0014818835    
0.0104024910    0.0478993880    0.0014663841    
0.0106251520    0.0446546760    0.0014206545    
0.0108478130    0.0489081640    0.0014478999    
0.0110704740    0.0425058510    0.0012851093    
0.0112931350    0.0425604830    0.0012897116    
0.0115157960    0.0409067710    0.0012570346    
0.0117384570    0.0395221400    0.0012249408    
0.0119611180    0.0359690950    0.0011719365    
0.0121837790    0.0383504970    0.0011897706    
0.0124064400    0.0364401740    0.0011114149    
0.0126291010    0.0346742900    0.0010705817    
0.0128517620    0.0340836120    0.0010640742    
0.0130744230    0.0334490050    0.0010463037    
0.0132970840    0.0336412350    0.0010441749    
0.0135197450    0.0318029540    0.0010007066    
0.0137424060    0.0314441140    0.0009811923    
0.0139650670    0.0302637990    0.0009411594    
0.0141877280    0.0308092920    0.0009517022    
0.0144103890    0.0281943680    0.0008947212    
0.0146330500    0.0269964730    0.0008699492    
0.0148557110    0.0301898620    0.0009161070    
0.0150783720    0.0282984990    0.0008796162    
0.0153010330    0.0277719080    0.0008591076    
0.0155236940    0.0269173870    0.0008407579    
0.0157463550    0.0259420340    0.0008110847    
0.0159690160    0.0265256780    0.0008170454    
0.0161916770    0.0250581000    0.0007896477    
0.0164143380    0.0255655310    0.0008036456    
0.0166369990    0.0246540170    0.0007648564    
0.0168596600    0.0248043060    0.0007604248    
0.0170823210    0.0268967950    0.0007849943    
0.0173049820    0.0238632770    0.0007406813    
0.0175276430    0.0247918070    0.0007629151    
0.0177503040    0.0237445630    0.0007275944    
0.0179729650    0.0237348900    0.0007202318    
0.0181956260    0.0238427910    0.0007080282    
0.0184182870    0.0235144330    0.0006998219    
0.0186409480    0.0236021160    0.0007055632    
0.0188636090    0.0223480990    0.0006822456    
0.0190862700    0.0215100530    0.0006682848    
0.0193089310    0.0236784260    0.0007000673    
0.0195315920    0.0248571930    0.0006928876    
0.0197542530    0.0219078940    0.0006514323    
0.0199769140    0.0232831980    0.0006715686    
0.0201995750    0.0233855310    0.0006625036    
0.0204222360    0.0214976880    0.0006406525    
0.0206448970    0.0214943420    0.0006360498    
0.0208675580    0.0226583790    0.0006395978    
0.0210902190    0.0223063500    0.0006407332    
0.0213128800    0.0213469380    0.0006182975    
0.0215355410    0.0232716870    0.0006378798    
0.0217582020    0.0205441350    0.0005993340    
0.0219808630    0.0230188010    0.0006335717    
0.0222035240    0.0215075940    0.0006068719    
0.0224261850    0.0221861420    0.0006108849    
0.0226488460    0.0217050700    0.0005996883    
0.0228715070    0.0205916830    0.0005826538    
0.0230941680    0.0210203410    0.0005886873    
0.0233168290    0.0214897020    0.0005967060    
0.0235394900    0.0217796250    0.0005940880    
0.0237621510    0.0210677330    0.0005685682    
0.0239848120    0.0208550530    0.0005663455    
0.0242074730    0.0200836170    0.0005513235    
0.0244301340    0.0220711320    0.0005786196    
0.0246527950    0.0205194410    0.0005630753    
0.0248754560    0.0218812330    0.0005683917    
0.0250981170    0.0214153640    0.0005635622    
0.0253207780    0.0203371030    0.0005327940    
0.0255434390    0.0211727480    0.0005494321    
0.0257661000    0.0211377440    0.0005507535    
0.0259887610    0.0207189610    0.0005394758    
0.0262114220    0.0203582560    0.0005376083    
0.0264340830    0.0198771080    0.0005239898    
0.0266567440    0.0212693810    0.0005386812    
0.0268794050    0.0209878620    0.0005329203    
0.0271020660    0.0205095560    0.0005246801    
0.0273247270    0.0206220090    0.0005229568    
0.0275473880    0.0205664420    0.0005212125    
0.0277700490    0.0207286710    0.0005201711    
0.0279927100    0.0205609280    0.0005135420    
0.0282153710    0.0203468880    0.0005133457    
0.0284380320    0.0210206040    0.0005187506    
0.0286606930    0.0198821240    0.0005001891    
0.0288833540    0.0198945740    0.0005012961    
0.0291060150    0.0198568330    0.0005003452    
0.0293286760    0.0208151080    0.0005051378    
0.0295513370    0.0213956550    0.0005065568    
0.0297739980    0.0199079930    0.0004940085    
0.0299966590    0.0204891630    0.0004926077    
0.0302193200    0.0199691050    0.0004934028    
0.0304419810    0.0208991910    0.0005056914    
0.0306646420    0.0206720790    0.0004887412    
0.0308873030    0.0205855270    0.0004856104    
0.0311099640    0.0198865140    0.0004785337    
0.0313326250    0.0200564610    0.0004752502    
0.0315552860    0.0210303340    0.0004929586    
0.0317779470    0.0201178120    0.0004825650    
0.0320006080    0.0200210610    0.0004704656    
0.0322232690    0.0201221470    0.0004736262    
0.0324459300    0.0195263020    0.0004630780    
0.0326685910    0.0194619760    0.0004615524    
0.0328912520    0.0211887870    0.0004831884    
0.0331139130    0.0200078140    0.0004634220    
0.0333365740    0.0215100180    0.0004820645    
0.0335592350    0.0196041980    0.0004557883    
0.0337818960    0.0193190730    0.0004521014    
0.0340045570    0.0203123950    0.0004628423    
0.0342272170    0.0206861000    0.0004652381    
0.0344498780    0.0203335130    0.0004630831    
0.0346725390    0.0200445140    0.0004512654    
0.0348952000    0.0196106280    0.0004443212    
0.0351178610    0.0203391630    0.0004545703    
0.0353405220    0.0205267560    0.0004545814    
0.0355631830    0.0198129140    0.0004449252    
0.0357858440    0.0192833830    0.0004389394    
0.0360085050    0.0214406150    0.0004642392    
0.0362311660    0.0203941210    0.0004473858    
0.0364538270    0.0203674440    0.0004435047    
0.0366764880    0.0199135880    0.0004382173    
0.0368991490    0.0200951760    0.0004379916    
0.0371218100    0.0202746080    0.0004386841    
0.0373444710    0.0200008120    0.0004404568    
0.0375671320    0.0198555550    0.0004382153    
0.0377897930    0.0202174340    0.0004307436    
0.0380124540    0.0197749770    0.0004286770    
0.0382351150    0.0200258950    0.0004313882    
0.0384577760    0.0200514670    0.0004274987    
0.0386804370    0.0201273270    0.0004315752    
0.0389030980    0.0200970660    0.0004279848    
0.0391257590    0.0198970580    0.0004229589    
0.0393484200    0.0197008410    0.0004194518    
0.0395710810    0.0203449640    0.0004268279    
0.0397937420    0.0197271070    0.0004202969    
0.0400164030    0.0198518290    0.0004233386    
0.0402390640    0.0196430610    0.0004154994    
0.0404617250    0.0203065810    0.0004199664    
0.0406843860    0.0199501580    0.0004122426    
0.0409070470    0.0196896250    0.0004138083    
0.0411297080    0.0201549140    0.0004146189    
0.0413523690    0.0202503810    0.0004166710    
0.0415750300    0.0194971960    0.0004123217    
0.0417976910    0.0198669980    0.0004054489    
0.0420203520    0.0198498410    0.0004067966    
0.0422430130    0.0198408240    0.0004082440    
0.0424656740    0.0192622510    0.0003970122    
0.0426883350    0.0196853280    0.0004033405    
0.0429109960    0.0200580080    0.0004084126    
0.0431336570    0.0190198770    0.0003920999    
0.0433563180    0.0192343180    0.0003977056    
0.0435789790    0.0197022730    0.0003961907    
0.0438016400    0.0190151890    0.0003913386    
0.0440243010    0.0200043680    0.0003973158    
0.0442469620    0.0193903050    0.0003935141    
0.0444696230    0.0191642690    0.0003898109    
0.0446922840    0.0193580120    0.0003906129    
0.0449149450    0.0201022060    0.0003927291    
0.0451376060    0.0192886360    0.0003894509    
0.0453602670    0.0197563580    0.0003900125    
0.0455829280    0.0201408570    0.0003933341    
0.0458055890    0.0197625040    0.0003918942    
0.0460282500    0.0196831830    0.0003863907    
0.0462509110    0.0203005640    0.0003899631    
0.0464735720    0.0198060320    0.0003854014    
0.0466962330    0.0199335390    0.0003883976    
0.0469188940    0.0198658310    0.0003866382    
0.0471415550    0.0193405820    0.0003834520    
0.0473642160    0.0204879150    0.0003891358    
0.0475868770    0.0199482410    0.0003820689    
0.0478095380    0.0194911370    0.0003760134    
0.0480321990    0.0200939250    0.0003826200    
0.0482548600    0.0201358820    0.0003813505    
0.0484775210    0.0192854240    0.0003769158    
0.0487001820    0.0204272050    0.0003822345    
0.0489228430    0.0199051290    0.0003771155    
0.0491455040    0.0200394180    0.0003757685    
0.0493681650    0.0193818200    0.0003727273    
0.0495908260    0.0191785360    0.0003645293    
0.0498134870    0.0193618210    0.0003697537    
0.0500361480    0.0187678300    0.0003630746    
0.0502588090    0.0193204650    0.0003628616    
0.0504814700    0.0201856270    0.0003757458    
0.0507041310    0.0194080160    0.0003640568    
0.0509267920    0.0191626780    0.0003632450    
0.0511494530    0.0198319740    0.0003670700    
0.0513721140    0.0204732180    0.0003762417    
0.0515947750    0.0198396710    0.0003654638    
0.0518174360    0.0194683490    0.0003598469    
0.0520400970    0.0198946020    0.0003612427    
0.0522627580    0.0199673340    0.0003649780    
0.0524854190    0.0196017620    0.0003645617    
0.0527080800    0.0198238430    0.0003694596    
0.0529307410    0.0197324680    0.0003703384    
0.0531534020    0.0192992530    0.0003649171    
0.0533760630    0.0193161210    0.0003662194    
0.0535987240    0.0199478460    0.0003704222    
0.0538213850    0.0199341080    0.0003745848    
0.0540440460    0.0200108240    0.0003735287    
0.0542667070    0.0193545010    0.0003698837    
0.0544893680    0.0195803470    0.0003722338    
0.0547120290    0.0192780880    0.0003668192    
0.0549346900    0.0193752360    0.0003679358    
0.0551573510    0.0202417840    0.0003805008    
0.0553800120    0.0194631340    0.0003699387    
0.0556026730    0.0193481770    0.0003764921    
0.0558253340    0.0193308910    0.0003794750    
0.0560479950    0.0194277510    0.0003804247    
0.0562706560    0.0190989790    0.0003808388    
0.0564933170    0.0195171120    0.0003883282    
0.0567159780    0.0195044500    0.0003835478    
0.0569386390    0.0202611760    0.0003970490    
0.0571613000    0.0204633050    0.0003904329    
0.0573839610    0.0195095070    0.0003780600    
0.0576066220    0.0197060740    0.0003810116    
0.0578292830    0.0195392880    0.0003781404    
0.0580519440    0.0194698630    0.0003789317    
0.0582746050    0.0196055530    0.0003785731    
0.0584972660    0.0192526310    0.0003737142    
0.0587199270    0.0196208410    0.0003740188    
0.0589425880    0.0193849400    0.0003695891    
0.0591652490    0.0188651360    0.0003667457    
0.0593879100    0.0184735810    0.0003602245    
0.0596105710    0.0190234130    0.0003651603    
0.0598332320    0.0199346520    0.0003769989    
0.0600558930    0.0191814910    0.0003674507    
0.0602785540    0.0201243470    0.0003759755    
0.0605012150    0.0193611550    0.0003680003    
0.0607238760    0.0198175550    0.0003695993    
0.0609465370    0.0187514170    0.0003623504    
0.0611691980    0.0198645370    0.0003735414    
0.0613918590    0.0195706020    0.0003667197    
0.0616145200    0.0198790420    0.0003723033    
0.0618371810    0.0194699720    0.0003648340    
0.0620598420    0.0191539140    0.0003622338    
0.0622825030    0.0191157440    0.0003674067    
0.0625051640    0.0200859330    0.0003713256    
0.0627278250    0.0197845320    0.0003677702    
0.0629504860    0.0200223900    0.0003669666    
0.0631731470    0.0193559540    0.0003652717    
0.0633958080    0.0197676550    0.0003712604    
0.0636184690    0.0198274980    0.0003770004    
0.0638411300    0.0195508580    0.0003729559    
0.0640637910    0.0200360780    0.0003802111    
0.0642864520    0.0200643990    0.0003796564    
0.0645091130    0.0190359500    0.0003730388    
0.0647317740    0.0194076360    0.0003770784    
0.0649544350    0.0190506140    0.0003731829    
0.0651770960    0.0189951850    0.0003706069    
0.0653997570    0.0194960410    0.0003746469    
0.0656224180    0.0198846130    0.0003791847    
0.0658450790    0.0198017880    0.0003729554    
0.0660677400    0.0195598060    0.0003722471    
0.0662904010    0.0194782670    0.0003759051    
0.0665130620    0.0197483390    0.0003768602    
0.0667357230    0.0197416540    0.0003834958    
0.0669583840    0.0201055680    0.0003857194    
0.0671810450    0.0193865120    0.0003766680    
0.0674037060    0.0190726090    0.0003799355    
0.0676263670    0.0195998270    0.0003823310    
0.0678490280    0.0198102240    0.0003820269    
0.0680716890    0.0197652900    0.0003824426    
0.0682943500    0.0198558870    0.0003791197    
0.0685170110    0.0194674670    0.0003715680    
0.0687396720    0.0200837030    0.0003764004    
0.0689623330    0.0199986740    0.0003744125    
0.0691849940    0.0195518240    0.0003727709    
0.0694076550    0.0191191830    0.0003684268    
0.0696303160    0.0196282040    0.0003703435    
0.0698529770    0.0197060580    0.0003702995    
0.0700756380    0.0196644750    0.0003651601    
0.0702982990    0.0195407610    0.0003679738    
0.0705209600    0.0201747970    0.0003711965    
0.0707436210    0.0199357840    0.0003672966    
0.0709662820    0.0196447760    0.0003689526    
0.0711889430    0.0199425940    0.0003671729    
0.0714116040    0.0199222840    0.0003677351    
0.0716342650    0.0196531070    0.0003637594    
0.0718569260    0.0196086540    0.0003618843    
0.0720795870    0.0195858280    0.0003631367    
0.0723022480    0.0199292080    0.0003668643    
0.0725249090    0.0198502830    0.0003617523    
0.0727475700    0.0208144580    0.0003735978    
0.0729702310    0.0196060810    0.0003596992    
0.0731928920    0.0199028050    0.0003638593    
0.0734155530    0.0196511940    0.0003608306    
0.0736382140    0.0199884420    0.0003615782    
0.0738608750    0.0193067200    0.0003576545    
0.0740835360    0.0192637180    0.0003563691    
0.0743061970    0.0197375380    0.0003556458    
0.0745288580    0.0191055460    0.0003535035    
0.0747515190    0.0196210500    0.0003589483    
0.0749741800    0.0200071760    0.0003591079    
0.0751968410    0.0194779950    0.0003571090    
0.0754195020    0.0194639640    0.0003548889    
0.0756421630    0.0191979710    0.0003495744    
0.0758648240    0.0196741440    0.0003547339    
0.0760874850    0.0194252180    0.0003523134    
0.0763101460    0.0196558200    0.0003540584    
0.0765328070    0.0194287750    0.0003556094    
0.0767554680    0.0197952320    0.0003565117    
0.0769781290    0.0195874210    0.0003525975    
0.0772007900    0.0191495750    0.0003458383    
0.0774234510    0.0191974770    0.0003482401    
0.0776461120    0.0196907010    0.0003523507    
0.0778687730    0.0191411650    0.0003462515    
0.0780914340    0.0196444020    0.0003532800    
0.0783140950    0.0200782070    0.0003514928    
0.0785367560    0.0195745700    0.0003526520    
0.0787594170    0.0195061780    0.0003488813    
0.0789820780    0.0200602890    0.0003519891    
0.0792047390    0.0200549090    0.0003530925    
0.0794274000    0.0189838660    0.0003449902    
0.0796500610    0.0196602040    0.0003476553    
0.0798727220    0.0197343790    0.0003479889    
0.0800953830    0.0192650130    0.0003430350    
0.0803180440    0.0194724200    0.0003472791    
0.0805407050    0.0196525910    0.0003485576    
0.0807633660    0.0194865420    0.0003467598    
0.0809860270    0.0200105200    0.0003500933    
0.0812086880    0.0191003180    0.0003390826    
0.0814313490    0.0193113860    0.0003425060    
0.0816540100    0.0194049660    0.0003425532    
0.0818766710    0.0187829440    0.0003377878    
0.0820993320    0.0192713820    0.0003415280    
0.0823219930    0.0198517570    0.0003480622    
0.0825446540    0.0202379340    0.0003488781    
0.0827673150    0.0194447540    0.0003396755    
0.0829899760    0.0196061750    0.0003404753    
0.0832126370    0.0196032320    0.0003419746    
0.0834352980    0.0197235350    0.0003422554    
0.0836579590    0.0197777290    0.0003419624    
0.0838806200    0.0192888830    0.0003387666    
0.0841032810    0.0194908490    0.0003384216    
0.0843259420    0.0195169850    0.0003376055    
0.0845486030    0.0194352560    0.0003368981    
0.0847712640    0.0195394600    0.0003357415    
0.0849939250    0.0193644310    0.0003348164    
0.0852165860    0.0188870110    0.0003310964    
0.0854392470    0.0187872530    0.0003270937    
0.0856619080    0.0195735610    0.0003363274    
0.0858845690    0.0193758050    0.0003316103    
0.0861072300    0.0191033670    0.0003315438    
0.0863298910    0.0199609880    0.0003406788    
0.0865525520    0.0198749020    0.0003370080    
0.0867752130    0.0190044380    0.0003268863    
0.0869978740    0.0199491260    0.0003357658    
0.0872205350    0.0197969300    0.0003340570    
0.0874431960    0.0193685530    0.0003304233    
0.0876658570    0.0198186290    0.0003355236    
0.0878885180    0.0190601750    0.0003296050    
0.0881111790    0.0192386980    0.0003307200    
0.0883338400    0.0193639350    0.0003269368    
0.0885565010    0.0198132860    0.0003351931    
0.0887791620    0.0197336640    0.0003301809    
0.0890018230    0.0191326940    0.0003282679    
0.0892244840    0.0195481880    0.0003323772    
0.0894471450    0.0196355630    0.0003317121    
0.0896698060    0.0199270750    0.0003329049    
0.0898924670    0.0192870940    0.0003290336    
0.0901151280    0.0193725200    0.0003261996    
0.0903377890    0.0197316500    0.0003319645    
0.0905604500    0.0196450340    0.0003297149    
0.0907831110    0.0193767140    0.0003266409    
0.0910057720    0.0194938330    0.0003291300    
0.0912284330    0.0191123790    0.0003212278    
0.0914510940    0.0202144580    0.0003340434    
0.0916737550    0.0197242720    0.0003291496    
0.0918964160    0.0194566720    0.0003282687    
0.0921190770    0.0191336130    0.0003225886    
0.0923417380    0.0191166560    0.0003225779    
0.0925643990    0.0192561220    0.0003229602    
0.0927870600    0.0196546710    0.0003276234    
0.0930097210    0.0189508760    0.0003189642    
0.0932323820    0.0192740930    0.0003240373    
