# Diamond Light Source Ltd.
# Data extracted from: /dls/b21/data/2018/cm19678-3/processed/b21-386631_00574.dat
q(1/A)          Column          Error           
0.0035000000    2.0549838000    0.0243727290    
0.0037226610    1.8502395000    0.0226397810    
0.0039453220    1.6080352000    0.0192005060    
0.0041679830    1.2870382000    0.0141066990    
0.0043906440    0.9617784300    0.0116641340    
0.0046133050    0.7763176800    0.0100600140    
0.0048359660    0.5760923300    0.0081973331    
0.0050586270    0.4583002800    0.0071864272    
0.0052812880    0.4156361200    0.0064706613    
0.0055039490    0.3853436500    0.0059241588    
0.0057266100    0.3237341000    0.0052530431    
0.0059492710    0.2727617700    0.0048217925    
0.0061719320    0.2190070300    0.0041634511    
0.0063945930    0.2030246100    0.0040572478    
0.0066172539    0.1785105400    0.0035723548    
0.0068399149    0.1684304700    0.0034153788    
0.0070625759    0.1426050900    0.0031104173    
0.0072852369    0.1276394300    0.0028986513    
0.0075078979    0.1146553100    0.0027337654    
0.0077305589    0.1021120700    0.0025307537    
0.0079532199    0.0956418940    0.0024153226    
0.0081758809    0.0937014330    0.0024129347    
0.0083985419    0.0847558500    0.0021404084    
0.0086212029    0.0795667290    0.0020738512    
0.0088438639    0.0681346440    0.0019036777    
0.0090665249    0.0634095970    0.0017737384    
0.0092891859    0.0611885730    0.0018186416    
0.0095118469    0.0612369460    0.0017496270    
0.0097345079    0.0562536210    0.0016286594    
0.0099571689    0.0524650260    0.0015404262    
0.0101798300    0.0488467570    0.0014863595    
0.0104024910    0.0492354860    0.0014872122    
0.0106251520    0.0463592070    0.0014480184    
0.0108478130    0.0473122240    0.0014245759    
0.0110704740    0.0441295390    0.0013098798    
0.0112931350    0.0433722900    0.0013024066    
0.0115157960    0.0415537130    0.0012673764    
0.0117384570    0.0362063510    0.0011728387    
0.0119611180    0.0392037950    0.0012239239    
0.0121837790    0.0357177470    0.0011486053    
0.0124064400    0.0356174980    0.0010991798    
0.0126291010    0.0344007220    0.0010667211    
0.0128517620    0.0335422000    0.0010559563    
0.0130744230    0.0342583250    0.0010592544    
0.0132970840    0.0324646550    0.0010261096    
0.0135197450    0.0316675370    0.0009989213    
0.0137424060    0.0334881540    0.0010129340    
0.0139650670    0.0301091260    0.0009390778    
0.0141877280    0.0298599180    0.0009372503    
0.0144103890    0.0304301940    0.0009298438    
0.0146330500    0.0277726980    0.0008826743    
0.0148557110    0.0275681160    0.0008757301    
0.0150783720    0.0273332120    0.0008647846    
0.0153010330    0.0279242080    0.0008617598    
0.0155236940    0.0275930980    0.0008515415    
0.0157463550    0.0272542860    0.0008316348    
0.0159690160    0.0260152690    0.0008094279    
0.0161916770    0.0258723780    0.0008026544    
0.0164143380    0.0256591620    0.0008053960    
0.0166369990    0.0257871950    0.0007825087    
0.0168596600    0.0255447520    0.0007719597    
0.0170823210    0.0248979960    0.0007555261    
0.0173049820    0.0244550260    0.0007500695    
0.0175276430    0.0241042580    0.0007525235    
0.0177503040    0.0247650770    0.0007433241    
0.0179729650    0.0242763000    0.0007286534    
0.0181956260    0.0240066640    0.0007107044    
0.0184182870    0.0234891130    0.0006996884    
0.0186409480    0.0242517460    0.0007154561    
0.0188636090    0.0229889170    0.0006921987    
0.0190862700    0.0233118480    0.0006959536    
0.0193089310    0.0224728770    0.0006822504    
0.0195315920    0.0229803970    0.0006664485    
0.0197542530    0.0221751300    0.0006556215    
0.0199769140    0.0227178860    0.0006635965    
0.0201995750    0.0233642420    0.0006624323    
0.0204222360    0.0235760290    0.0006711399    
0.0206448970    0.0232044300    0.0006610976    
0.0208675580    0.0222405380    0.0006338935    
0.0210902190    0.0224507950    0.0006430280    
0.0213128800    0.0221682380    0.0006302986    
0.0215355410    0.0222030980    0.0006232794    
0.0217582020    0.0218881690    0.0006188434    
0.0219808630    0.0215340670    0.0006130113    
0.0222035240    0.0221394510    0.0006159360    
0.0224261850    0.0215114650    0.0006017340    
0.0226488460    0.0218362370    0.0006017068    
0.0228715070    0.0219918460    0.0006023468    
0.0230941680    0.0218763690    0.0006007634    
0.0233168290    0.0211067300    0.0005915708    
0.0235394900    0.0216164020    0.0005920635    
0.0237621510    0.0215583990    0.0005753511    
0.0239848120    0.0217929980    0.0005791424    
0.0242074730    0.0216423980    0.0005725181    
0.0244301340    0.0219043350    0.0005766296    
0.0246527950    0.0215696850    0.0005775062    
0.0248754560    0.0217191610    0.0005664797    
0.0250981170    0.0206733820    0.0005539059    
0.0253207780    0.0206585500    0.0005371749    
0.0255434390    0.0208165230    0.0005449800    
0.0257661000    0.0210375740    0.0005496381    
0.0259887610    0.0210566800    0.0005440440    
0.0262114220    0.0217504750    0.0005558801    
0.0264340830    0.0204438510    0.0005315922    
0.0266567440    0.0203831200    0.0005275222    
0.0268794050    0.0207316430    0.0005298417    
0.0271020660    0.0215715120    0.0005382795    
0.0273247270    0.0200126250    0.0005153513    
0.0275473880    0.0195761700    0.0005086865    
0.0277700490    0.0200899760    0.0005122727    
0.0279927100    0.0207420980    0.0005159790    
0.0282153710    0.0201018370    0.0005104225    
0.0284380320    0.0204459390    0.0005117886    
0.0286606930    0.0197574440    0.0004987918    
0.0288833540    0.0208943600    0.0005139166    
0.0291060150    0.0207159440    0.0005112321    
0.0293286760    0.0208050600    0.0005051915    
0.0295513370    0.0206064500    0.0004972995    
0.0297739980    0.0209768220    0.0005072729    
0.0299966590    0.0209182310    0.0004979120    
0.0302193200    0.0203977890    0.0004988442    
0.0304419810    0.0197749890    0.0004920735    
0.0306646420    0.0197498510    0.0004778811    
0.0308873030    0.0196139950    0.0004741776    
0.0311099640    0.0197966460    0.0004776173    
0.0313326250    0.0206902240    0.0004828685    
0.0315552860    0.0198192740    0.0004787208    
0.0317779470    0.0203055630    0.0004849803    
0.0320006080    0.0200349950    0.0004707930    
0.0322232690    0.0204596680    0.0004777480    
0.0324459300    0.0203641270    0.0004730729    
0.0326685910    0.0209652110    0.0004792127    
0.0328912520    0.0199906420    0.0004694916    
0.0331139130    0.0198821010    0.0004621246    
0.0333365740    0.0199681830    0.0004646277    
0.0335592350    0.0195224030    0.0004549947    
0.0337818960    0.0207300490    0.0004684832    
0.0340045570    0.0205692680    0.0004659217    
0.0342272170    0.0200827270    0.0004585623    
0.0344498780    0.0202210190    0.0004619610    
0.0346725390    0.0199466330    0.0004503188    
0.0348952000    0.0202287190    0.0004514259    
0.0351178610    0.0199771570    0.0004506635    
0.0353405220    0.0192918550    0.0004408487    
0.0355631830    0.0208465330    0.0004565421    
0.0357858440    0.0197667250    0.0004445610    
0.0360085050    0.0194337060    0.0004421321    
0.0362311660    0.0199467210    0.0004426052    
0.0364538270    0.0197051310    0.0004363859    
0.0366764880    0.0188466360    0.0004264643    
0.0368991490    0.0196792740    0.0004335862    
0.0371218100    0.0209061180    0.0004456187    
0.0373444710    0.0204806420    0.0004458639    
0.0375671320    0.0204210310    0.0004445662    
0.0377897930    0.0198917110    0.0004274083    
0.0380124540    0.0197422430    0.0004284711    
0.0382351150    0.0200863280    0.0004321890    
0.0384577760    0.0206491430    0.0004339741    
0.0386804370    0.0196690550    0.0004267821    
0.0389030980    0.0201384140    0.0004285739    
0.0391257590    0.0196679800    0.0004206634    
0.0393484200    0.0199469080    0.0004222100    
0.0395710810    0.0200634140    0.0004240116    
0.0397937420    0.0200455060    0.0004238225    
0.0400164030    0.0194500830    0.0004191789    
0.0402390640    0.0198150400    0.0004174595    
0.0404617250    0.0195993190    0.0004127316    
0.0406843860    0.0194866780    0.0004075676    
0.0409070470    0.0200688480    0.0004179197    
0.0411297080    0.0191105620    0.0004038745    
0.0413523690    0.0202215770    0.0004165194    
0.0415750300    0.0198336170    0.0004160085    
0.0417976910    0.0195744560    0.0004025928    
0.0420203520    0.0201306170    0.0004098061    
0.0422430130    0.0202665190    0.0004127438    
0.0424656740    0.0196359490    0.0004009842    
0.0426883350    0.0190457010    0.0003968716    
0.0429109960    0.0200719670    0.0004086968    
0.0431336570    0.0203758670    0.0004059775    
0.0433563180    0.0200047750    0.0004057338    
0.0435789790    0.0191260200    0.0003904896    
0.0438016400    0.0196731800    0.0003981903    
0.0440243010    0.0194971030    0.0003923824    
0.0442469620    0.0191480660    0.0003911844    
0.0444696230    0.0195346570    0.0003936967    
0.0446922840    0.0197658550    0.0003948436    
0.0449149450    0.0193944700    0.0003858880    
0.0451376060    0.0196482850    0.0003932017    
0.0453602670    0.0199319040    0.0003918777    
0.0455829280    0.0195014930    0.0003871753    
0.0458055890    0.0198151410    0.0003925522    
0.0460282500    0.0197424230    0.0003871063    
0.0462509110    0.0195350870    0.0003826733    
0.0464735720    0.0198048060    0.0003855235    
0.0466962330    0.0194248710    0.0003835433    
0.0469188940    0.0193826650    0.0003820403    
0.0471415550    0.0198257210    0.0003883665    
0.0473642160    0.0195480680    0.0003802378    
0.0475868770    0.0199255090    0.0003819840    
0.0478095380    0.0194103350    0.0003753638    
0.0480321990    0.0198964770    0.0003808679    
0.0482548600    0.0196801160    0.0003771411    
0.0484775210    0.0197632560    0.0003816894    
0.0487001820    0.0199046190    0.0003774447    
0.0489228430    0.0196973420    0.0003752726    
0.0491455040    0.0195456840    0.0003712396    
0.0493681650    0.0196463570    0.0003753929    
0.0495908260    0.0201695040    0.0003739585    
0.0498134870    0.0197921960    0.0003739706    
0.0500361480    0.0196243440    0.0003713962    
0.0502588090    0.0198249310    0.0003676962    
0.0504814700    0.0199966980    0.0003741133    
0.0507041310    0.0196402030    0.0003663554    
0.0509267920    0.0198788360    0.0003700991    
0.0511494530    0.0197233970    0.0003661911    
0.0513721140    0.0200238860    0.0003722195    
0.0515947750    0.0194694780    0.0003621641    
0.0518174360    0.0197481350    0.0003625495    
0.0520400970    0.0195933780    0.0003586222    
0.0522627580    0.0195406140    0.0003611826    
0.0524854190    0.0197646730    0.0003662009    
0.0527080800    0.0206162610    0.0003769026    
0.0529307410    0.0196488260    0.0003696812    
0.0531534020    0.0194438740    0.0003664093    
0.0533760630    0.0194546290    0.0003676579    
0.0535987240    0.0192940430    0.0003644280    
0.0538213850    0.0193915230    0.0003695803    
0.0540440460    0.0206038630    0.0003791551    
0.0542667070    0.0195377410    0.0003717599    
0.0544893680    0.0194806720    0.0003714143    
0.0547120290    0.0199759960    0.0003735299    
0.0549346900    0.0198711660    0.0003727446    
0.0551573510    0.0196761100    0.0003752769    
0.0553800120    0.0192092970    0.0003676462    
0.0556026730    0.0193103230    0.0003762545    
0.0558253340    0.0196052500    0.0003822914    
0.0560479950    0.0198214490    0.0003843937    
0.0562706560    0.0203813560    0.0003935534    
0.0564933170    0.0201105840    0.0003943252    
0.0567159780    0.0194802860    0.0003834434    
0.0569386390    0.0197068830    0.0003917165    
0.0571613000    0.0195606410    0.0003818574    
0.0573839610    0.0194644340    0.0003777544    
0.0576066220    0.0199778040    0.0003837630    
0.0578292830    0.0203437890    0.0003859808    
0.0580519440    0.0194834130    0.0003791954    
0.0582746050    0.0195606760    0.0003782711    
0.0584972660    0.0195781770    0.0003769917    
0.0587199270    0.0199484190    0.0003772593    
0.0589425880    0.0200260060    0.0003757813    
0.0591652490    0.0199984040    0.0003777320    
0.0593879100    0.0194634770    0.0003698784    
0.0596105710    0.0198012050    0.0003726801    
0.0598332320    0.0199841980    0.0003775984    
0.0600558930    0.0199908100    0.0003752530    
0.0602785540    0.0196041410    0.0003712133    
0.0605012150    0.0196966060    0.0003713038    
0.0607238760    0.0199348140    0.0003708201    
0.0609465370    0.0200607420    0.0003749180    
0.0611691980    0.0200189440    0.0003751208    
0.0613918590    0.0193160380    0.0003644536    
0.0616145200    0.0193974730    0.0003678940    
0.0618371810    0.0197161200    0.0003672607    
0.0620598420    0.0196539650    0.0003670594    
0.0622825030    0.0193551750    0.0003698291    
0.0625051640    0.0196808770    0.0003676903    
0.0627278250    0.0198598710    0.0003685980    
0.0629504860    0.0199488290    0.0003664193    
0.0631731470    0.0193556280    0.0003653957    
0.0633958080    0.0189789920    0.0003639056    
0.0636184690    0.0190737560    0.0003698938    
0.0638411300    0.0197068550    0.0003745711    
0.0640637910    0.0198767410    0.0003788280    
0.0642864520    0.0198626980    0.0003778747    
0.0645091130    0.0194442270    0.0003771492    
0.0647317740    0.0192891750    0.0003760566    
0.0649544350    0.0201977560    0.0003843881    
0.0651770960    0.0191024690    0.0003717813    
0.0653997570    0.0196681060    0.0003764274    
0.0656224180    0.0195583690    0.0003761920    
0.0658450790    0.0201670330    0.0003765102    
0.0660677400    0.0197577390    0.0003742560    
0.0662904010    0.0194337460    0.0003756059    
0.0665130620    0.0196037550    0.0003756088    
0.0667357230    0.0198373970    0.0003845584    
0.0669583840    0.0193346230    0.0003783836    
0.0671810450    0.0199419440    0.0003821586    
0.0674037060    0.0195706030    0.0003849975    
0.0676263670    0.0201806760    0.0003880899    
0.0678490280    0.0186813100    0.0003711112    
0.0680716890    0.0196531590    0.0003814889    
0.0682943500    0.0195292470    0.0003761192    
0.0685170110    0.0194952090    0.0003719620    
0.0687396720    0.0193917550    0.0003699881    
0.0689623330    0.0199985620    0.0003745417    
0.0691849940    0.0193947400    0.0003713996    
0.0694076550    0.0192745790    0.0003700497    
0.0696303160    0.0189705870    0.0003642134    
0.0698529770    0.0196988830    0.0003703609    
0.0700756380    0.0199902960    0.0003683010    
0.0702982990    0.0197485170    0.0003700535    
0.0705209600    0.0197514350    0.0003674090    
0.0707436210    0.0194756340    0.0003631593    
0.0709662820    0.0196099070    0.0003687532    
0.0711889430    0.0190838000    0.0003593050    
0.0714116040    0.0196576540    0.0003654117    
0.0716342650    0.0197274210    0.0003645732    
0.0718569260    0.0197626510    0.0003634290    
0.0720795870    0.0194512330    0.0003620126    
0.0723022480    0.0201525780    0.0003690428    
0.0725249090    0.0193231290    0.0003570407    
0.0727475700    0.0194667410    0.0003614260    
0.0729702310    0.0191442560    0.0003555612    
0.0731928920    0.0194107510    0.0003594584    
0.0734155530    0.0195720490    0.0003602285    
0.0736382140    0.0200154430    0.0003619482    
0.0738608750    0.0193731970    0.0003583944    
0.0740835360    0.0196333750    0.0003598972    
0.0743061970    0.0195332400    0.0003539235    
0.0745288580    0.0194919240    0.0003571843    
0.0747515190    0.0192798610    0.0003559376    
0.0749741800    0.0196856940    0.0003563350    
0.0751968410    0.0196946550    0.0003592145    
0.0754195020    0.0193480040    0.0003539532    
0.0756421630    0.0195361910    0.0003527630    
0.0758648240    0.0202190750    0.0003597381    
0.0760874850    0.0195794110    0.0003538319    
0.0763101460    0.0195163300    0.0003529226    
0.0765328070    0.0193315700    0.0003548421    
0.0767554680    0.0196805030    0.0003556008    
0.0769781290    0.0197916000    0.0003545538    
0.0772007900    0.0193254050    0.0003475432    
0.0774234510    0.0197418380    0.0003532658    
0.0776461120    0.0192122680    0.0003481649    
0.0778687730    0.0199693040    0.0003537855    
0.0780914340    0.0203828530    0.0003599840    
0.0783140950    0.0198335620    0.0003494663    
0.0785367560    0.0193465990    0.0003507144    
0.0787594170    0.0199880770    0.0003532874    
0.0789820780    0.0196786980    0.0003487465    
0.0792047390    0.0195151990    0.0003484301    
0.0794274000    0.0195428980    0.0003501547    
0.0796500610    0.0198584450    0.0003495252    
0.0798727220    0.0195516140    0.0003464943    
0.0800953830    0.0196512740    0.0003465774    
0.0803180440    0.0196409180    0.0003488997    
0.0805407050    0.0193198340    0.0003457143    
0.0807633660    0.0195495020    0.0003474403    
0.0809860270    0.0194666790    0.0003454233    
0.0812086880    0.0190654200    0.0003388906    
0.0814313490    0.0198719260    0.0003475622    
0.0816540100    0.0190735490    0.0003397335    
0.0818766710    0.0188020950    0.0003380775    
0.0820993320    0.0192605660    0.0003415509    
0.0823219930    0.0195296960    0.0003453474    
0.0825446540    0.0194636040    0.0003422577    
0.0827673150    0.0197373640    0.0003423408    
0.0829899760    0.0202114910    0.0003458115    
0.0832126370    0.0190974990    0.0003376520    
0.0834352980    0.0203434640    0.0003477134    
0.0836579590    0.0198565770    0.0003427626    
0.0838806200    0.0195940450    0.0003415546    
0.0841032810    0.0196866980    0.0003402359    
0.0843259420    0.0190572050    0.0003337212    
0.0845486030    0.0198227960    0.0003403588    
0.0847712640    0.0194722370    0.0003352800    
0.0849939250    0.0192678380    0.0003340965    
0.0852165860    0.0192021850    0.0003339637    
0.0854392470    0.0193303160    0.0003319029    
0.0856619080    0.0197433250    0.0003379003    
0.0858845690    0.0192700230    0.0003308189    
0.0861072300    0.0192663700    0.0003330711    
0.0863298910    0.0198759650    0.0003400708    
0.0865525520    0.0195513460    0.0003343699    
0.0867752130    0.0195127980    0.0003313447    
0.0869978740    0.0204719810    0.0003402558    
0.0872205350    0.0188799650    0.0003263423    
0.0874431960    0.0195174130    0.0003318060    
0.0876658570    0.0192981000    0.0003312033    
0.0878885180    0.0194099630    0.0003327314    
0.0881111790    0.0190814130    0.0003294799    
0.0883338400    0.0196867430    0.0003297653    
0.0885565010    0.0192766380    0.0003307376    
0.0887791620    0.0194212230    0.0003276706    
0.0890018230    0.0195010870    0.0003315284    
0.0892244840    0.0188888080    0.0003268371    
0.0894471450    0.0192847310    0.0003288497    
0.0896698060    0.0192174360    0.0003270372    
0.0898924670    0.0191544710    0.0003280144    
0.0901151280    0.0196773140    0.0003288700    
0.0903377890    0.0201086570    0.0003352374    
0.0905604500    0.0193209080    0.0003270974    
0.0907831110    0.0201340680    0.0003330790    
0.0910057720    0.0188122950    0.0003234378    
0.0912284330    0.0192823590    0.0003227653    
0.0914510940    0.0188972660    0.0003230892    
0.0916737550    0.0195840960    0.0003280920    
0.0918964160    0.0192651460    0.0003267627    
0.0921190770    0.0197456110    0.0003278211    
0.0923417380    0.0199197790    0.0003293988    
0.0925643990    0.0200825830    0.0003299328    
0.0927870600    0.0196792790    0.0003279424    
0.0930097210    0.0198128810    0.0003262512    
0.0932323820    0.0190748970    0.0003224707    
