# Diamond Light Source Ltd.
# Data extracted from: /dls/b21/data/2018/cm19678-3/processed/b21-386631_00588.dat
q(1/A)          Column          Error           
0.0035000000    2.0755594000    0.0245032790    
0.0037226610    1.8446444000    0.0226136810    
0.0039453220    1.6346622000    0.0193658060    
0.0041679830    1.2610442000    0.0139685560    
0.0043906440    0.9719572200    0.0117299250    
0.0046133050    0.7678764100    0.0100087810    
0.0048359660    0.5861963800    0.0082718906    
0.0050586270    0.4621269100    0.0072189707    
0.0052812880    0.4134159100    0.0064556845    
0.0055039490    0.3837078000    0.0059137040    
0.0057266100    0.3168026000    0.0051983772    
0.0059492710    0.2663905800    0.0047668653    
0.0061719320    0.2193235200    0.0041679618    
0.0063945930    0.1931099600    0.0039583683    
0.0066172539    0.1861512600    0.0036493232    
0.0068399149    0.1639085400    0.0033704355    
0.0070625759    0.1517375900    0.0032096260    
0.0072852369    0.1280609400    0.0029044811    
0.0075078979    0.1151946700    0.0027411767    
0.0077305589    0.0986080170    0.0024878497    
0.0079532199    0.0990681350    0.0024590917    
0.0081758809    0.0933337990    0.0024090654    
0.0083985419    0.0828156040    0.0021165307    
0.0086212029    0.0760540540    0.0020282884    
0.0088438639    0.0690354550    0.0019169121    
0.0090665249    0.0624126720    0.0017603748    
0.0092891859    0.0636669020    0.0018557757    
0.0095118469    0.0608809430    0.0017451634    
0.0097345079    0.0573323410    0.0016447941    
0.0099571689    0.0555806500    0.0015860776    
0.0101798300    0.0518239870    0.0015315391    
0.0104024910    0.0502600410    0.0015031487    
0.0106251520    0.0462116240    0.0014462333    
0.0108478130    0.0444703930    0.0013816279    
0.0110704740    0.0440446650    0.0013090918    
0.0112931350    0.0407813760    0.0012633626    
0.0115157960    0.0394561670    0.0012354205    
0.0117384570    0.0387797840    0.0012142421    
0.0119611180    0.0367083900    0.0011847582    
0.0121837790    0.0375547300    0.0011781967    
0.0124064400    0.0371707720    0.0011232968    
0.0126291010    0.0346241610    0.0010705659    
0.0128517620    0.0346642220    0.0010738598    
0.0130744230    0.0331359140    0.0010421335    
0.0132970840    0.0319363420    0.0010180934    
0.0135197450    0.0307128800    0.0009841041    
0.0137424060    0.0297717000    0.0009554193    
0.0139650670    0.0302480990    0.0009415822    
0.0141877280    0.0297342710    0.0009356138    
0.0144103890    0.0300256580    0.0009239757    
0.0146330500    0.0284384340    0.0008935132    
0.0148557110    0.0289521040    0.0008977666    
0.0150783720    0.0272434200    0.0008636745    
0.0153010330    0.0276249990    0.0008574397    
0.0155236940    0.0267977730    0.0008394824    
0.0157463550    0.0265629050    0.0008213149    
0.0159690160    0.0271429510    0.0008270832    
0.0161916770    0.0268878200    0.0008185494    
0.0164143380    0.0266137170    0.0008205360    
0.0166369990    0.0258770950    0.0007841544    
0.0168596600    0.0265203510    0.0007868467    
0.0170823210    0.0253518820    0.0007626567    
0.0173049820    0.0247259220    0.0007544846    
0.0175276430    0.0248739880    0.0007647202    
0.0177503040    0.0243364130    0.0007371287    
0.0179729650    0.0234621420    0.0007165892    
0.0181956260    0.0247609240    0.0007220432    
0.0184182870    0.0224006360    0.0006835310    
0.0186409480    0.0231709030    0.0006995837    
0.0188636090    0.0231097960    0.0006942665    
0.0190862700    0.0231415460    0.0006936570    
0.0193089310    0.0221160070    0.0006770559    
0.0195315920    0.0242348370    0.0006846436    
0.0197542530    0.0229476520    0.0006671844    
0.0199769140    0.0226566920    0.0006629413    
0.0201995750    0.0218774980    0.0006412408    
0.0204222360    0.0242239780    0.0006805455    
0.0206448970    0.0220902770    0.0006452639    
0.0208675580    0.0227809140    0.0006417795    
0.0210902190    0.0212137130    0.0006252865    
0.0213128800    0.0222380400    0.0006315179    
0.0215355410    0.0223241790    0.0006252021    
0.0217582020    0.0221315870    0.0006224995    
0.0219808630    0.0229466680    0.0006330266    
0.0222035240    0.0218639120    0.0006123120    
0.0224261850    0.0206342450    0.0005895499    
0.0226488460    0.0224659120    0.0006105408    
0.0228715070    0.0215949710    0.0005971023    
0.0230941680    0.0207034440    0.0005846472    
0.0233168290    0.0221009090    0.0006055612    
0.0235394900    0.0220539340    0.0005982412    
0.0237621510    0.0220042100    0.0005814793    
0.0239848120    0.0215006960    0.0005754529    
0.0242074730    0.0214306780    0.0005699165    
0.0244301340    0.0214948070    0.0005714198    
0.0246527950    0.0212448410    0.0005733479    
0.0248754560    0.0205076330    0.0005506521    
0.0250981170    0.0206140460    0.0005533100    
0.0253207780    0.0213863390    0.0005467525    
0.0255434390    0.0203032640    0.0005384136    
0.0257661000    0.0209377950    0.0005485310    
0.0259887610    0.0215220120    0.0005502210    
0.0262114220    0.0200032710    0.0005332784    
0.0264340830    0.0210119170    0.0005391217    
0.0266567440    0.0198923270    0.0005213206    
0.0268794050    0.0205433420    0.0005276203    
0.0271020660    0.0216005230    0.0005388357    
0.0273247270    0.0201200340    0.0005169189    
0.0275473880    0.0204633320    0.0005202729    
0.0277700490    0.0209933620    0.0005238527    
0.0279927100    0.0211167220    0.0005208055    
0.0282153710    0.0208167220    0.0005196068    
0.0284380320    0.0207299160    0.0005155165    
0.0286606930    0.0200111330    0.0005021650    
0.0288833540    0.0204034660    0.0005080270    
0.0291060150    0.0203142580    0.0005064341    
0.0293286760    0.0196784100    0.0004914997    
0.0295513370    0.0203450910    0.0004943140    
0.0297739980    0.0198871230    0.0004940995    
0.0299966590    0.0204945000    0.0004930211    
0.0302193200    0.0204857630    0.0005000992    
0.0304419810    0.0200833450    0.0004960741    
0.0306646420    0.0203889660    0.0004857270    
0.0308873030    0.0208785720    0.0004894013    
0.0311099640    0.0204912880    0.0004860999    
0.0313326250    0.0203442840    0.0004789874    
0.0315552860    0.0192665750    0.0004721689    
0.0317779470    0.0204245440    0.0004865746    
0.0320006080    0.0204922930    0.0004763074    
0.0322232690    0.0208874960    0.0004828914    
0.0324459300    0.0199059220    0.0004678892    
0.0326685910    0.0189853480    0.0004561888    
0.0328912520    0.0203692010    0.0004740871    
0.0331139130    0.0205198950    0.0004696477    
0.0333365740    0.0209130250    0.0004756647    
0.0335592350    0.0200458650    0.0004612207    
0.0337818960    0.0203635920    0.0004644914    
0.0340045570    0.0203834490    0.0004639797    
0.0342272170    0.0197304850    0.0004546871    
0.0344498780    0.0204574030    0.0004648209    
0.0346725390    0.0205714590    0.0004574825    
0.0348952000    0.0194670570    0.0004430055    
0.0351178610    0.0198389690    0.0004492642    
0.0353405220    0.0197493590    0.0004462064    
0.0355631830    0.0197009360    0.0004439806    
0.0357858440    0.0205113980    0.0004530210    
0.0360085050    0.0204946090    0.0004542038    
0.0362311660    0.0201281970    0.0004447745    
0.0364538270    0.0205027120    0.0004452904    
0.0366764880    0.0195458900    0.0004344604    
0.0368991490    0.0196839190    0.0004337938    
0.0371218100    0.0204934680    0.0004413581    
0.0373444710    0.0195337910    0.0004355926    
0.0375671320    0.0198256040    0.0004381951    
0.0377897930    0.0198693070    0.0004273216    
0.0380124540    0.0207429220    0.0004393543    
0.0382351150    0.0187607710    0.0004178356    
0.0384577760    0.0206640470    0.0004342874    
0.0386804370    0.0197666560    0.0004279941    
0.0389030980    0.0195870610    0.0004228189    
0.0391257590    0.0198712540    0.0004229842    
0.0393484200    0.0201401710    0.0004244035    
0.0395710810    0.0202572420    0.0004262086    
0.0397937420    0.0197819860    0.0004211794    
0.0400164030    0.0200427120    0.0004256706    
0.0402390640    0.0203398180    0.0004231040    
0.0404617250    0.0198570030    0.0004155858    
0.0406843860    0.0192362970    0.0004050869    
0.0409070470    0.0198394770    0.0004156745    
0.0411297080    0.0199699610    0.0004130047    
0.0413523690    0.0197210390    0.0004114805    
0.0415750300    0.0196732910    0.0004144732    
0.0417976910    0.0198123120    0.0004051776    
0.0420203520    0.0193854260    0.0004022946    
0.0422430130    0.0200035530    0.0004102053    
0.0424656740    0.0196665110    0.0004014410    
0.0426883350    0.0198042810    0.0004048440    
0.0429109960    0.0189955240    0.0003977303    
0.0431336570    0.0198644180    0.0004009946    
0.0433563180    0.0196568760    0.0004023354    
0.0435789790    0.0203764540    0.0004031978    
0.0438016400    0.0195986620    0.0003975789    
0.0440243010    0.0190607360    0.0003881066    
0.0442469620    0.0194178050    0.0003940722    
0.0444696230    0.0202633750    0.0004011173    
0.0446922840    0.0200405940    0.0003977217    
0.0449149450    0.0193162670    0.0003852481    
0.0451376060    0.0192214980    0.0003890481    
0.0453602670    0.0196070420    0.0003888113    
0.0455829280    0.0191771040    0.0003840802    
0.0458055890    0.0195648430    0.0003902058    
0.0460282500    0.0198630140    0.0003884269    
0.0462509110    0.0196917180    0.0003843430    
0.0464735720    0.0197139600    0.0003847771    
0.0466962330    0.0195298340    0.0003847170    
0.0469188940    0.0202933920    0.0003910538    
0.0471415550    0.0193984640    0.0003842976    
0.0473642160    0.0198582380    0.0003833808    
0.0475868770    0.0193976080    0.0003770259    
0.0478095380    0.0190829300    0.0003723188    
0.0480321990    0.0195898130    0.0003780577    
0.0482548600    0.0198100430    0.0003785205    
0.0484775210    0.0201463670    0.0003855102    
0.0487001820    0.0198115480    0.0003766971    
0.0489228430    0.0199405140    0.0003777182    
0.0491455040    0.0196303540    0.0003721770    
0.0493681650    0.0194595530    0.0003737387    
0.0495908260    0.0198302000    0.0003709334    
0.0498134870    0.0202661110    0.0003785579    
0.0500361480    0.0198495250    0.0003736557    
0.0502588090    0.0196003780    0.0003657398    
0.0504814700    0.0197169530    0.0003716213    
0.0507041310    0.0192098650    0.0003624503    
0.0509267920    0.0196518450    0.0003681128    
0.0511494530    0.0188463430    0.0003580859    
0.0513721140    0.0191035860    0.0003636964    
0.0515947750    0.0190048700    0.0003579459    
0.0518174360    0.0199355680    0.0003643974    
0.0520400970    0.0194564400    0.0003574957    
0.0522627580    0.0190068930    0.0003563444    
0.0524854190    0.0194733940    0.0003636236    
0.0527080800    0.0199209120    0.0003706256    
0.0529307410    0.0193080300    0.0003665935    
0.0531534020    0.0192298870    0.0003645190    
0.0533760630    0.0196911700    0.0003700198    
0.0535987240    0.0201827870    0.0003728613    
0.0538213850    0.0199341840    0.0003748511    
0.0540440460    0.0204022830    0.0003774320    
0.0542667070    0.0197996030    0.0003743780    
0.0544893680    0.0198277950    0.0003748440    
0.0547120290    0.0206055040    0.0003795067    
0.0549346900    0.0194377000    0.0003687897    
0.0551573510    0.0199410070    0.0003779310    
0.0553800120    0.0195259440    0.0003707978    
0.0556026730    0.0195076730    0.0003783087    
0.0558253340    0.0202907870    0.0003890581    
0.0560479950    0.0187988360    0.0003744818    
0.0562706560    0.0194150480    0.0003842493    
0.0564933170    0.0190341200    0.0003837649    
0.0567159780    0.0199928460    0.0003885954    
0.0569386390    0.0193548920    0.0003883425    
0.0571613000    0.0194554010    0.0003809662    
0.0573839610    0.0193904450    0.0003771718    
0.0576066220    0.0200291100    0.0003843941    
0.0578292830    0.0196989110    0.0003799510    
0.0580519440    0.0200439960    0.0003847507    
0.0582746050    0.0201091850    0.0003836764    
0.0584972660    0.0198610940    0.0003798428    
0.0587199270    0.0200342160    0.0003782061    
0.0589425880    0.0193136410    0.0003691703    
0.0591652490    0.0201556340    0.0003793508    
0.0593879100    0.0196604130    0.0003718791    
0.0596105710    0.0195417440    0.0003703639    
0.0598332320    0.0193346200    0.0003715449    
0.0600558930    0.0194131170    0.0003699247    
0.0602785540    0.0191118310    0.0003666549    
0.0605012150    0.0194306410    0.0003689214    
0.0607238760    0.0197214090    0.0003689630    
0.0609465370    0.0194371340    0.0003691778    
0.0611691980    0.0191541190    0.0003670611    
0.0613918590    0.0193162180    0.0003645868    
0.0616145200    0.0195581080    0.0003695475    
0.0618371810    0.0196276600    0.0003665681    
0.0620598420    0.0193594430    0.0003644302    
0.0622825030    0.0194893630    0.0003712428    
0.0625051640    0.0198188210    0.0003691097    
0.0627278250    0.0196756690    0.0003670170    
0.0629504860    0.0191280590    0.0003589316    
0.0631731470    0.0200460850    0.0003719900    
0.0633958080    0.0194675080    0.0003686922    
0.0636184690    0.0196976920    0.0003760307    
0.0638411300    0.0199704420    0.0003772039    
0.0640637910    0.0196598800    0.0003768917    
0.0642864520    0.0191432470    0.0003711019    
0.0645091130    0.0194729030    0.0003775634    
0.0647317740    0.0194718440    0.0003779694    
0.0649544350    0.0193997410    0.0003768539    
0.0651770960    0.0201372390    0.0003818558    
0.0653997570    0.0197471890    0.0003773195    
0.0656224180    0.0189642400    0.0003705678    
0.0658450790    0.0195484970    0.0003708251    
0.0660677400    0.0194172820    0.0003711513    
0.0662904010    0.0190336820    0.0003718537    
0.0665130620    0.0197043280    0.0003767069    
0.0667357230    0.0194339410    0.0003807650    
0.0669583840    0.0197783820    0.0003828393    
0.0671810450    0.0193700330    0.0003767747    
0.0674037060    0.0198045260    0.0003874313    
0.0676263670    0.0201205560    0.0003876512    
0.0678490280    0.0196686350    0.0003809291    
0.0680716890    0.0201267920    0.0003861977    
0.0682943500    0.0191156510    0.0003722494    
0.0685170110    0.0198146680    0.0003751325    
0.0687396720    0.0201616370    0.0003773973    
0.0689623330    0.0197322110    0.0003721734    
0.0691849940    0.0196293730    0.0003737742    
0.0694076550    0.0196226450    0.0003735107    
0.0696303160    0.0195790690    0.0003701418    
0.0698529770    0.0195598010    0.0003691843    
0.0700756380    0.0196312490    0.0003651101    
0.0702982990    0.0194713260    0.0003675798    
0.0705209600    0.0201350160    0.0003710933    
0.0707436210    0.0200386010    0.0003685036    
0.0709662820    0.0199849000    0.0003723966    
0.0711889430    0.0199911870    0.0003678806    
0.0714116040    0.0197398170    0.0003663067    
0.0716342650    0.0192157550    0.0003599441    
0.0718569260    0.0194023780    0.0003602310    
0.0720795870    0.0194787580    0.0003623994    
0.0723022480    0.0197207690    0.0003651994    
0.0725249090    0.0202745520    0.0003658570    
0.0727475700    0.0198299830    0.0003649141    
0.0729702310    0.0195810190    0.0003597240    
0.0731928920    0.0195513290    0.0003608878    
0.0734155530    0.0198383010    0.0003628014    
0.0736382140    0.0189818910    0.0003526065    
0.0738608750    0.0197122900    0.0003616477    
0.0740835360    0.0196079340    0.0003597938    
0.0743061970    0.0195665910    0.0003543533    
0.0745288580    0.0193160430    0.0003556975    
0.0747515190    0.0196751810    0.0003596979    
0.0749741800    0.0193319820    0.0003532466    
0.0751968410    0.0199383490    0.0003615605    
0.0754195020    0.0193554900    0.0003541494    
0.0756421630    0.0193144390    0.0003508818    
0.0758648240    0.0195803500    0.0003541382    
0.0760874850    0.0190944270    0.0003495483    
0.0763101460    0.0196006700    0.0003538119    
0.0765328070    0.0195932090    0.0003573642    
0.0767554680    0.0199197540    0.0003578848    
0.0769781290    0.0196660490    0.0003535550    
0.0772007900    0.0196896140    0.0003509295    
0.0774234510    0.0188388180    0.0003452163    
0.0776461120    0.0195102650    0.0003509813    
0.0778687730    0.0199649010    0.0003538742    
0.0780914340    0.0193795960    0.0003511396    
0.0783140950    0.0192439990    0.0003443573    
0.0785367560    0.0200222450    0.0003569147    
0.0787594170    0.0199087720    0.0003527131    
0.0789820780    0.0195197230    0.0003474603    
0.0792047390    0.0194359030    0.0003478470    
0.0794274000    0.0195130560    0.0003500135    
0.0796500610    0.0195341780    0.0003467848    
0.0798727220    0.0192400410    0.0003438464    
0.0800953830    0.0200508160    0.0003502092    
0.0803180440    0.0194070020    0.0003469410    
0.0805407050    0.0194204500    0.0003467385    
0.0807633660    0.0194029510    0.0003462605    
0.0809860270    0.0194991310    0.0003458358    
0.0812086880    0.0198085910    0.0003455571    
0.0814313490    0.0196368550    0.0003456250    
0.0816540100    0.0192689850    0.0003415928    
0.0818766710    0.0200384100    0.0003491415    
0.0820993320    0.0193896300    0.0003428170    
0.0823219930    0.0191587830    0.0003421757    
0.0825446540    0.0187970790    0.0003364678    
0.0827673150    0.0197516100    0.0003425879    
0.0829899760    0.0200070030    0.0003441818    
0.0832126370    0.0186453010    0.0003337510    
0.0834352980    0.0197634020    0.0003428440    
0.0836579590    0.0195807800    0.0003404967    
0.0838806200    0.0198584280    0.0003439753    
0.0841032810    0.0190418570    0.0003347380    
0.0843259420    0.0196323880    0.0003388422    
0.0845486030    0.0197318360    0.0003396995    
0.0847712640    0.0192378750    0.0003333765    
0.0849939250    0.0195078400    0.0003362921    
0.0852165860    0.0195182940    0.0003368228    
0.0854392470    0.0193271590    0.0003319955    
0.0856619080    0.0197807250    0.0003383422    
0.0858845690    0.0190565940    0.0003291005    
0.0861072300    0.0188711610    0.0003297562    
0.0863298910    0.0196865180    0.0003385683    
0.0865525520    0.0189760330    0.0003295324    
0.0867752130    0.0191890470    0.0003287029    
0.0869978740    0.0191681340    0.0003293610    
0.0872205350    0.0192774480    0.0003298786    
0.0874431960    0.0195710150    0.0003323812    
0.0876658570    0.0195509410    0.0003334862    
0.0878885180    0.0196579970    0.0003349714    
0.0881111790    0.0194994070    0.0003331894    
0.0883338400    0.0193195370    0.0003267933    
0.0885565010    0.0198811360    0.0003360045    
0.0887791620    0.0202429680    0.0003346516    
0.0890018230    0.0190357440    0.0003276672    
0.0892244840    0.0194287670    0.0003315953    
0.0894471450    0.0194333310    0.0003302334    
0.0896698060    0.0195543360    0.0003300104    
0.0898924670    0.0196067500    0.0003319842    
0.0901151280    0.0191304740    0.0003243851    
0.0903377890    0.0195582910    0.0003307372    
0.0905604500    0.0191686040    0.0003259231    
0.0907831110    0.0197019570    0.0003296043    
0.0910057720    0.0189483000    0.0003247220    
0.0912284330    0.0193395300    0.0003233601    
0.0914510940    0.0189993520    0.0003240776    
0.0916737550    0.0187896600    0.0003214845    
0.0918964160    0.0200555390    0.0003335186    
0.0921190770    0.0192587860    0.0003238715    
0.0923417380    0.0195961970    0.0003268303    
0.0925643990    0.0197499220    0.0003273068    
0.0927870600    0.0193653500    0.0003254336    
0.0930097210    0.0194293480    0.0003231946    
0.0932323820    0.0194978250    0.0003261436    
