# Diamond Light Source Ltd.
# Data extracted from: /dls/b21/data/2018/cm19678-3/processed/b21-386631_00585.dat
q(1/A)          Column          Error           
0.0035000000    2.0433157000    0.0243131300    
0.0037226610    1.8159512000    0.0224379680    
0.0039453220    1.6198726000    0.0192787340    
0.0041679830    1.2800185000    0.0140737880    
0.0043906440    0.9626873800    0.0116742990    
0.0046133050    0.7585410900    0.0099481333    
0.0048359660    0.6035176600    0.0083935312    
0.0050586270    0.4626131500    0.0072230421    
0.0052812880    0.4204036600    0.0065102619    
0.0055039490    0.3797264200    0.0058831671    
0.0057266100    0.3261250400    0.0052745086    
0.0059492710    0.2635104300    0.0047412063    
0.0061719320    0.2227463400    0.0042005187    
0.0063945930    0.1973441700    0.0040016816    
0.0066172539    0.1901004900    0.0036879708    
0.0068399149    0.1662775900    0.0033948343    
0.0070625759    0.1461137000    0.0031497045    
0.0072852369    0.1241837600    0.0028602837    
0.0075078979    0.1152686600    0.0027421611    
0.0077305589    0.1010008700    0.0025179499    
0.0079532199    0.1001744700    0.0024728785    
0.0081758809    0.0916618770    0.0023874815    
0.0083985419    0.0811990010    0.0020958507    
0.0086212029    0.0767630920    0.0020377986    
0.0088438639    0.0702650180    0.0019339810    
0.0090665249    0.0676809380    0.0018332363    
0.0092891859    0.0642668050    0.0018645691    
0.0095118469    0.0590344900    0.0017185605    
0.0097345079    0.0564400760    0.0016320069    
0.0099571689    0.0523258270    0.0015389949    
0.0101798300    0.0499268150    0.0015033015    
0.0104024910    0.0489600580    0.0014836381    
0.0106251520    0.0471204290    0.0014604405    
0.0108478130    0.0446884150    0.0013850632    
0.0110704740    0.0450597170    0.0013241408    
0.0112931350    0.0434460360    0.0013040333    
0.0115157960    0.0394591670    0.0012355144    
0.0117384570    0.0387827320    0.0012143344    
0.0119611180    0.0364434950    0.0011805206    
0.0121837790    0.0368921950    0.0011678020    
0.0124064400    0.0342200790    0.0010778312    
0.0126291010    0.0348585220    0.0010742238    
0.0128517620    0.0360641780    0.0010953714    
0.0130744230    0.0314667610    0.0010155854    
0.0132970840    0.0313869820    0.0010093373    
0.0135197450    0.0313774520    0.0009947321    
0.0137424060    0.0310004910    0.0009749739    
0.0139650670    0.0299572750    0.0009370804    
0.0141877280    0.0320035740    0.0009706970    
0.0144103890    0.0309663130    0.0009383731    
0.0146330500    0.0289178820    0.0009010479    
0.0148557110    0.0286480580    0.0008930741    
0.0150783720    0.0285050810    0.0008834804    
0.0153010330    0.0264293930    0.0008387114    
0.0155236940    0.0277466140    0.0008542476    
0.0157463550    0.0254982640    0.0008047181    
0.0159690160    0.0261620480    0.0008120318    
0.0161916770    0.0268898640    0.0008186116    
0.0164143380    0.0260844370    0.0008123667    
0.0166369990    0.0251899040    0.0007737018    
0.0168596600    0.0239775270    0.0007482025    
0.0170823210    0.0261568710    0.0007746997    
0.0173049820    0.0258099310    0.0007708751    
0.0175276430    0.0250169520    0.0007669439    
0.0177503040    0.0250751090    0.0007482607    
0.0179729650    0.0247334290    0.0007357751    
0.0181956260    0.0242785000    0.0007150019    
0.0184182870    0.0234035610    0.0006986916    
0.0186409480    0.0241021060    0.0007135299    
0.0188636090    0.0245090930    0.0007150037    
0.0190862700    0.0229561630    0.0006908993    
0.0193089310    0.0227810110    0.0006871858    
0.0195315920    0.0229213610    0.0006658574    
0.0197542530    0.0223674170    0.0006587205    
0.0199769140    0.0232403940    0.0006714522    
0.0201995750    0.0218227720    0.0006404626    
0.0204222360    0.0230212210    0.0006634606    
0.0206448970    0.0230344460    0.0006589344    
0.0208675580    0.0217158390    0.0006266212    
0.0210902190    0.0219710410    0.0006363741    
0.0213128800    0.0224370190    0.0006343610    
0.0215355410    0.0206974000    0.0006020147    
0.0217582020    0.0216604860    0.0006158619    
0.0219808630    0.0212718160    0.0006095101    
0.0222035240    0.0221399660    0.0006161888    
0.0224261850    0.0219666130    0.0006083091    
0.0226488460    0.0210571710    0.0005911112    
0.0228715070    0.0213819680    0.0005941728    
0.0230941680    0.0206885070    0.0005844584    
0.0233168290    0.0215881900    0.0005985185    
0.0235394900    0.0215362730    0.0005912009    
0.0237621510    0.0210684810    0.0005690029    
0.0239848120    0.0217333720    0.0005785803    
0.0242074730    0.0210836920    0.0005653053    
0.0244301340    0.0207976170    0.0005620978    
0.0246527950    0.0200239720    0.0005566511    
0.0248754560    0.0212781020    0.0005609220    
0.0250981170    0.0214176610    0.0005640134    
0.0253207780    0.0212761330    0.0005453626    
0.0255434390    0.0208759690    0.0005459753    
0.0257661000    0.0220172540    0.0005625146    
0.0259887610    0.0213407670    0.0005479201    
0.0262114220    0.0209858370    0.0005462395    
0.0264340830    0.0213593590    0.0005435814    
0.0266567440    0.0208366100    0.0005335709    
0.0268794050    0.0203822790    0.0005255679    
0.0271020660    0.0209434810    0.0005305974    
0.0273247270    0.0217551960    0.0005375341    
0.0275473880    0.0202664560    0.0005177838    
0.0277700490    0.0205112630    0.0005178225    
0.0279927100    0.0207072650    0.0005157512    
0.0282153710    0.0198065730    0.0005068621    
0.0284380320    0.0206802080    0.0005149176    
0.0286606930    0.0206805830    0.0005105150    
0.0288833540    0.0207718770    0.0005126125    
0.0291060150    0.0200001440    0.0005025225    
0.0293286760    0.0204287980    0.0005008021    
0.0295513370    0.0207309900    0.0004989990    
0.0297739980    0.0218774980    0.0005182554    
0.0299966590    0.0205079190    0.0004932012    
0.0302193200    0.0205605770    0.0005010306    
0.0304419810    0.0206363170    0.0005028763    
0.0306646420    0.0207261150    0.0004897451    
0.0308873030    0.0206162890    0.0004863360    
0.0311099640    0.0201584100    0.0004821538    
0.0313326250    0.0206390630    0.0004824635    
0.0315552860    0.0204137070    0.0004860406    
0.0317779470    0.0204260970    0.0004866116    
0.0320006080    0.0199402620    0.0004698660    
0.0322232690    0.0198619350    0.0004709053    
0.0324459300    0.0198964370    0.0004677955    
0.0326685910    0.0200391770    0.0004686966    
0.0328912520    0.0203707500    0.0004741232    
0.0331139130    0.0206719530    0.0004714025    
0.0333365740    0.0208821560    0.0004753316    
0.0335592350    0.0202065790    0.0004630835    
0.0337818960    0.0201002440    0.0004614957    
0.0340045570    0.0210398530    0.0004714092    
0.0342272170    0.0199625230    0.0004573703    
0.0344498780    0.0196245450    0.0004552781    
0.0346725390    0.0199218490    0.0004502185    
0.0348952000    0.0197508360    0.0004462398    
0.0351178610    0.0197997790    0.0004488373    
0.0353405220    0.0208397290    0.0004583760    
0.0355631830    0.0201427110    0.0004489480    
0.0357858440    0.0204229010    0.0004520598    
0.0360085050    0.0200230240    0.0004489648    
0.0362311660    0.0199429770    0.0004427402    
0.0364538270    0.0196821650    0.0004363055    
0.0366764880    0.0201268440    0.0004408865    
0.0368991490    0.0203642230    0.0004412432    
0.0371218100    0.0196204700    0.0004318715    
0.0373444710    0.0193798480    0.0004338893    
0.0375671320    0.0198271110    0.0004382284    
0.0377897930    0.0198064810    0.0004266617    
0.0380124540    0.0204932190    0.0004367184    
0.0382351150    0.0201488870    0.0004330341    
0.0384577760    0.0196980580    0.0004240311    
0.0386804370    0.0198886400    0.0004293290    
0.0389030980    0.0201270980    0.0004286244    
0.0391257590    0.0191524110    0.0004152787    
0.0393484200    0.0201774770    0.0004248125    
0.0395710810    0.0196220520    0.0004194892    
0.0397937420    0.0193350890    0.0004164106    
0.0400164030    0.0197549190    0.0004226195    
0.0402390640    0.0201213150    0.0004208412    
0.0404617250    0.0201542590    0.0004187008    
0.0406843860    0.0200311570    0.0004133872    
0.0409070470    0.0195361410    0.0004125002    
0.0411297080    0.0204412960    0.0004178660    
0.0413523690    0.0198770900    0.0004131210    
0.0415750300    0.0201812840    0.0004198062    
0.0417976910    0.0197309500    0.0004043601    
0.0420203520    0.0194453440    0.0004029312    
0.0422430130    0.0195003200    0.0004050280    
0.0424656740    0.0193975710    0.0003987018    
0.0426883350    0.0200954660    0.0004078249    
0.0429109960    0.0196965490    0.0004050182    
0.0431336570    0.0204568860    0.0004069461    
0.0433563180    0.0202513330    0.0004083893    
0.0435789790    0.0200907640    0.0004003765    
0.0438016400    0.0198340630    0.0003999746    
0.0440243010    0.0191491180    0.0003890201    
0.0442469620    0.0200751220    0.0004007018    
0.0444696230    0.0197249410    0.0003957673    
0.0446922840    0.0195763890    0.0003931034    
0.0449149450    0.0195252050    0.0003873408    
0.0451376060    0.0189552080    0.0003863585    
0.0453602670    0.0200557580    0.0003932502    
0.0455829280    0.0190708610    0.0003830293    
0.0458055890    0.0196908580    0.0003914753    
0.0460282500    0.0196518260    0.0003863711    
0.0462509110    0.0198057480    0.0003854688    
0.0464735720    0.0197304800    0.0003849529    
0.0466962330    0.0195313180    0.0003847462    
0.0469188940    0.0199784160    0.0003880219    
0.0471415550    0.0193923250    0.0003842514    
0.0473642160    0.0193934170    0.0003788818    
0.0475868770    0.0200879810    0.0003836911    
0.0478095380    0.0194476160    0.0003758739    
0.0480321990    0.0203720360    0.0003855465    
0.0482548600    0.0195583890    0.0003761229    
0.0484775210    0.0206569450    0.0003903796    
0.0487001820    0.0193832700    0.0003726174    
0.0489228430    0.0198490100    0.0003768648    
0.0491455040    0.0195824500    0.0003717368    
0.0493681650    0.0188508560    0.0003678610    
0.0495908260    0.0200745720    0.0003732262    
0.0498134870    0.0199211350    0.0003753364    
0.0500361480    0.0198791710    0.0003739488    
0.0502588090    0.0192742600    0.0003626982    
0.0504814700    0.0196063760    0.0003705919    
0.0507041310    0.0193823050    0.0003640873    
0.0509267920    0.0193499190    0.0003652879    
0.0511494530    0.0198616100    0.0003676185    
0.0513721140    0.0195551390    0.0003679837    
0.0515947750    0.0193973630    0.0003616369    
0.0518174360    0.0199370830    0.0003644251    
0.0520400970    0.0197141180    0.0003598689    
0.0522627580    0.0195094360    0.0003610383    
0.0524854190    0.0201199630    0.0003696250    
0.0527080800    0.0197224440    0.0003687888    
0.0529307410    0.0200055860    0.0003731710    
0.0531534020    0.0198187240    0.0003700719    
0.0533760630    0.0192893570    0.0003662389    
0.0535987240    0.0197709900    0.0003690519    
0.0538213850    0.0193012540    0.0003688661    
0.0540440460    0.0202502120    0.0003760370    
0.0542667070    0.0196807590    0.0003732669    
0.0544893680    0.0194253460    0.0003710345    
0.0547120290    0.0198451400    0.0003724530    
0.0549346900    0.0190193250    0.0003648130    
0.0551573510    0.0191115850    0.0003700017    
0.0553800120    0.0195485550    0.0003710265    
0.0556026730    0.0191643160    0.0003749788    
0.0558253340    0.0196283530    0.0003826691    
0.0560479950    0.0193224950    0.0003796762    
0.0562706560    0.0190058340    0.0003801927    
0.0564933170    0.0199563930    0.0003929673    
0.0567159780    0.0198810620    0.0003875222    
0.0569386390    0.0191303830    0.0003860983    
0.0571613000    0.0194121180    0.0003805566    
0.0573839610    0.0200008980    0.0003830774    
0.0576066220    0.0194994330    0.0003792918    
0.0578292830    0.0192313510    0.0003754291    
0.0580519440    0.0200455190    0.0003847799    
0.0582746050    0.0196568130    0.0003793508    
0.0584972660    0.0196301230    0.0003776420    
0.0587199270    0.0199928970    0.0003778302    
0.0589425880    0.0194562500    0.0003705448    
0.0591652490    0.0199215360    0.0003771557    
0.0593879100    0.0187896080    0.0003635639    
0.0596105710    0.0196766060    0.0003716539    
0.0598332320    0.0204214240    0.0003818590    
0.0600558930    0.0198728170    0.0003742932    
0.0602785540    0.0201262810    0.0003762744    
0.0605012150    0.0196492760    0.0003710053    
0.0607238760    0.0200887870    0.0003723979    
0.0609465370    0.0199014360    0.0003735754    
0.0611691980    0.0200489860    0.0003755519    
0.0613918590    0.0200127650    0.0003711162    
0.0616145200    0.0193850180    0.0003679226    
0.0618371810    0.0196907720    0.0003671709    
0.0620598420    0.0194295220    0.0003651031    
0.0622825030    0.0194201230    0.0003705969    
0.0625051640    0.0195315830    0.0003664391    
0.0627278250    0.0198209440    0.0003683834    
0.0629504860    0.0199580100    0.0003666498    
0.0631731470    0.0196955340    0.0003687371    
0.0633958080    0.0198600430    0.0003724049    
0.0636184690    0.0196130410    0.0003752361    
0.0638411300    0.0197867050    0.0003754789    
0.0640637910    0.0195096330    0.0003754631    
0.0642864520    0.0193461490    0.0003730776    
0.0645091130    0.0195549170    0.0003783720    
0.0647317740    0.0196714330    0.0003799160    
0.0649544350    0.0203017250    0.0003855299    
0.0651770960    0.0197911750    0.0003785749    
0.0653997570    0.0187608950    0.0003677900    
0.0656224180    0.0196753560    0.0003774659    
0.0658450790    0.0198032390    0.0003732476    
0.0660677400    0.0194116630    0.0003711117    
0.0662904010    0.0194347210    0.0003757651    
0.0665130620    0.0198354690    0.0003779728    
0.0667357230    0.0197338510    0.0003837064    
0.0669583840    0.0191795970    0.0003770139    
0.0671810450    0.0195840570    0.0003788650    
0.0674037060    0.0200106870    0.0003894575    
0.0676263670    0.0201967770    0.0003883996    
0.0678490280    0.0193676260    0.0003780174    
0.0680716890    0.0200171570    0.0003851590    
0.0682943500    0.0197695650    0.0003785773    
0.0685170110    0.0197735590    0.0003747574    
0.0687396720    0.0194142920    0.0003703507    
0.0689623330    0.0196213890    0.0003711409    
0.0691849940    0.0194813920    0.0003723768    
0.0694076550    0.0194108310    0.0003715034    
0.0696303160    0.0203293490    0.0003771815    
0.0698529770    0.0192964750    0.0003667047    
0.0700756380    0.0189128970    0.0003583814    
0.0702982990    0.0193340120    0.0003662954    
0.0705209600    0.0191652870    0.0003620606    
0.0707436210    0.0199520210    0.0003677206    
0.0709662820    0.0198129260    0.0003708050    
0.0711889430    0.0201010320    0.0003689039    
0.0714116040    0.0194422070    0.0003635487    
0.0716342650    0.0192846450    0.0003606024    
0.0718569260    0.0199456350    0.0003652532    
0.0720795870    0.0199926990    0.0003671631    
0.0723022480    0.0190188680    0.0003586551    
0.0725249090    0.0197677050    0.0003612687    
0.0727475700    0.0194621260    0.0003615273    
0.0729702310    0.0196750340    0.0003606003    
0.0731928920    0.0197993070    0.0003631831    
0.0734155530    0.0195014050    0.0003597213    
0.0736382140    0.0201558720    0.0003633606    
0.0738608750    0.0190701540    0.0003557221    
0.0740835360    0.0190746220    0.0003548805    
0.0743061970    0.0199210610    0.0003575622    
0.0745288580    0.0191013430    0.0003537286    
0.0747515190    0.0194004670    0.0003571915    
0.0749741800    0.0191139740    0.0003512625    
0.0751968410    0.0192448220    0.0003552302    
0.0754195020    0.0194606480    0.0003551237    
0.0756421630    0.0192967830    0.0003507347    
0.0758648240    0.0190373650    0.0003492066    
0.0760874850    0.0193774530    0.0003521428    
0.0763101460    0.0196660310    0.0003544148    
0.0765328070    0.0195360310    0.0003568560    
0.0767554680    0.0198569650    0.0003573339    
0.0769781290    0.0194132780    0.0003512888    
0.0772007900    0.0203416430    0.0003567063    
0.0774234510    0.0200992190    0.0003565912    
0.0776461120    0.0198274720    0.0003538364    
0.0778687730    0.0198974170    0.0003532890    
0.0780914340    0.0190374780    0.0003480396    
0.0783140950    0.0196398620    0.0003478944    
0.0785367560    0.0198328830    0.0003552364    
0.0787594170    0.0196103190    0.0003500727    
0.0789820780    0.0199727430    0.0003514825    
0.0792047390    0.0197860330    0.0003509795    
0.0794274000    0.0196652300    0.0003513890    
0.0796500610    0.0191108400    0.0003430196    
0.0798727220    0.0200096880    0.0003506696    
0.0800953830    0.0197770640    0.0003478235    
0.0803180440    0.0197434270    0.0003499486    
0.0805407050    0.0196943410    0.0003491882    
0.0807633660    0.0192004940    0.0003444624    
0.0809860270    0.0199054700    0.0003494340    
0.0812086880    0.0193157490    0.0003412442    
0.0814313490    0.0197296040    0.0003464535    
0.0816540100    0.0194763570    0.0003434391    
0.0818766710    0.0193220490    0.0003428569    
0.0820993320    0.0196638770    0.0003452461    
0.0823219930    0.0195024960    0.0003452445    
0.0825446540    0.0192201340    0.0003402460    
0.0827673150    0.0194559840    0.0003400274    
0.0829899760    0.0194578310    0.0003394382    
0.0832126370    0.0192740510    0.0003393445    
0.0834352980    0.0193663940    0.0003393959    
0.0836579590    0.0193690960    0.0003386640    
0.0838806200    0.0202174530    0.0003470839    
0.0841032810    0.0196965200    0.0003404565    
0.0843259420    0.0196689720    0.0003391706    
0.0845486030    0.0192478990    0.0003355207    
0.0847712640    0.0197304320    0.0003376302    
0.0849939250    0.0193122010    0.0003346143    
0.0852165860    0.0194151450    0.0003359444    
0.0854392470    0.0192772980    0.0003315796    
0.0856619080    0.0195738720    0.0003365813    
0.0858845690    0.0193820240    0.0003319112    
0.0861072300    0.0197773280    0.0003375934    
0.0863298910    0.0199209400    0.0003405911    
0.0865525520    0.0195554990    0.0003345387    
0.0867752130    0.0195959390    0.0003321823    
0.0869978740    0.0198883800    0.0003355046    
0.0872205350    0.0200692650    0.0003365981    
0.0874431960    0.0199112250    0.0003352704    
0.0876658570    0.0193248750    0.0003315652    
0.0878885180    0.0192199500    0.0003312308    
0.0881111790    0.0189144390    0.0003281660    
0.0883338400    0.0191606880    0.0003254594    
0.0885565010    0.0193374510    0.0003313910    
0.0887791620    0.0188834380    0.0003232309    
0.0890018230    0.0197084280    0.0003334191    
0.0892244840    0.0198773720    0.0003354144    
0.0894471450    0.0193618510    0.0003296380    
0.0896698060    0.0197396280    0.0003315829    
0.0898924670    0.0192821860    0.0003292374    
0.0901151280    0.0193409600    0.0003261772    
0.0903377890    0.0197107970    0.0003320368    
0.0905604500    0.0194970440    0.0003287160    
0.0907831110    0.0194056700    0.0003271290    
0.0910057720    0.0195897470    0.0003301851    
0.0912284330    0.0197140860    0.0003264888    
0.0914510940    0.0196199670    0.0003293406    
0.0916737550    0.0196217260    0.0003285380    
0.0918964160    0.0198851140    0.0003321112    
0.0921190770    0.0194781260    0.0003257230    
0.0923417380    0.0190525490    0.0003222771    
0.0925643990    0.0194693380    0.0003249859    
0.0927870600    0.0195254320    0.0003267883    
0.0930097210    0.0199846090    0.0003277928    
0.0932323820    0.0191446750    0.0003231888    
