# Diamond Light Source Ltd.
# Data extracted from: /dls/b21/data/2018/cm19678-3/processed/b21-386631_00584.dat
q(1/A)          Column          Error           
0.0035000000    2.0798322000    0.0245263920    
0.0037226610    1.8512585000    0.0226522500    
0.0039453220    1.6089208000    0.0192110800    
0.0041679830    1.2800119000    0.0140720130    
0.0043906440    0.9552312900    0.0116275660    
0.0046133050    0.7719191100    0.0100342360    
0.0048359660    0.5806110200    0.0082316848    
0.0050586270    0.4637391600    0.0072309344    
0.0052812880    0.4224164700    0.0065250224    
0.0055039490    0.3850091100    0.0059232171    
0.0057266100    0.3131664800    0.0051680170    
0.0059492710    0.2548315800    0.0046618999    
0.0061719320    0.2241960100    0.0042136450    
0.0063945930    0.2058946700    0.0040869497    
0.0066172539    0.1771067400    0.0035592604    
0.0068399149    0.1689390000    0.0034214725    
0.0070625759    0.1459418600    0.0031474631    
0.0072852369    0.1281049100    0.0029047314    
0.0075078979    0.1141314900    0.0027282645    
0.0077305589    0.0959553710    0.0024539491    
0.0079532199    0.0947180930    0.0024042913    
0.0081758809    0.0920122660    0.0023917450    
0.0083985419    0.0810167010    0.0020932382    
0.0086212029    0.0771227200    0.0020423143    
0.0088438639    0.0723231670    0.0019618586    
0.0090665249    0.0644373920    0.0017885480    
0.0092891859    0.0659275170    0.0018882734    
0.0095118469    0.0614207230    0.0017527329    
0.0097345079    0.0555297380    0.0016185920    
0.0099571689    0.0513173320    0.0015239038    
0.0101798300    0.0508195540    0.0015164950    
0.0104024910    0.0469253250    0.0014523024    
0.0106251520    0.0473803140    0.0014642816    
0.0108478130    0.0447202980    0.0013853861    
0.0110704740    0.0417030130    0.0012737085    
0.0112931350    0.0417526790    0.0012782098    
0.0115157960    0.0420407090    0.0012751323    
0.0117384570    0.0391152720    0.0012193789    
0.0119611180    0.0350963980    0.0011583537    
0.0121837790    0.0366613430    0.0011639988    
0.0124064400    0.0367231970    0.0011164181    
0.0126291010    0.0368025680    0.0011036357    
0.0128517620    0.0338267640    0.0010607181    
0.0130744230    0.0344738110    0.0010628731    
0.0132970840    0.0331964370    0.0010378956    
0.0135197450    0.0325362160    0.0010128082    
0.0137424060    0.0304716910    0.0009665033    
0.0139650670    0.0319426290    0.0009675143    
0.0141877280    0.0312303650    0.0009587809    
0.0144103890    0.0298499550    0.0009211896    
0.0146330500    0.0298931450    0.0009160028    
0.0148557110    0.0282234770    0.0008863220    
0.0150783720    0.0283885400    0.0008815637    
0.0153010330    0.0280194140    0.0008634652    
0.0155236940    0.0271087160    0.0008442666    
0.0157463550    0.0267614880    0.0008243088    
0.0159690160    0.0265335580    0.0008176761    
0.0161916770    0.0266091600    0.0008142271    
0.0164143380    0.0265079920    0.0008188346    
0.0166369990    0.0257301220    0.0007818575    
0.0168596600    0.0247885550    0.0007606572    
0.0170823210    0.0254393050    0.0007639052    
0.0173049820    0.0242383110    0.0007469442    
0.0175276430    0.0251753190    0.0007692726    
0.0177503040    0.0236848810    0.0007271324    
0.0179729650    0.0246397920    0.0007342904    
0.0181956260    0.0239146270    0.0007095360    
0.0184182870    0.0233769280    0.0006982077    
0.0186409480    0.0233781270    0.0007026449    
0.0188636090    0.0250452360    0.0007226926    
0.0190862700    0.0238236110    0.0007037449    
0.0193089310    0.0233349270    0.0006954041    
0.0195315920    0.0231284210    0.0006687756    
0.0197542530    0.0228661510    0.0006659416    
0.0199769140    0.0217218820    0.0006490654    
0.0201995750    0.0238093240    0.0006688962    
0.0204222360    0.0228052620    0.0006602598    
0.0206448970    0.0235941120    0.0006668090    
0.0208675580    0.0221985560    0.0006334692    
0.0210902190    0.0218181960    0.0006340784    
0.0213128800    0.0213376970    0.0006185489    
0.0215355410    0.0212699930    0.0006102098    
0.0217582020    0.0211649640    0.0006087015    
0.0219808630    0.0220697340    0.0006207598    
0.0222035240    0.0218601750    0.0006122074    
0.0224261850    0.0218264570    0.0006062905    
0.0226488460    0.0214335280    0.0005962967    
0.0228715070    0.0212611380    0.0005924185    
0.0230941680    0.0222350660    0.0006058354    
0.0233168290    0.0211017650    0.0005916641    
0.0235394900    0.0210279710    0.0005841103    
0.0237621510    0.0213244570    0.0005723784    
0.0239848120    0.0216818090    0.0005778221    
0.0242074730    0.0208663370    0.0005623144    
0.0244301340    0.0210962430    0.0005660489    
0.0246527950    0.0219064480    0.0005821573    
0.0248754560    0.0210363180    0.0005576572    
0.0250981170    0.0206402200    0.0005536138    
0.0253207780    0.0209913670    0.0005416338    
0.0255434390    0.0206138550    0.0005424699    
0.0257661000    0.0216669850    0.0005579533    
0.0259887610    0.0210260840    0.0005437982    
0.0262114220    0.0202557130    0.0005365870    
0.0264340830    0.0210221560    0.0005392069    
0.0266567440    0.0202987260    0.0005265740    
0.0268794050    0.0204585380    0.0005264851    
0.0271020660    0.0204948150    0.0005248184    
0.0273247270    0.0206078910    0.0005231036    
0.0275473880    0.0212665890    0.0005303405    
0.0277700490    0.0211466090    0.0005257163    
0.0279927100    0.0211259550    0.0005208749    
0.0282153710    0.0198535540    0.0005074002    
0.0284380320    0.0199316700    0.0005054503    
0.0286606930    0.0207132740    0.0005108552    
0.0288833540    0.0201849750    0.0005052564    
0.0291060150    0.0205884970    0.0005097975    
0.0293286760    0.0196873200    0.0004915689    
0.0295513370    0.0202815730    0.0004934996    
0.0297739980    0.0208779100    0.0005062148    
0.0299966590    0.0195660560    0.0004816830    
0.0302193200    0.0209461030    0.0005056437    
0.0304419810    0.0199941530    0.0004949290    
0.0306646420    0.0205937330    0.0004881183    
0.0308873030    0.0198656620    0.0004773414    
0.0311099640    0.0205684910    0.0004869731    
0.0313326250    0.0214683450    0.0004920000    
0.0315552860    0.0200037320    0.0004810758    
0.0317779470    0.0209541790    0.0004928009    
0.0320006080    0.0195921980    0.0004656896    
0.0322232690    0.0193770690    0.0004650645    
0.0324459300    0.0203203630    0.0004726944    
0.0326685910    0.0198917530    0.0004669117    
0.0328912520    0.0197479080    0.0004667610    
0.0331139130    0.0194094270    0.0004567240    
0.0333365740    0.0204767670    0.0004706370    
0.0335592350    0.0214111390    0.0004766276    
0.0337818960    0.0206355340    0.0004675426    
0.0340045570    0.0205594770    0.0004659390    
0.0342272170    0.0202195040    0.0004602479    
0.0344498780    0.0202638340    0.0004625771    
0.0346725390    0.0203543290    0.0004550229    
0.0348952000    0.0204616110    0.0004541421    
0.0351178610    0.0197033410    0.0004476876    
0.0353405220    0.0200685310    0.0004497591    
0.0355631830    0.0199076490    0.0004462656    
0.0357858440    0.0202077770    0.0004496171    
0.0360085050    0.0200583370    0.0004493050    
0.0362311660    0.0200756250    0.0004441553    
0.0364538270    0.0195129250    0.0004343720    
0.0366764880    0.0198708340    0.0004380194    
0.0368991490    0.0196709960    0.0004336144    
0.0371218100    0.0182375900    0.0004163226    
0.0373444710    0.0198995010    0.0004396137    
0.0375671320    0.0204903800    0.0004454430    
0.0377897930    0.0204356090    0.0004333314    
0.0380124540    0.0204974630    0.0004367097    
0.0382351150    0.0196042600    0.0004270888    
0.0384577760    0.0194285500    0.0004210683    
0.0386804370    0.0197169500    0.0004274191    
0.0389030980    0.0201495050    0.0004288099    
0.0391257590    0.0202909610    0.0004273913    
0.0393484200    0.0203960380    0.0004270544    
0.0395710810    0.0197247970    0.0004205341    
0.0397937420    0.0190703050    0.0004134985    
0.0400164030    0.0198313910    0.0004233844    
0.0402390640    0.0200019490    0.0004195392    
0.0404617250    0.0205145260    0.0004223743    
0.0406843860    0.0204270770    0.0004174010    
0.0409070470    0.0210029150    0.0004276524    
0.0411297080    0.0192577270    0.0004055382    
0.0413523690    0.0204988210    0.0004194804    
0.0415750300    0.0200278810    0.0004181560    
0.0417976910    0.0198420650    0.0004054470    
0.0420203520    0.0197159990    0.0004056756    
0.0422430130    0.0193693480    0.0004036157    
0.0424656740    0.0194091670    0.0003987717    
0.0426883350    0.0201567000    0.0004083954    
0.0429109960    0.0198415590    0.0004064562    
0.0431336570    0.0191002500    0.0003931724    
0.0433563180    0.0201475290    0.0004072910    
0.0435789790    0.0203251100    0.0004026551    
0.0438016400    0.0204178320    0.0004057680    
0.0440243010    0.0199107980    0.0003966326    
0.0442469620    0.0195664120    0.0003955434    
0.0444696230    0.0193231280    0.0003916671    
0.0446922840    0.0205106740    0.0004023248    
0.0449149450    0.0196125700    0.0003881585    
0.0451376060    0.0207298460    0.0004039900    
0.0453602670    0.0196113990    0.0003888213    
0.0455829280    0.0196506730    0.0003887604    
0.0458055890    0.0195459370    0.0003899839    
0.0460282500    0.0189406840    0.0003792691    
0.0462509110    0.0200633690    0.0003879198    
0.0464735720    0.0201686270    0.0003891556    
0.0466962330    0.0198523160    0.0003878471    
0.0469188940    0.0200337570    0.0003885109    
0.0471415550    0.0197072370    0.0003873109    
0.0473642160    0.0197734410    0.0003825287    
0.0475868770    0.0203980780    0.0003865936    
0.0478095380    0.0200964760    0.0003820457    
0.0480321990    0.0200533300    0.0003824715    
0.0482548600    0.0197994250    0.0003783867    
0.0484775210    0.0194053580    0.0003783217    
0.0487001820    0.0192782250    0.0003715605    
0.0489228430    0.0201016380    0.0003792087    
0.0491455040    0.0197539890    0.0003733153    
0.0493681650    0.0200088390    0.0003789444    
0.0495908260    0.0199031200    0.0003715830    
0.0498134870    0.0201424570    0.0003773690    
0.0500361480    0.0198390990    0.0003735256    
0.0502588090    0.0198904370    0.0003684046    
0.0504814700    0.0202738270    0.0003768005    
0.0507041310    0.0191108560    0.0003614841    
0.0509267920    0.0198484180    0.0003699177    
0.0511494530    0.0196798380    0.0003658873    
0.0513721140    0.0199518390    0.0003716515    
0.0515947750    0.0198172280    0.0003654847    
0.0518174360    0.0194659890    0.0003600494    
0.0520400970    0.0197946280    0.0003605585    
0.0522627580    0.0195780950    0.0003616284    
0.0524854190    0.0199452770    0.0003679715    
0.0527080800    0.0198692470    0.0003701131    
0.0529307410    0.0199588910    0.0003726892    
0.0531534020    0.0194062230    0.0003661552    
0.0533760630    0.0193610650    0.0003668738    
0.0535987240    0.0201449010    0.0003724794    
0.0538213850    0.0194797270    0.0003705219    
0.0540440460    0.0197216290    0.0003710509    
0.0542667070    0.0194069480    0.0003706155    
0.0544893680    0.0197677240    0.0003742438    
0.0547120290    0.0196305860    0.0003703884    
0.0549346900    0.0190566030    0.0003651253    
0.0551573510    0.0197728840    0.0003763022    
0.0553800120    0.0189523470    0.0003652796    
0.0556026730    0.0199444520    0.0003824877    
0.0558253340    0.0192431190    0.0003788485    
0.0560479950    0.0199144100    0.0003854001    
0.0562706560    0.0197690940    0.0003877038    
0.0564933170    0.0192010610    0.0003854112    
0.0567159780    0.0203972220    0.0003924720    
0.0569386390    0.0202942330    0.0003976205    
0.0571613000    0.0202128550    0.0003882782    
0.0573839610    0.0196952120    0.0003800918    
0.0576066220    0.0191331970    0.0003756666    
0.0578292830    0.0195783080    0.0003787537    
0.0580519440    0.0190289410    0.0003748499    
0.0582746050    0.0193445540    0.0003762791    
0.0584972660    0.0200755970    0.0003818558    
0.0587199270    0.0195953390    0.0003740086    
0.0589425880    0.0202345830    0.0003778372    
0.0591652490    0.0190171560    0.0003684499    
0.0593879100    0.0191999120    0.0003674666    
0.0596105710    0.0194541870    0.0003695017    
0.0598332320    0.0193455920    0.0003716185    
0.0600558930    0.0194379910    0.0003701300    
0.0602785540    0.0196712020    0.0003719501    
0.0605012150    0.0190631450    0.0003653848    
0.0607238760    0.0201114330    0.0003725617    
0.0609465370    0.0193987580    0.0003687817    
0.0611691980    0.0190383170    0.0003659185    
0.0613918590    0.0195262040    0.0003665318    
0.0616145200    0.0193872120    0.0003678980    
0.0618371810    0.0197406690    0.0003675905    
0.0620598420    0.0199117140    0.0003695601    
0.0622825030    0.0196062290    0.0003723224    
0.0625051640    0.0194649000    0.0003657679    
0.0627278250    0.0198639640    0.0003687374    
0.0629504860    0.0190978530    0.0003586175    
0.0631731470    0.0199667400    0.0003712213    
0.0633958080    0.0193175700    0.0003672383    
0.0636184690    0.0191345010    0.0003705843    
0.0638411300    0.0200881280    0.0003782813    
0.0640637910    0.0198154480    0.0003783476    
0.0642864520    0.0193485650    0.0003730548    
0.0645091130    0.0192280350    0.0003751499    
0.0647317740    0.0197325950    0.0003804592    
0.0649544350    0.0201576440    0.0003841119    
0.0651770960    0.0199310840    0.0003798637    
0.0653997570    0.0198303150    0.0003780805    
0.0656224180    0.0194098650    0.0003748643    
0.0658450790    0.0198897800    0.0003740161    
0.0660677400    0.0195487330    0.0003723737    
0.0662904010    0.0193936050    0.0003753210    
0.0665130620    0.0193985330    0.0003737404    
0.0667357230    0.0195947170    0.0003823041    
0.0669583840    0.0195453180    0.0003805444    
0.0671810450    0.0198210300    0.0003811032    
0.0674037060    0.0194828680    0.0003842394    
0.0676263670    0.0194002480    0.0003806166    
0.0678490280    0.0192079410    0.0003764093    
0.0680716890    0.0194120700    0.0003792462    
0.0682943500    0.0198154180    0.0003789693    
0.0685170110    0.0194420380    0.0003715567    
0.0687396720    0.0197767810    0.0003737460    
0.0689623330    0.0195814510    0.0003707172    
0.0691849940    0.0199747040    0.0003770154    
0.0694076550    0.0202945930    0.0003798195    
0.0696303160    0.0196386890    0.0003706733    
0.0698529770    0.0196957980    0.0003704339    
0.0700756380    0.0198451520    0.0003670625    
0.0702982990    0.0198010210    0.0003706471    
0.0705209600    0.0197076080    0.0003671021    
0.0707436210    0.0191475840    0.0003601869    
0.0709662820    0.0196484600    0.0003692172    
0.0711889430    0.0195139660    0.0003634320    
0.0714116040    0.0193898320    0.0003630138    
0.0716342650    0.0196304270    0.0003637760    
0.0718569260    0.0195261150    0.0003613470    
0.0720795870    0.0196237350    0.0003637145    
0.0723022480    0.0196430180    0.0003644477    
0.0725249090    0.0192875660    0.0003568102    
0.0727475700    0.0194304640    0.0003611885    
0.0729702310    0.0196899970    0.0003606928    
0.0731928920    0.0192549340    0.0003581113    
0.0734155530    0.0188995520    0.0003540832    
0.0736382140    0.0196793760    0.0003589956    
0.0738608750    0.0193705990    0.0003584690    
0.0740835360    0.0192811400    0.0003567524    
0.0743061970    0.0193065960    0.0003519610    
0.0745288580    0.0196598330    0.0003588182    
0.0747515190    0.0198690620    0.0003614349    
0.0749741800    0.0199353210    0.0003586859    
0.0751968410    0.0203413750    0.0003651652    
0.0754195020    0.0193716180    0.0003542667    
0.0756421630    0.0189606060    0.0003476232    
0.0758648240    0.0195898110    0.0003541934    
0.0760874850    0.0194750340    0.0003529847    
0.0763101460    0.0194440660    0.0003523655    
0.0765328070    0.0195442410    0.0003568869    
0.0767554680    0.0198392040    0.0003571300    
0.0769781290    0.0196881080    0.0003537230    
0.0772007900    0.0195924450    0.0003500325    
0.0774234510    0.0195186890    0.0003513603    
0.0776461120    0.0193932970    0.0003498977    
0.0778687730    0.0192841900    0.0003477594    
0.0780914340    0.0198024850    0.0003549197    
0.0783140950    0.0193208030    0.0003450143    
0.0785367560    0.0196816770    0.0003538359    
0.0787594170    0.0189494620    0.0003440810    
0.0789820780    0.0193988920    0.0003463536    
0.0792047390    0.0194699280    0.0003481216    
0.0794274000    0.0196729290    0.0003514144    
0.0796500610    0.0201279050    0.0003519854    
0.0798727220    0.0193289120    0.0003446101    
0.0800953830    0.0192890370    0.0003434628    
0.0803180440    0.0199369920    0.0003516164    
0.0805407050    0.0189529020    0.0003425099    
0.0807633660    0.0194552390    0.0003466971    
0.0809860270    0.0201029340    0.0003511195    
0.0812086880    0.0189493500    0.0003379505    
0.0814313490    0.0198585420    0.0003475408    
0.0816540100    0.0200830610    0.0003487042    
0.0818766710    0.0193963470    0.0003434731    
0.0820993320    0.0195620590    0.0003443086    
0.0823219930    0.0188683280    0.0003395430    
0.0825446540    0.0196609980    0.0003440836    
0.0827673150    0.0197363520    0.0003424263    
0.0829899760    0.0197549450    0.0003419776    
0.0832126370    0.0199442540    0.0003451514    
0.0834352980    0.0191475410    0.0003374311    
0.0836579590    0.0197076730    0.0003415690    
0.0838806200    0.0196346210    0.0003420022    
0.0841032810    0.0195151550    0.0003388436    
0.0843259420    0.0195062410    0.0003377229    
0.0845486030    0.0191846740    0.0003349279    
0.0847712640    0.0194887370    0.0003355144    
0.0849939250    0.0188321360    0.0003303883    
0.0852165860    0.0201600330    0.0003422860    
0.0854392470    0.0193010480    0.0003317428    
0.0856619080    0.0198814960    0.0003391739    
0.0858845690    0.0191840350    0.0003301708    
0.0861072300    0.0194555780    0.0003347947    
0.0863298910    0.0187283950    0.0003301985    
0.0865525520    0.0195335050    0.0003343093    
0.0867752130    0.0196023590    0.0003321957    
0.0869978740    0.0189668160    0.0003275989    
0.0872205350    0.0194039640    0.0003309311    
0.0874431960    0.0193983510    0.0003308835    
0.0876658570    0.0197807830    0.0003354121    
0.0878885180    0.0193978250    0.0003327189    
0.0881111790    0.0193879210    0.0003322071    
0.0883338400    0.0192609660    0.0003262697    
0.0885565010    0.0190374340    0.0003287696    
0.0887791620    0.0195923300    0.0003292015    
0.0890018230    0.0198671000    0.0003347173    
0.0892244840    0.0197706120    0.0003344711    
0.0894471450    0.0196993250    0.0003324573    
0.0896698060    0.0193004110    0.0003278327    
0.0898924670    0.0197607650    0.0003332570    
0.0901151280    0.0194406750    0.0003269766    
0.0903377890    0.0190069390    0.0003260143    
0.0905604500    0.0192428970    0.0003265262    
0.0907831110    0.0195442210    0.0003282542    
0.0910057720    0.0196127290    0.0003303379    
0.0912284330    0.0196767840    0.0003261395    
0.0914510940    0.0192779780    0.0003264174    
0.0916737550    0.0188634430    0.0003220875    
0.0918964160    0.0201907450    0.0003346124    
0.0921190770    0.0196911390    0.0003274588    
0.0923417380    0.0194620470    0.0003256819    
0.0925643990    0.0195621520    0.0003257193    
0.0927870600    0.0193401680    0.0003251941    
0.0930097210    0.0191142650    0.0003205359    
0.0932323820    0.0193908560    0.0003252200    
