# Diamond Light Source Ltd.
# Data extracted from: /dls/b21/data/2018/cm19678-3/processed/b21-386631_00590.dat
q(1/A)          Column          Error           
0.0035000000    2.1221060000    0.0247763540    
0.0037226610    1.8654125000    0.0227404800    
0.0039453220    1.6029810000    0.0191771030    
0.0041679830    1.2698477000    0.0140171400    
0.0043906440    0.9559487100    0.0116328520    
0.0046133050    0.7818255100    0.0100992170    
0.0048359660    0.5874729200    0.0082808398    
0.0050586270    0.4499421600    0.0071231197    
0.0052812880    0.4202655600    0.0065089039    
0.0055039490    0.3847054900    0.0059213496    
0.0057266100    0.3231106700    0.0052498430    
0.0059492710    0.2666431000    0.0047690938    
0.0061719320    0.2164693300    0.0041407266    
0.0063945930    0.1965964300    0.0039939160    
0.0066172539    0.1838595900    0.0036267676    
0.0068399149    0.1722923800    0.0034555366    
0.0070625759    0.1402621400    0.0030858536    
0.0072852369    0.1283886900    0.0029081770    
0.0075078979    0.1136277300    0.0027224521    
0.0077305589    0.1018706400    0.0025286563    
0.0079532199    0.0965032260    0.0024270342    
0.0081758809    0.0917781080    0.0023888887    
0.0083985419    0.0786494850    0.0020625937    
0.0086212029    0.0763235490    0.0020318659    
0.0088438639    0.0695668430    0.0019242633    
0.0090665249    0.0628587440    0.0017666432    
0.0092891859    0.0603124010    0.0018062139    
0.0095118469    0.0601798240    0.0017350744    
0.0097345079    0.0584640910    0.0016609385    
0.0099571689    0.0539053050    0.0015619806    
0.0101798300    0.0487908730    0.0014860356    
0.0104024910    0.0461235670    0.0014399559    
0.0106251520    0.0432691010    0.0013994227    
0.0108478130    0.0459721880    0.0014047545    
0.0110704740    0.0443942800    0.0013142688    
0.0112931350    0.0401546660    0.0012536097    
0.0115157960    0.0424341830    0.0012811870    
0.0117384570    0.0400339160    0.0012337123    
0.0119611180    0.0360196510    0.0011735836    
0.0121837790    0.0372215880    0.0011729518    
0.0124064400    0.0359482630    0.0011046633    
0.0126291010    0.0353850470    0.0010822583    
0.0128517620    0.0334329190    0.0010546085    
0.0130744230    0.0342170680    0.0010589917    
0.0132970840    0.0320333030    0.0010196313    
0.0135197450    0.0311224110    0.0009906372    
0.0137424060    0.0312430260    0.0009787370    
0.0139650670    0.0287529160    0.0009180100    
0.0141877280    0.0296161360    0.0009337474    
0.0144103890    0.0275800370    0.0008855416    
0.0146330500    0.0285784390    0.0008957042    
0.0148557110    0.0276155030    0.0008767931    
0.0150783720    0.0296798920    0.0009014625    
0.0153010330    0.0270923820    0.0008491283    
0.0155236940    0.0277704510    0.0008545766    
0.0157463550    0.0259531020    0.0008118276    
0.0159690160    0.0269409910    0.0008239953    
0.0161916770    0.0261149940    0.0008066949    
0.0164143380    0.0271952310    0.0008294468    
0.0166369990    0.0267559590    0.0007973543    
0.0168596600    0.0251660000    0.0007664870    
0.0170823210    0.0271181400    0.0007887714    
0.0173049820    0.0244263230    0.0007498949    
0.0175276430    0.0241918800    0.0007541573    
0.0177503040    0.0246486780    0.0007418380    
0.0179729650    0.0242935150    0.0007291701    
0.0181956260    0.0246342800    0.0007201898    
0.0184182870    0.0244026180    0.0007134171    
0.0186409480    0.0232339750    0.0007005307    
0.0188636090    0.0239646380    0.0007069861    
0.0190862700    0.0229541260    0.0006908380    
0.0193089310    0.0235251630    0.0006982882    
0.0195315920    0.0234608810    0.0006736184    
0.0197542530    0.0232189270    0.0006711121    
0.0199769140    0.0235292970    0.0006755828    
0.0201995750    0.0217832470    0.0006398540    
0.0204222360    0.0224073740    0.0006545264    
0.0206448970    0.0229758580    0.0006580667    
0.0208675580    0.0226721460    0.0006402416    
0.0210902190    0.0220059540    0.0006368513    
0.0213128800    0.0222198250    0.0006312552    
0.0215355410    0.0227266010    0.0006308079    
0.0217582020    0.0221313060    0.0006224916    
0.0219808630    0.0220383010    0.0006203666    
0.0222035240    0.0212463090    0.0006035981    
0.0224261850    0.0221162610    0.0006103506    
0.0226488460    0.0213373680    0.0005950047    
0.0228715070    0.0216607360    0.0005980070    
0.0230941680    0.0204720460    0.0005813670    
0.0233168290    0.0215696830    0.0005982354    
0.0235394900    0.0209988440    0.0005837518    
0.0237621510    0.0208514900    0.0005660401    
0.0239848120    0.0206225400    0.0005635752    
0.0242074730    0.0203088720    0.0005547961    
0.0244301340    0.0216008670    0.0005728242    
0.0246527950    0.0205792280    0.0005642912    
0.0248754560    0.0215275670    0.0005641755    
0.0250981170    0.0211929900    0.0005610225    
0.0253207780    0.0206312660    0.0005370104    
0.0255434390    0.0214309510    0.0005531604    
0.0257661000    0.0213973790    0.0005545149    
0.0259887610    0.0215076720    0.0005500342    
0.0262114220    0.0210266260    0.0005467459    
0.0264340830    0.0207626640    0.0005359111    
0.0266567440    0.0210396940    0.0005361411    
0.0268794050    0.0212206240    0.0005362438    
0.0271020660    0.0201485840    0.0005204077    
0.0273247270    0.0218595090    0.0005387974    
0.0275473880    0.0204233900    0.0005197616    
0.0277700490    0.0207839490    0.0005212301    
0.0279927100    0.0204999150    0.0005131397    
0.0282153710    0.0211796110    0.0005241129    
0.0284380320    0.0207424730    0.0005156693    
0.0286606930    0.0208803700    0.0005129522    
0.0288833540    0.0206435430    0.0005110038    
0.0291060150    0.0202635000    0.0005057978    
0.0293286760    0.0206725030    0.0005037581    
0.0295513370    0.0204769420    0.0004959101    
0.0297739980    0.0212003860    0.0005101497    
0.0299966590    0.0211702660    0.0005010802    
0.0302193200    0.0210348760    0.0005067542    
0.0304419810    0.0200463300    0.0004956136    
0.0306646420    0.0203771370    0.0004855830    
0.0308873030    0.0198688070    0.0004774169    
0.0311099640    0.0206985900    0.0004885495    
0.0313326250    0.0203101940    0.0004785829    
0.0315552860    0.0202036120    0.0004835116    
0.0317779470    0.0205981580    0.0004886351    
0.0320006080    0.0207688030    0.0004795071    
0.0322232690    0.0200276280    0.0004728445    
0.0324459300    0.0197297080    0.0004658107    
0.0326685910    0.0202895110    0.0004715941    
0.0328912520    0.0204351470    0.0004748509    
0.0331139130    0.0202939090    0.0004670514    
0.0333365740    0.0205449200    0.0004714569    
0.0335592350    0.0197060340    0.0004572917    
0.0337818960    0.0196958570    0.0004568096    
0.0340045570    0.0201297200    0.0004610800    
0.0342272170    0.0205999160    0.0004645941    
0.0344498780    0.0214499010    0.0004759599    
0.0346725390    0.0202252930    0.0004536142    
0.0348952000    0.0201019260    0.0004501685    
0.0351178610    0.0192995110    0.0004431111    
0.0353405220    0.0197591900    0.0004463146    
0.0355631830    0.0203610440    0.0004513546    
0.0357858440    0.0201609480    0.0004491314    
0.0360085050    0.0197394000    0.0004457539    
0.0362311660    0.0200198330    0.0004435728    
0.0364538270    0.0206378460    0.0004467527    
0.0366764880    0.0203181970    0.0004429577    
0.0368991490    0.0203528570    0.0004411005    
0.0371218100    0.0200274540    0.0004363083    
0.0373444710    0.0198055170    0.0004386090    
0.0375671320    0.0199028330    0.0004390449    
0.0377897930    0.0206134560    0.0004352474    
0.0380124540    0.0201191690    0.0004326953    
0.0382351150    0.0198586200    0.0004298846    
0.0384577760    0.0199701250    0.0004269304    
0.0386804370    0.0205540960    0.0004364330    
0.0389030980    0.0197328470    0.0004243868    
0.0391257590    0.0198890100    0.0004231704    
0.0393484200    0.0197732470    0.0004205171    
0.0395710810    0.0200328040    0.0004238383    
0.0397937420    0.0196741290    0.0004200270    
0.0400164030    0.0198164490    0.0004232584    
0.0402390640    0.0198995000    0.0004184966    
0.0404617250    0.0195610310    0.0004124744    
0.0406843860    0.0190313240    0.0004029204    
0.0409070470    0.0197956800    0.0004152128    
0.0411297080    0.0193803540    0.0004068595    
0.0413523690    0.0193430290    0.0004075153    
0.0415750300    0.0196992380    0.0004147438    
0.0417976910    0.0197706300    0.0004047485    
0.0420203520    0.0194352710    0.0004028089    
0.0422430130    0.0198182400    0.0004082982    
0.0424656740    0.0196580670    0.0004013522    
0.0426883350    0.0196302380    0.0004030586    
0.0429109960    0.0199529580    0.0004076279    
0.0431336570    0.0205198290    0.0004075536    
0.0433563180    0.0201342480    0.0004071890    
0.0435789790    0.0203682170    0.0004031138    
0.0438016400    0.0203081500    0.0004047087    
0.0440243010    0.0196531710    0.0003940894    
0.0442469620    0.0193855700    0.0003937425    
0.0444696230    0.0200328550    0.0003988267    
0.0446922840    0.0202376650    0.0003996699    
0.0449149450    0.0197693410    0.0003897376    
0.0451376060    0.0191188880    0.0003880059    
0.0453602670    0.0194217510    0.0003869673    
0.0455829280    0.0201922420    0.0003941122    
0.0458055890    0.0194789900    0.0003893463    
0.0460282500    0.0195209560    0.0003850654    
0.0462509110    0.0198790060    0.0003861640    
0.0464735720    0.0201192490    0.0003887097    
0.0466962330    0.0201358600    0.0003906379    
0.0469188940    0.0197731850    0.0003860066    
0.0471415550    0.0197560350    0.0003878208    
0.0473642160    0.0195841340    0.0003807233    
0.0475868770    0.0189503510    0.0003726516    
0.0478095380    0.0200342800    0.0003814842    
0.0480321990    0.0198959930    0.0003809983    
0.0482548600    0.0199038140    0.0003794129    
0.0484775210    0.0192904000    0.0003772293    
0.0487001820    0.0203341550    0.0003816308    
0.0489228430    0.0205698780    0.0003836302    
0.0491455040    0.0194960390    0.0003708992    
0.0493681650    0.0201842750    0.0003806322    
0.0495908260    0.0197189340    0.0003698890    
0.0498134870    0.0200466490    0.0003765002    
0.0500361480    0.0195257200    0.0003705931    
0.0502588090    0.0197161470    0.0003668160    
0.0504814700    0.0199128200    0.0003734602    
0.0507041310    0.0195789050    0.0003659129    
0.0509267920    0.0199894660    0.0003712591    
0.0511494530    0.0196625420    0.0003657554    
0.0513721140    0.0196157200    0.0003685369    
0.0515947750    0.0192540690    0.0003602827    
0.0518174360    0.0195223550    0.0003605988    
0.0520400970    0.0201130540    0.0003634757    
0.0522627580    0.0195945550    0.0003618090    
0.0524854190    0.0194867270    0.0003637458    
0.0527080800    0.0201757870    0.0003729867    
0.0529307410    0.0199898910    0.0003730081    
0.0531534020    0.0194231140    0.0003663434    
0.0533760630    0.0203653620    0.0003762985    
0.0535987240    0.0197761250    0.0003690835    
0.0538213850    0.0196096880    0.0003717852    
0.0540440460    0.0194384790    0.0003684068    
0.0542667070    0.0198842980    0.0003751754    
0.0544893680    0.0195724360    0.0003724200    
0.0547120290    0.0201509210    0.0003752948    
0.0549346900    0.0198012930    0.0003722205    
0.0551573510    0.0200481930    0.0003789429    
0.0553800120    0.0192933320    0.0003685802    
0.0556026730    0.0201897090    0.0003848627    
0.0558253340    0.0195147160    0.0003815429    
0.0560479950    0.0207008370    0.0003929673    
0.0562706560    0.0194224070    0.0003843197    
0.0564933170    0.0195290690    0.0003887200    
0.0567159780    0.0198792980    0.0003874879    
0.0569386390    0.0193780210    0.0003885720    
0.0571613000    0.0189329690    0.0003758140    
0.0573839610    0.0191847790    0.0003751638    
0.0576066220    0.0200214790    0.0003843184    
0.0578292830    0.0192956010    0.0003760390    
0.0580519440    0.0196449340    0.0003808989    
0.0582746050    0.0202114140    0.0003846480    
0.0584972660    0.0198245210    0.0003794905    
0.0587199270    0.0195199040    0.0003733176    
0.0589425880    0.0195674270    0.0003715855    
0.0591652490    0.0197269970    0.0003752931    
0.0593879100    0.0197234700    0.0003724726    
0.0596105710    0.0200679370    0.0003753148    
0.0598332320    0.0195628460    0.0003737289    
0.0600558930    0.0201389160    0.0003767740    
0.0602785540    0.0196602470    0.0003718759    
0.0605012150    0.0195074430    0.0003696475    
0.0607238760    0.0194312440    0.0003662363    
0.0609465370    0.0200469200    0.0003749217    
0.0611691980    0.0198713550    0.0003738680    
0.0613918590    0.0194260740    0.0003656197    
0.0616145200    0.0204935090    0.0003782790    
0.0618371810    0.0199217880    0.0003693021    
0.0620598420    0.0188652710    0.0003597466    
0.0622825030    0.0195315450    0.0003716420    
0.0625051640    0.0193992380    0.0003651793    
0.0627278250    0.0192988890    0.0003634836    
0.0629504860    0.0198484770    0.0003656260    
0.0631731470    0.0198939690    0.0003705736    
0.0633958080    0.0194742430    0.0003687537    
0.0636184690    0.0190944600    0.0003702257    
0.0638411300    0.0197493270    0.0003751075    
0.0640637910    0.0187926130    0.0003684826    
0.0642864520    0.0197760680    0.0003771834    
0.0645091130    0.0194287330    0.0003771326    
0.0647317740    0.0190313950    0.0003736678    
0.0649544350    0.0185649510    0.0003686542    
0.0651770960    0.0195070240    0.0003758307    
0.0653997570    0.0195090240    0.0003750349    
0.0656224180    0.0192681180    0.0003735226    
0.0658450790    0.0200617510    0.0003756592    
0.0660677400    0.0191190760    0.0003682880    
0.0662904010    0.0189244700    0.0003707830    
0.0665130620    0.0196824730    0.0003764955    
0.0667357230    0.0193068720    0.0003795157    
0.0669583840    0.0192519990    0.0003777081    
0.0671810450    0.0189520510    0.0003726850    
0.0674037060    0.0199861740    0.0003892016    
0.0676263670    0.0188133030    0.0003748443    
0.0678490280    0.0198011800    0.0003822080    
0.0680716890    0.0196967360    0.0003820470    
0.0682943500    0.0203404770    0.0003839877    
0.0685170110    0.0201269020    0.0003780742    
0.0687396720    0.0195962400    0.0003720656    
0.0689623330    0.0194511790    0.0003695113    
0.0691849940    0.0189245260    0.0003669998    
0.0694076550    0.0200418600    0.0003774770    
0.0696303160    0.0198937050    0.0003731017    
0.0698529770    0.0187721530    0.0003616723    
0.0700756380    0.0190266560    0.0003594417    
0.0702982990    0.0193461760    0.0003663943    
0.0705209600    0.0200526900    0.0003703315    
0.0707436210    0.0192658170    0.0003613258    
0.0709662820    0.0199499510    0.0003720685    
0.0711889430    0.0194493570    0.0003628586    
0.0714116040    0.0195832270    0.0003648486    
0.0716342650    0.0189188510    0.0003571502    
0.0718569260    0.0196362150    0.0003623930    
0.0720795870    0.0197414600    0.0003648327    
0.0723022480    0.0195041070    0.0003631855    
0.0725249090    0.0191123680    0.0003552141    
0.0727475700    0.0192790920    0.0003598073    
0.0729702310    0.0200037100    0.0003635836    
0.0731928920    0.0193712240    0.0003592195    
0.0734155530    0.0195461180    0.0003601174    
0.0736382140    0.0193549950    0.0003560527    
0.0738608750    0.0196788660    0.0003613387    
0.0740835360    0.0196737050    0.0003603944    
0.0743061970    0.0190272900    0.0003494335    
0.0745288580    0.0198528930    0.0003606043    
0.0747515190    0.0196025970    0.0003590316    
0.0749741800    0.0194027390    0.0003538902    
0.0751968410    0.0198397500    0.0003606631    
0.0754195020    0.0197051550    0.0003573318    
0.0756421630    0.0195946640    0.0003534157    
0.0758648240    0.0194071670    0.0003525663    
0.0760874850    0.0197852610    0.0003558132    
0.0763101460    0.0199197500    0.0003566779    
0.0765328070    0.0200426990    0.0003614379    
0.0767554680    0.0196237310    0.0003552134    
0.0769781290    0.0201297960    0.0003576970    
0.0772007900    0.0202397660    0.0003557961    
0.0774234510    0.0191801790    0.0003483277    
0.0776461120    0.0191816940    0.0003480111    
0.0778687730    0.0190112620    0.0003453170    
0.0780914340    0.0197483590    0.0003544624    
0.0783140950    0.0198845970    0.0003500397    
0.0785367560    0.0197802250    0.0003547487    
0.0787594170    0.0194648580    0.0003487564    
0.0789820780    0.0193524840    0.0003459664    
0.0792047390    0.0198029550    0.0003511140    
0.0794274000    0.0198267210    0.0003528132    
0.0796500610    0.0191645520    0.0003434861    
0.0798727220    0.0193135360    0.0003445003    
0.0800953830    0.0195918090    0.0003461753    
0.0803180440    0.0189974090    0.0003432582    
0.0805407050    0.0190611430    0.0003435137    
0.0807633660    0.0196189770    0.0003481805    
0.0809860270    0.0193946120    0.0003449055    
0.0812086880    0.0200735760    0.0003478585    
0.0814313490    0.0198616850    0.0003475958    
0.0816540100    0.0192808520    0.0003416958    
0.0818766710    0.0191925870    0.0003416912    
0.0820993320    0.0197954760    0.0003463840    
0.0823219930    0.0188407590    0.0003393217    
0.0825446540    0.0195195650    0.0003428709    
0.0827673150    0.0195493310    0.0003408270    
0.0829899760    0.0191126930    0.0003363993    
0.0832126370    0.0191110410    0.0003378915    
0.0834352980    0.0194063090    0.0003397304    
0.0836579590    0.0194029030    0.0003389444    
0.0838806200    0.0193636590    0.0003396611    
0.0841032810    0.0193240620    0.0003372072    
0.0843259420    0.0201643170    0.0003433997    
0.0845486030    0.0196087750    0.0003386364    
0.0847712640    0.0199424330    0.0003394242    
0.0849939250    0.0190785990    0.0003325696    
0.0852165860    0.0189309940    0.0003317146    
0.0854392470    0.0198515750    0.0003364674    
0.0856619080    0.0197920480    0.0003384369    
0.0858845690    0.0198179250    0.0003356079    
0.0861072300    0.0199772480    0.0003392804    
0.0863298910    0.0190807160    0.0003333162    
0.0865525520    0.0194908170    0.0003339702    
0.0867752130    0.0191662810    0.0003285058    
0.0869978740    0.0189754770    0.0003276996    
0.0872205350    0.0190739890    0.0003281311    
0.0874431960    0.0194240000    0.0003311283    
0.0876658570    0.0192264600    0.0003307052    
0.0878885180    0.0196349160    0.0003347725    
0.0881111790    0.0195902500    0.0003339625    
0.0883338400    0.0197615070    0.0003305080    
0.0885565010    0.0194663440    0.0003324788    
0.0887791620    0.0198443840    0.0003313385    
0.0890018230    0.0192667490    0.0003296473    
0.0892244840    0.0200114330    0.0003365287    
0.0894471450    0.0200559760    0.0003354799    
0.0896698060    0.0196543370    0.0003308511    
0.0898924670    0.0192973390    0.0003293522    
0.0901151280    0.0194217500    0.0003268432    
0.0903377890    0.0193287370    0.0003287885    
0.0905604500    0.0193179840    0.0003271885    
0.0907831110    0.0202145140    0.0003338621    
0.0910057720    0.0197215640    0.0003312795    
0.0912284330    0.0194744490    0.0003244840    
0.0914510940    0.0192699740    0.0003263754    
0.0916737550    0.0192954610    0.0003257807    
0.0918964160    0.0197779710    0.0003312006    
0.0921190770    0.0200047010    0.0003300818    
0.0923417380    0.0191435240    0.0003230313    
0.0925643990    0.0193753990    0.0003241865    
0.0927870600    0.0191572890    0.0003236786    
0.0930097210    0.0194344770    0.0003232352    
0.0932323820    0.0197539810    0.0003282769    
