# Diamond Light Source Ltd.
# Data extracted from: /dls/b21/data/2018/cm19678-3/processed/b21-386631_00589.dat
q(1/A)          Column          Error           
0.0035000000    2.0536264000    0.0243737780    
0.0037226610    1.8665924000    0.0227481030    
0.0039453220    1.6333270000    0.0193581410    
0.0041679830    1.2556606000    0.0139388840    
0.0043906440    0.9633464300    0.0116779990    
0.0046133050    0.7692005000    0.0100175340    
0.0048359660    0.5912305800    0.0083074391    
0.0050586270    0.4623641700    0.0072209152    
0.0052812880    0.4275399500    0.0065651184    
0.0055039490    0.3737828000    0.0058367949    
0.0057266100    0.3056361100    0.0051060052    
0.0059492710    0.2667385500    0.0047700380    
0.0061719320    0.2316064400    0.0042831368    
0.0063945930    0.1934394200    0.0039617938    
0.0066172539    0.1856551700    0.0036445035    
0.0068399149    0.1619027800    0.0033497923    
0.0070625759    0.1408106300    0.0030919400    
0.0072852369    0.1233869500    0.0028510204    
0.0075078979    0.1110880500    0.0026919068    
0.0077305589    0.1007446700    0.0025146907    
0.0079532199    0.0958964800    0.0024194384    
0.0081758809    0.0882993710    0.0023432220    
0.0083985419    0.0836832060    0.0021276155    
0.0086212029    0.0765969220    0.0020355402    
0.0088438639    0.0670677560    0.0018894200    
0.0090665249    0.0645493490    0.0017902768    
0.0092891859    0.0608556340    0.0018143645    
0.0095118469    0.0633838220    0.0017806974    
0.0097345079    0.0578056780    0.0016515908    
0.0099571689    0.0539978800    0.0015633510    
0.0101798300    0.0525042350    0.0015415774    
0.0104024910    0.0516549650    0.0015238845    
0.0106251520    0.0477517140    0.0014701537    
0.0108478130    0.0454158960    0.0013962560    
0.0110704740    0.0440457820    0.0013091250    
0.0112931350    0.0427784790    0.0012939433    
0.0115157960    0.0420489620    0.0012753827    
0.0117384570    0.0370318310    0.0011865764    
0.0119611180    0.0383918310    0.0012116355    
0.0121837790    0.0366685400    0.0011642273    
0.0124064400    0.0348972810    0.0010884163    
0.0126291010    0.0344926300    0.0010685441    
0.0128517620    0.0346983690    0.0010744022    
0.0130744230    0.0319568110    0.0010234370    
0.0132970840    0.0325538250    0.0010279016    
0.0135197450    0.0326056700    0.0010139881    
0.0137424060    0.0315814920    0.0009840429    
0.0139650670    0.0307471520    0.0009493299    
0.0141877280    0.0294700590    0.0009314595    
0.0144103890    0.0291165280    0.0009098915    
0.0146330500    0.0282426360    0.0008904432    
0.0148557110    0.0292869100    0.0009029541    
0.0150783720    0.0295441160    0.0008994153    
0.0153010330    0.0299145340    0.0008922758    
0.0155236940    0.0265091660    0.0008349603    
0.0157463550    0.0242272020    0.0007843846    
0.0159690160    0.0261607220    0.0008119907    
0.0161916770    0.0259664680    0.0008044129    
0.0164143380    0.0252229550    0.0007988190    
0.0166369990    0.0246183190    0.0007648540    
0.0168596600    0.0262642180    0.0007830477    
0.0170823210    0.0236547090    0.0007366959    
0.0173049820    0.0233221550    0.0007327637    
0.0175276430    0.0251332400    0.0007687049    
0.0177503040    0.0233099620    0.0007214252    
0.0179729650    0.0250167060    0.0007399579    
0.0181956260    0.0237719320    0.0007074855    
0.0184182870    0.0254672910    0.0007288278    
0.0186409480    0.0238685370    0.0007100462    
0.0188636090    0.0240489810    0.0007082426    
0.0190862700    0.0235787770    0.0007001881    
0.0193089310    0.0228005850    0.0006874635    
0.0195315920    0.0241967680    0.0006841144    
0.0197542530    0.0235495820    0.0006758867    
0.0199769140    0.0223856900    0.0006589729    
0.0201995750    0.0225922850    0.0006516403    
0.0204222360    0.0229053370    0.0006617718    
0.0206448970    0.0226186050    0.0006529429    
0.0208675580    0.0231250220    0.0006466167    
0.0210902190    0.0215828740    0.0006307116    
0.0213128800    0.0225434880    0.0006358483    
0.0215355410    0.0216418700    0.0006155815    
0.0217582020    0.0219920710    0.0006205422    
0.0219808630    0.0211310290    0.0006074744    
0.0222035240    0.0221388440    0.0006161576    
0.0224261850    0.0208369040    0.0005924454    
0.0226488460    0.0214709210    0.0005968752    
0.0228715070    0.0213313540    0.0005934541    
0.0230941680    0.0211992800    0.0005916142    
0.0233168290    0.0228813260    0.0006161679    
0.0235394900    0.0208211290    0.0005812875    
0.0237621510    0.0213286440    0.0005724908    
0.0239848120    0.0216244570    0.0005771141    
0.0242074730    0.0214312220    0.0005699309    
0.0244301340    0.0220726120    0.0005790565    
0.0246527950    0.0209668530    0.0005695916    
0.0248754560    0.0202567910    0.0005472810    
0.0250981170    0.0208670520    0.0005567022    
0.0253207780    0.0215686000    0.0005490843    
0.0255434390    0.0210890870    0.0005487411    
0.0257661000    0.0209383260    0.0005485449    
0.0259887610    0.0209880100    0.0005433590    
0.0262114220    0.0211269470    0.0005480590    
0.0264340830    0.0206251230    0.0005341432    
0.0266567440    0.0206989280    0.0005317917    
0.0268794050    0.0205438630    0.0005276337    
0.0271020660    0.0217086060    0.0005401889    
0.0273247270    0.0213822290    0.0005328930    
0.0275473880    0.0209797460    0.0005268035    
0.0277700490    0.0209677500    0.0005235397    
0.0279927100    0.0208475110    0.0005174817    
0.0282153710    0.0207005170    0.0005181610    
0.0284380320    0.0209612070    0.0005183910    
0.0286606930    0.0210323850    0.0005148259    
0.0288833540    0.0204925310    0.0005091410    
0.0291060150    0.0200875110    0.0005036062    
0.0293286760    0.0209310920    0.0005069086    
0.0295513370    0.0202014830    0.0004925726    
0.0297739980    0.0216799690    0.0005158974    
0.0299966590    0.0200087380    0.0004871494    
0.0302193200    0.0208647540    0.0005047104    
0.0304419810    0.0205372420    0.0005016550    
0.0306646420    0.0200654740    0.0004818644    
0.0308873030    0.0193647930    0.0004713317    
0.0311099640    0.0202381100    0.0004830937    
0.0313326250    0.0187321020    0.0004596229    
0.0315552860    0.0197415080    0.0004779592    
0.0317779470    0.0208655570    0.0004918059    
0.0320006080    0.0201717480    0.0004725735    
0.0322232690    0.0201846880    0.0004747039    
0.0324459300    0.0203573460    0.0004731708    
0.0326685910    0.0194900720    0.0004622188    
0.0328912520    0.0194097150    0.0004627924    
0.0331139130    0.0203376780    0.0004675637    
0.0333365740    0.0203834140    0.0004696091    
0.0335592350    0.0195900500    0.0004559526    
0.0337818960    0.0204700610    0.0004657100    
0.0340045570    0.0201727330    0.0004615811    
0.0342272170    0.0205168720    0.0004636655    
0.0344498780    0.0198770310    0.0004581859    
0.0346725390    0.0197580550    0.0004483525    
0.0348952000    0.0201127730    0.0004502985    
0.0351178610    0.0203176540    0.0004546577    
0.0353405220    0.0199414110    0.0004483764    
0.0355631830    0.0196113830    0.0004429760    
0.0357858440    0.0198715470    0.0004459047    
0.0360085050    0.0195488900    0.0004436061    
0.0362311660    0.0195488280    0.0004383322    
0.0364538270    0.0197005110    0.0004364977    
0.0366764880    0.0198554200    0.0004378925    
0.0368991490    0.0203058300    0.0004405990    
0.0371218100    0.0200567320    0.0004366354    
0.0373444710    0.0199811170    0.0004405575    
0.0375671320    0.0187703930    0.0004263797    
0.0377897930    0.0197595260    0.0004261449    
0.0380124540    0.0195708710    0.0004267667    
0.0382351150    0.0193568420    0.0004244268    
0.0384577760    0.0200986690    0.0004283104    
0.0386804370    0.0197949590    0.0004283058    
0.0389030980    0.0202629910    0.0004300580    
0.0391257590    0.0196196470    0.0004203031    
0.0393484200    0.0194520340    0.0004170954    
0.0395710810    0.0195672530    0.0004188924    
0.0397937420    0.0188946980    0.0004116306    
0.0400164030    0.0199618540    0.0004248165    
0.0402390640    0.0205075630    0.0004248505    
0.0404617250    0.0191442710    0.0004080645    
0.0406843860    0.0201751650    0.0004148600    
0.0409070470    0.0203712530    0.0004212138    
0.0411297080    0.0197569260    0.0004108010    
0.0413523690    0.0202195140    0.0004166537    
0.0415750300    0.0197436490    0.0004152189    
0.0417976910    0.0197879550    0.0004049335    
0.0420203520    0.0193775690    0.0004022182    
0.0422430130    0.0189946040    0.0003997314    
0.0424656740    0.0196260370    0.0004010328    
0.0426883350    0.0200447910    0.0004073000    
0.0429109960    0.0203534580    0.0004117064    
0.0431336570    0.0199701550    0.0004020655    
0.0433563180    0.0199703110    0.0004055356    
0.0435789790    0.0200578330    0.0004000381    
0.0438016400    0.0200346960    0.0004019823    
0.0440243010    0.0203177420    0.0004007047    
0.0442469620    0.0197701940    0.0003976369    
0.0444696230    0.0195810150    0.0003943108    
0.0446922840    0.0196148640    0.0003934795    
0.0449149450    0.0199237670    0.0003912643    
0.0451376060    0.0199700760    0.0003965565    
0.0453602670    0.0196152490    0.0003888976    
0.0455829280    0.0193391350    0.0003857042    
0.0458055890    0.0199622500    0.0003941539    
0.0460282500    0.0197951540    0.0003877677    
0.0462509110    0.0198122460    0.0003855223    
0.0464735720    0.0201650760    0.0003891596    
0.0466962330    0.0193408610    0.0003828560    
0.0469188940    0.0202034780    0.0003901914    
0.0471415550    0.0195359980    0.0003856624    
0.0473642160    0.0192962130    0.0003779215    
0.0475868770    0.0204313950    0.0003869471    
0.0478095380    0.0197299400    0.0003785828    
0.0480321990    0.0202834490    0.0003846975    
0.0482548600    0.0201866490    0.0003821064    
0.0484775210    0.0188116220    0.0003725256    
0.0487001820    0.0196258200    0.0003749320    
0.0489228430    0.0196047340    0.0003745292    
0.0491455040    0.0187417480    0.0003636604    
0.0493681650    0.0193380180    0.0003725745    
0.0495908260    0.0191923460    0.0003649236    
0.0498134870    0.0198423410    0.0003745839    
0.0500361480    0.0201384230    0.0003763698    
0.0502588090    0.0191231380    0.0003612643    
0.0504814700    0.0196263960    0.0003707716    
0.0507041310    0.0189709920    0.0003601943    
0.0509267920    0.0202798400    0.0003739530    
0.0511494530    0.0197517410    0.0003665911    
0.0513721140    0.0200803930    0.0003728835    
0.0515947750    0.0195716690    0.0003632489    
0.0518174360    0.0194032010    0.0003595035    
0.0520400970    0.0196999810    0.0003597308    
0.0522627580    0.0200162020    0.0003656880    
0.0524854190    0.0197794410    0.0003664745    
0.0527080800    0.0196938620    0.0003685121    
0.0529307410    0.0196217430    0.0003695643    
0.0531534020    0.0192925640    0.0003651171    
0.0533760630    0.0196151840    0.0003693098    
0.0535987240    0.0199146470    0.0003703809    
0.0538213850    0.0197725620    0.0003733331    
0.0540440460    0.0199768700    0.0003734810    
0.0542667070    0.0198921330    0.0003752565    
0.0544893680    0.0196865650    0.0003735114    
0.0547120290    0.0195645420    0.0003698011    
0.0549346900    0.0187034880    0.0003617622    
0.0551573510    0.0199128610    0.0003776689    
0.0553800120    0.0196602310    0.0003720753    
0.0556026730    0.0192660580    0.0003759634    
0.0558253340    0.0198064000    0.0003843911    
0.0560479950    0.0191648550    0.0003781146    
0.0562706560    0.0200391500    0.0003903813    
0.0564933170    0.0195839750    0.0003892734    
0.0567159780    0.0190038820    0.0003788672    
0.0569386390    0.0199943280    0.0003947103    
0.0571613000    0.0200825420    0.0003870625    
0.0573839610    0.0198017930    0.0003811563    
0.0576066220    0.0199705990    0.0003838371    
0.0578292830    0.0191057900    0.0003741920    
0.0580519440    0.0190917620    0.0003755050    
0.0582746050    0.0197290230    0.0003800373    
0.0584972660    0.0198180100    0.0003794354    
0.0587199270    0.0193492880    0.0003716895    
0.0589425880    0.0197516450    0.0003733377    
0.0591652490    0.0193064890    0.0003712786    
0.0593879100    0.0194709850    0.0003700879    
0.0596105710    0.0194018500    0.0003690406    
0.0598332320    0.0200348290    0.0003782177    
0.0600558930    0.0189906550    0.0003658821    
0.0602785540    0.0190771440    0.0003663267    
0.0605012150    0.0194871710    0.0003694624    
0.0607238760    0.0193215350    0.0003652079    
0.0609465370    0.0191781780    0.0003667150    
0.0611691980    0.0191123990    0.0003666658    
0.0613918590    0.0197433680    0.0003686005    
0.0616145200    0.0190628300    0.0003648430    
0.0618371810    0.0190188430    0.0003608427    
0.0620598420    0.0196069070    0.0003667566    
0.0622825030    0.0195252170    0.0003715888    
0.0625051640    0.0187400190    0.0003589278    
0.0627278250    0.0198267860    0.0003684284    
0.0629504860    0.0197077890    0.0003643349    
0.0631731470    0.0202605900    0.0003739797    
0.0633958080    0.0197193810    0.0003710744    
0.0636184690    0.0196910130    0.0003759717    
0.0638411300    0.0194650850    0.0003724054    
0.0640637910    0.0197326330    0.0003775932    
0.0642864520    0.0192084800    0.0003717383    
0.0645091130    0.0195539260    0.0003783529    
0.0647317740    0.0190101080    0.0003734658    
0.0649544350    0.0194002340    0.0003768635    
0.0651770960    0.0199349970    0.0003799383    
0.0653997570    0.0196828020    0.0003767087    
0.0656224180    0.0195295350    0.0003760551    
0.0658450790    0.0191339550    0.0003668768    
0.0660677400    0.0200420940    0.0003770803    
0.0662904010    0.0206397180    0.0003872292    
0.0665130620    0.0196112010    0.0003758204    
0.0667357230    0.0190912540    0.0003773978    
0.0669583840    0.0197937050    0.0003829924    
0.0671810450    0.0190993520    0.0003741377    
0.0674037060    0.0198050290    0.0003874412    
0.0676263670    0.0190455530    0.0003771581    
0.0678490280    0.0203552660    0.0003875261    
0.0680716890    0.0196307890    0.0003814141    
0.0682943500    0.0200585320    0.0003813244    
0.0685170110    0.0195452860    0.0003725785    
0.0687396720    0.0199219540    0.0003751521    
0.0689623330    0.0201960200    0.0003765268    
0.0691849940    0.0190177720    0.0003679098    
0.0694076550    0.0190330260    0.0003678609    
0.0696303160    0.0192436760    0.0003669625    
0.0698529770    0.0196230120    0.0003697850    
0.0700756380    0.0191496120    0.0003606081    
0.0702982990    0.0198951200    0.0003715632    
0.0705209600    0.0200876500    0.0003706612    
0.0707436210    0.0196528300    0.0003649439    
0.0709662820    0.0196037410    0.0003688330    
0.0711889430    0.0188475700    0.0003572077    
0.0714116040    0.0196723410    0.0003656847    
0.0716342650    0.0197219330    0.0003646587    
0.0718569260    0.0192490380    0.0003588093    
0.0720795870    0.0202141910    0.0003691820    
0.0723022480    0.0192140350    0.0003604815    
0.0725249090    0.0198789400    0.0003622746    
0.0727475700    0.0199916540    0.0003664032    
0.0729702310    0.0188677780    0.0003531162    
0.0731928920    0.0195917940    0.0003612657    
0.0734155530    0.0202236370    0.0003663125    
0.0736382140    0.0198207930    0.0003603185    
0.0738608750    0.0194407520    0.0003591528    
0.0740835360    0.0195093990    0.0003588931    
0.0743061970    0.0193232210    0.0003521471    
0.0745288580    0.0194278860    0.0003567303    
0.0747515190    0.0197545930    0.0003604277    
0.0749741800    0.0194615710    0.0003544331    
0.0751968410    0.0197487110    0.0003598415    
0.0754195020    0.0197253450    0.0003575216    
0.0756421630    0.0192448090    0.0003502532    
0.0758648240    0.0199267300    0.0003572614    
0.0760874850    0.0191461040    0.0003500254    
0.0763101460    0.0200418580    0.0003577763    
0.0765328070    0.0195871870    0.0003573138    
0.0767554680    0.0190136240    0.0003496546    
0.0769781290    0.0200669980    0.0003571455    
0.0772007900    0.0192772960    0.0003472400    
0.0774234510    0.0190923420    0.0003475358    
0.0776461120    0.0199148660    0.0003546064    
0.0778687730    0.0195200580    0.0003499140    
0.0780914340    0.0195645990    0.0003528161    
0.0783140950    0.0195217860    0.0003468382    
0.0785367560    0.0202454400    0.0003589030    
0.0787594170    0.0197780480    0.0003515577    
0.0789820780    0.0198294740    0.0003502107    
0.0792047390    0.0198348360    0.0003514032    
0.0794274000    0.0193063600    0.0003481592    
0.0796500610    0.0194300120    0.0003458634    
0.0798727220    0.0191852220    0.0003433605    
0.0800953830    0.0193234090    0.0003438024    
0.0803180440    0.0192152180    0.0003452269    
0.0805407050    0.0188513770    0.0003416248    
0.0807633660    0.0197680300    0.0003495073    
0.0809860270    0.0195548310    0.0003463338    
0.0812086880    0.0189229280    0.0003377479    
0.0814313490    0.0200449430    0.0003492023    
0.0816540100    0.0195480390    0.0003440618    
0.0818766710    0.0196434940    0.0003456883    
0.0820993320    0.0198447200    0.0003468212    
0.0823219930    0.0198804150    0.0003485647    
0.0825446540    0.0192552990    0.0003405485    
0.0827673150    0.0199838600    0.0003446005    
0.0829899760    0.0200548800    0.0003445978    
0.0832126370    0.0190281280    0.0003371641    
0.0834352980    0.0192583560    0.0003384393    
0.0836579590    0.0198181230    0.0003425584    
0.0838806200    0.0192750210    0.0003388892    
0.0841032810    0.0193601040    0.0003375280    
0.0843259420    0.0190655960    0.0003339194    
0.0845486030    0.0192703170    0.0003357076    
0.0847712640    0.0196716590    0.0003371184    
0.0849939250    0.0194967400    0.0003362007    
0.0852165860    0.0198849840    0.0003399764    
0.0854392470    0.0197439720    0.0003355606    
0.0856619080    0.0197465020    0.0003380537    
0.0858845690    0.0193810430    0.0003318944    
0.0861072300    0.0189004510    0.0003300162    
0.0863298910    0.0194890410    0.0003368702    
0.0865525520    0.0194228860    0.0003333941    
0.0867752130    0.0191388570    0.0003282770    
0.0869978740    0.0198534160    0.0003352011    
0.0872205350    0.0188093960    0.0003258535    
0.0874431960    0.0197408640    0.0003338246    
0.0876658570    0.0197619120    0.0003352849    
0.0878885180    0.0192132680    0.0003311648    
0.0881111790    0.0197561040    0.0003353795    
0.0883338400    0.0194029450    0.0003275021    
0.0885565010    0.0189616680    0.0003281469    
0.0887791620    0.0193361480    0.0003270743    
0.0890018230    0.0191264730    0.0003284513    
0.0892244840    0.0192934310    0.0003304425    
0.0894471450    0.0195797320    0.0003314792    
0.0896698060    0.0194044520    0.0003287474    
0.0898924670    0.0196128680    0.0003320402    
0.0901151280    0.0190979560    0.0003241134    
0.0903377890    0.0190274500    0.0003262221    
0.0905604500    0.0192577580    0.0003266844    
0.0907831110    0.0198182560    0.0003305799    
0.0910057720    0.0196944890    0.0003310583    
0.0912284330    0.0192805460    0.0003228707    
0.0914510940    0.0196410850    0.0003295094    
0.0916737550    0.0194282100    0.0003269057    
0.0918964160    0.0187304400    0.0003223164    
0.0921190770    0.0197222380    0.0003277494    
0.0923417380    0.0194495140    0.0003256090    
0.0925643990    0.0196093880    0.0003261444    
0.0927870600    0.0194588140    0.0003262221    
0.0930097210    0.0193545730    0.0003225762    
0.0932323820    0.0198529330    0.0003291044    
