# Diamond Light Source Ltd.
# Data extracted from: /dls/b21/data/2018/cm19678-3/processed/b21-386631_00591.dat
q(1/A)          Column          Error           
0.0035000000    2.0992769000    0.0246411660    
0.0037226610    1.8277564000    0.0225083600    
0.0039453220    1.6293878000    0.0193331920    
0.0041679830    1.2766488000    0.0140537380    
0.0043906440    0.9647447900    0.0116855100    
0.0046133050    0.7648997900    0.0099886676    
0.0048359660    0.5857646200    0.0082682678    
0.0050586270    0.4518020100    0.0071373745    
0.0052812880    0.4219258700    0.0065213354    
0.0055039490    0.3770019300    0.0058613925    
0.0057266100    0.3131764000    0.0051681807    
0.0059492710    0.2673769400    0.0047753496    
0.0061719320    0.2185010200    0.0041598494    
0.0063945930    0.1995732600    0.0040237852    
0.0066172539    0.1833356000    0.0036213666    
0.0068399149    0.1606287900    0.0033363121    
0.0070625759    0.1428239100    0.0031137091    
0.0072852369    0.1277796400    0.0029010873    
0.0075078979    0.1194179300    0.0027907785    
0.0077305589    0.1032384500    0.0025454145    
0.0079532199    0.1024110800    0.0025000630    
0.0081758809    0.0909582480    0.0023780442    
0.0083985419    0.0807488420    0.0020898081    
0.0086212029    0.0761516320    0.0020294478    
0.0088438639    0.0690790600    0.0019173839    
0.0090665249    0.0634465290    0.0017747715    
0.0092891859    0.0594934910    0.0017937962    
0.0095118469    0.0592718740    0.0017218269    
0.0097345079    0.0576074400    0.0016486207    
0.0099571689    0.0527671110    0.0015453044    
0.0101798300    0.0511832020    0.0015219352    
0.0104024910    0.0491742640    0.0014867201    
0.0106251520    0.0482416560    0.0014775548    
0.0108478130    0.0443354420    0.0013794339    
0.0110704740    0.0429103350    0.0012920346    
0.0112931350    0.0428105690    0.0012943220    
0.0115157960    0.0391412550    0.0012303948    
0.0117384570    0.0380521150    0.0012027123    
0.0119611180    0.0373149990    0.0011944240    
0.0121837790    0.0356276750    0.0011474901    
0.0124064400    0.0351291240    0.0010919359    
0.0126291010    0.0337919170    0.0010575477    
0.0128517620    0.0353246420    0.0010839656    
0.0130744230    0.0325086540    0.0010321508    
0.0132970840    0.0306663010    0.0009975749    
0.0135197450    0.0322850190    0.0010089069    
0.0137424060    0.0310551310    0.0009757277    
0.0139650670    0.0314454360    0.0009599702    
0.0141877280    0.0294063360    0.0009303753    
0.0144103890    0.0303626290    0.0009290814    
0.0146330500    0.0280415000    0.0008871938    
0.0148557110    0.0286140560    0.0008924479    
0.0150783720    0.0291559810    0.0008934142    
0.0153010330    0.0273018320    0.0008523503    
0.0155236940    0.0270306910    0.0008430641    
0.0157463550    0.0272701590    0.0008321192    
0.0159690160    0.0254760460    0.0008012286    
0.0161916770    0.0274571380    0.0008271123    
0.0164143380    0.0268376620    0.0008239237    
0.0166369990    0.0263724290    0.0007915687    
0.0168596600    0.0257230250    0.0007748743    
0.0170823210    0.0250501360    0.0007580516    
0.0173049820    0.0243771930    0.0007490930    
0.0175276430    0.0247529890    0.0007628049    
0.0177503040    0.0239311940    0.0007309152    
0.0179729650    0.0245968050    0.0007336612    
0.0181956260    0.0249890510    0.0007253112    
0.0184182870    0.0238573170    0.0007053564    
0.0186409480    0.0244559430    0.0007186710    
0.0188636090    0.0225643660    0.0006859769    
0.0190862700    0.0241777800    0.0007089679    
0.0193089310    0.0234392880    0.0006969684    
0.0195315920    0.0234579120    0.0006735331    
0.0197542530    0.0229832460    0.0006676551    
0.0199769140    0.0229056740    0.0006665276    
0.0201995750    0.0225321880    0.0006507194    
0.0204222360    0.0211237320    0.0006354619    
0.0206448970    0.0213899080    0.0006349083    
0.0208675580    0.0209157510    0.0006149032    
0.0210902190    0.0225007270    0.0006439301    
0.0213128800    0.0224142570    0.0006339709    
0.0215355410    0.0227937510    0.0006316992    
0.0217582020    0.0222510520    0.0006241339    
0.0219808630    0.0218259820    0.0006173320    
0.0222035240    0.0230439260    0.0006285746    
0.0224261850    0.0230229260    0.0006226963    
0.0226488460    0.0204719900    0.0005827771    
0.0228715070    0.0214268880    0.0005947326    
0.0230941680    0.0212453130    0.0005922074    
0.0233168290    0.0210526640    0.0005909847    
0.0235394900    0.0219697330    0.0005970565    
0.0237621510    0.0222623320    0.0005848392    
0.0239848120    0.0218518900    0.0005800932    
0.0242074730    0.0217459270    0.0005740530    
0.0244301340    0.0204438030    0.0005572360    
0.0246527950    0.0216596030    0.0005788772    
0.0248754560    0.0208152310    0.0005547278    
0.0250981170    0.0209675640    0.0005579954    
0.0253207780    0.0203770850    0.0005336583    
0.0255434390    0.0211427190    0.0005493932    
0.0257661000    0.0207768250    0.0005463803    
0.0259887610    0.0205907430    0.0005381477    
0.0262114220    0.0209102440    0.0005451961    
0.0264340830    0.0209951600    0.0005388691    
0.0266567440    0.0221571850    0.0005501602    
0.0268794050    0.0214753710    0.0005394187    
0.0271020660    0.0204820240    0.0005246629    
0.0273247270    0.0207413310    0.0005248028    
0.0275473880    0.0203811260    0.0005191906    
0.0277700490    0.0201278170    0.0005129043    
0.0279927100    0.0208954510    0.0005180336    
0.0282153710    0.0210861530    0.0005229222    
0.0284380320    0.0199707550    0.0005059537    
0.0286606930    0.0203863370    0.0005068156    
0.0288833540    0.0196417670    0.0004984193    
0.0291060150    0.0205260310    0.0005090316    
0.0293286760    0.0202280120    0.0004982813    
0.0295513370    0.0200540560    0.0004907315    
0.0297739980    0.0204857940    0.0005014465    
0.0299966590    0.0196615450    0.0004828646    
0.0302193200    0.0198481590    0.0004922208    
0.0304419810    0.0203500850    0.0004993228    
0.0306646420    0.0201200200    0.0004824792    
0.0308873030    0.0197171800    0.0004755617    
0.0311099640    0.0202578380    0.0004832893    
0.0313326250    0.0201835900    0.0004770588    
0.0315552860    0.0208373990    0.0004910058    
0.0317779470    0.0204680600    0.0004870587    
0.0320006080    0.0199138310    0.0004695039    
0.0322232690    0.0201143910    0.0004738376    
0.0324459300    0.0205519270    0.0004753877    
0.0326685910    0.0206486220    0.0004757191    
0.0328912520    0.0211496860    0.0004830509    
0.0331139130    0.0195390120    0.0004582534    
0.0333365740    0.0196336550    0.0004608534    
0.0335592350    0.0194170590    0.0004538976    
0.0337818960    0.0197781120    0.0004577335    
0.0340045570    0.0202538910    0.0004624706    
0.0342272170    0.0194553410    0.0004514742    
0.0344498780    0.0200955170    0.0004606592    
0.0346725390    0.0200599740    0.0004517279    
0.0348952000    0.0201800210    0.0004510135    
0.0351178610    0.0203753440    0.0004552652    
0.0353405220    0.0201901260    0.0004511267    
0.0355631830    0.0195081130    0.0004417718    
0.0357858440    0.0201984130    0.0004495201    
0.0360085050    0.0200891670    0.0004496573    
0.0362311660    0.0195947450    0.0004388105    
0.0364538270    0.0201033970    0.0004409021    
0.0366764880    0.0199100850    0.0004384588    
0.0368991490    0.0199870530    0.0004370909    
0.0371218100    0.0196827750    0.0004325101    
0.0373444710    0.0203663120    0.0004447472    
0.0375671320    0.0205588150    0.0004461933    
0.0377897930    0.0198757290    0.0004273609    
0.0380124540    0.0192978140    0.0004237442    
0.0382351150    0.0192140860    0.0004228241    
0.0384577760    0.0189363630    0.0004157072    
0.0386804370    0.0202179260    0.0004328219    
0.0389030980    0.0190185230    0.0004166083    
0.0391257590    0.0193373400    0.0004172339    
0.0393484200    0.0206112910    0.0004293087    
0.0395710810    0.0194116080    0.0004171887    
0.0397937420    0.0191785030    0.0004146764    
0.0400164030    0.0193529410    0.0004182526    
0.0402390640    0.0200289830    0.0004198293    
0.0404617250    0.0201064380    0.0004181588    
0.0406843860    0.0196003790    0.0004088740    
0.0409070470    0.0206030140    0.0004235682    
0.0411297080    0.0194547630    0.0004076140    
0.0413523690    0.0192719050    0.0004067396    
0.0415750300    0.0198626300    0.0004164339    
0.0417976910    0.0190556130    0.0003973370    
0.0420203520    0.0194995900    0.0004034494    
0.0422430130    0.0188569050    0.0003982471    
0.0424656740    0.0194835210    0.0003995411    
0.0426883350    0.0199752930    0.0004065599    
0.0429109960    0.0204250460    0.0004123958    
0.0431336570    0.0196350310    0.0003986449    
0.0433563180    0.0192012770    0.0003976178    
0.0435789790    0.0203177760    0.0004025888    
0.0438016400    0.0194427130    0.0003959663    
0.0440243010    0.0200220470    0.0003977454    
0.0442469620    0.0196549910    0.0003964441    
0.0444696230    0.0196889380    0.0003953634    
0.0446922840    0.0196984470    0.0003942845    
0.0449149450    0.0198820750    0.0003908225    
0.0451376060    0.0198880550    0.0003957087    
0.0453602670    0.0199512220    0.0003921817    
0.0455829280    0.0196128380    0.0003883921    
0.0458055890    0.0193909300    0.0003884406    
0.0460282500    0.0199058160    0.0003888181    
0.0462509110    0.0200790050    0.0003880771    
0.0464735720    0.0199364850    0.0003869157    
0.0466962330    0.0194134520    0.0003835422    
0.0469188940    0.0200117870    0.0003883040    
0.0471415550    0.0200580200    0.0003907489    
0.0473642160    0.0192042300    0.0003769886    
0.0475868770    0.0191677660    0.0003747595    
0.0478095380    0.0196976400    0.0003782416    
0.0480321990    0.0199883100    0.0003818570    
0.0482548600    0.0194746310    0.0003752762    
0.0484775210    0.0204681000    0.0003885492    
0.0487001820    0.0193790970    0.0003725372    
0.0489228430    0.0196372760    0.0003748090    
0.0491455040    0.0197052280    0.0003728602    
0.0493681650    0.0194281350    0.0003734109    
0.0495908260    0.0198343750    0.0003709466    
0.0498134870    0.0197330210    0.0003735198    
0.0500361480    0.0201210420    0.0003761764    
0.0502588090    0.0204779050    0.0003738114    
0.0504814700    0.0197912430    0.0003722948    
0.0507041310    0.0200413920    0.0003701860    
0.0509267920    0.0198214690    0.0003696723    
0.0511494530    0.0195376030    0.0003645684    
0.0513721140    0.0198763160    0.0003709533    
0.0515947750    0.0193392610    0.0003610560    
0.0518174360    0.0200659870    0.0003655619    
0.0520400970    0.0199528810    0.0003620026    
0.0522627580    0.0197590720    0.0003633017    
0.0524854190    0.0201835210    0.0003701685    
0.0527080800    0.0198009320    0.0003694821    
0.0529307410    0.0192287870    0.0003658150    
0.0531534020    0.0199249980    0.0003710229    
0.0533760630    0.0193755820    0.0003670171    
0.0535987240    0.0197391850    0.0003687153    
0.0538213850    0.0195085350    0.0003708016    
0.0540440460    0.0193243180    0.0003673002    
0.0542667070    0.0197826900    0.0003741920    
0.0544893680    0.0191802590    0.0003686467    
0.0547120290    0.0199596760    0.0003734860    
0.0549346900    0.0195609210    0.0003699310    
0.0551573510    0.0196589220    0.0003752222    
0.0553800120    0.0193331320    0.0003689368    
0.0556026730    0.0192188740    0.0003754718    
0.0558253340    0.0193630690    0.0003800335    
0.0560479950    0.0198329940    0.0003846176    
0.0562706560    0.0194199480    0.0003842710    
0.0564933170    0.0194028150    0.0003874369    
0.0567159780    0.0193481440    0.0003822520    
0.0569386390    0.0196794070    0.0003915573    
0.0571613000    0.0196093280    0.0003824436    
0.0573839610    0.0199525790    0.0003825732    
0.0576066220    0.0198492920    0.0003826381    
0.0578292830    0.0199526280    0.0003823634    
0.0580519440    0.0187415530    0.0003720144    
0.0582746050    0.0190963080    0.0003738629    
0.0584972660    0.0199309630    0.0003804839    
0.0587199270    0.0194032120    0.0003721765    
0.0589425880    0.0191345630    0.0003674292    
0.0591652490    0.0198529980    0.0003764659    
0.0593879100    0.0198546030    0.0003736851    
0.0596105710    0.0197214990    0.0003720375    
0.0598332320    0.0199173100    0.0003770757    
0.0600558930    0.0196993850    0.0003726162    
0.0602785540    0.0202133800    0.0003770471    
0.0605012150    0.0188746520    0.0003635796    
0.0607238760    0.0198290930    0.0003699432    
0.0609465370    0.0191960540    0.0003668557    
0.0611691980    0.0192921160    0.0003683553    
0.0613918590    0.0195543440    0.0003668016    
0.0616145200    0.0194436790    0.0003684392    
0.0618371810    0.0195427850    0.0003657492    
0.0620598420    0.0195350870    0.0003660542    
0.0622825030    0.0193805900    0.0003701796    
0.0625051640    0.0196304790    0.0003673261    
0.0627278250    0.0190089510    0.0003607200    
0.0629504860    0.0193476270    0.0003609607    
0.0631731470    0.0195394510    0.0003672336    
0.0633958080    0.0188364490    0.0003626420    
0.0636184690    0.0194078510    0.0003732279    
0.0638411300    0.0198180640    0.0003757359    
0.0640637910    0.0195776760    0.0003760768    
0.0642864520    0.0201979520    0.0003811613    
0.0645091130    0.0203412260    0.0003858627    
0.0647317740    0.0191610300    0.0003749145    
0.0649544350    0.0190749760    0.0003736602    
0.0651770960    0.0195045550    0.0003757831    
0.0653997570    0.0200688270    0.0003803535    
0.0656224180    0.0190701990    0.0003715757    
0.0658450790    0.0193207060    0.0003686325    
0.0660677400    0.0192585230    0.0003696052    
0.0662904010    0.0191617780    0.0003730770    
0.0665130620    0.0195143610    0.0003748605    
0.0667357230    0.0198862470    0.0003851437    
0.0669583840    0.0194496150    0.0003796176    
0.0671810450    0.0198289860    0.0003811857    
0.0674037060    0.0197184080    0.0003865612    
0.0676263670    0.0194157980    0.0003807751    
0.0678490280    0.0200347230    0.0003844311    
0.0680716890    0.0198868880    0.0003838624    
0.0682943500    0.0193739170    0.0003747296    
0.0685170110    0.0198971210    0.0003758860    
0.0687396720    0.0193253520    0.0003694617    
0.0689623330    0.0194978470    0.0003699308    
0.0691849940    0.0197120350    0.0003745343    
0.0694076550    0.0193213480    0.0003706062    
0.0696303160    0.0198072280    0.0003722663    
0.0698529770    0.0193480590    0.0003671550    
0.0700756380    0.0192822500    0.0003618250    
0.0702982990    0.0185388940    0.0003586457    
0.0705209600    0.0195783030    0.0003659016    
0.0707436210    0.0191685180    0.0003603894    
0.0709662820    0.0193507380    0.0003664150    
0.0711889430    0.0196634980    0.0003648276    
0.0714116040    0.0199341670    0.0003680799    
0.0716342650    0.0194557710    0.0003621598    
0.0718569260    0.0193394910    0.0003596217    
0.0720795870    0.0196310980    0.0003637885    
0.0723022480    0.0189065810    0.0003575563    
0.0725249090    0.0194994090    0.0003587701    
0.0727475700    0.0194512220    0.0003613871    
0.0729702310    0.0195848990    0.0003597346    
0.0731928920    0.0193421300    0.0003589269    
0.0734155530    0.0196497880    0.0003610483    
0.0736382140    0.0193263490    0.0003557666    
0.0738608750    0.0195370610    0.0003600117    
0.0740835360    0.0198560450    0.0003620377    
0.0743061970    0.0192687080    0.0003516211    
0.0745288580    0.0192937050    0.0003554670    
0.0747515190    0.0198236660    0.0003610275    
0.0749741800    0.0198391450    0.0003578253    
0.0751968410    0.0189850100    0.0003527862    
0.0754195020    0.0194240630    0.0003547515    
0.0756421630    0.0191842790    0.0003496731    
0.0758648240    0.0195135820    0.0003535092    
0.0760874850    0.0196931840    0.0003549618    
0.0763101460    0.0191509360    0.0003497049    
0.0765328070    0.0189713530    0.0003516229    
0.0767554680    0.0193576590    0.0003527747    
0.0769781290    0.0192565710    0.0003498305    
0.0772007900    0.0200746050    0.0003543190    
0.0774234510    0.0194307550    0.0003505735    
0.0776461120    0.0197158810    0.0003528013    
0.0778687730    0.0192534430    0.0003474875    
0.0780914340    0.0199239790    0.0003560125    
0.0783140950    0.0194446380    0.0003461237    
0.0785367560    0.0200258180    0.0003569217    
0.0787594170    0.0197747920    0.0003514998    
0.0789820780    0.0193562180    0.0003459779    
0.0792047390    0.0195576890    0.0003489108    
0.0794274000    0.0189077020    0.0003445175    
0.0796500610    0.0196237900    0.0003475551    
0.0798727220    0.0193725330    0.0003450042    
0.0800953830    0.0197483430    0.0003475335    
0.0803180440    0.0197205730    0.0003497083    
0.0805407050    0.0198696090    0.0003507008    
0.0807633660    0.0194311410    0.0003464878    
0.0809860270    0.0186010150    0.0003377539    
0.0812086880    0.0196611760    0.0003442449    
0.0814313490    0.0198348410    0.0003473388    
0.0816540100    0.0197809570    0.0003460770    
0.0818766710    0.0195246930    0.0003446130    
0.0820993320    0.0198535740    0.0003468700    
0.0823219930    0.0192966540    0.0003433807    
0.0825446540    0.0198121680    0.0003454093    
0.0827673150    0.0198320380    0.0003432608    
0.0829899760    0.0196667680    0.0003412190    
0.0832126370    0.0198015260    0.0003439196    
0.0834352980    0.0188567620    0.0003348644    
0.0836579590    0.0194122880    0.0003390049    
0.0838806200    0.0191288730    0.0003375742    
0.0841032810    0.0194275200    0.0003380873    
0.0843259420    0.0197173640    0.0003395511    
0.0845486030    0.0196998510    0.0003394005    
0.0847712640    0.0197723950    0.0003379526    
0.0849939250    0.0190298120    0.0003321231    
0.0852165860    0.0194748940    0.0003364247    
0.0854392470    0.0194214040    0.0003327808    
0.0856619080    0.0197316780    0.0003378989    
0.0858845690    0.0199290690    0.0003365264    
0.0861072300    0.0195714220    0.0003357953    
0.0863298910    0.0193402850    0.0003355545    
0.0865525520    0.0193109750    0.0003324048    
0.0867752130    0.0195748310    0.0003319676    
0.0869978740    0.0193012690    0.0003304799    
0.0872205350    0.0197714480    0.0003340553    
0.0874431960    0.0191562670    0.0003288175    
0.0876658570    0.0193320900    0.0003315914    
0.0878885180    0.0191473270    0.0003305688    
0.0881111790    0.0193486870    0.0003318761    
0.0883338400    0.0192836850    0.0003264672    
0.0885565010    0.0192140520    0.0003302964    
0.0887791620    0.0196095450    0.0003293513    
0.0890018230    0.0194109350    0.0003308575    
0.0892244840    0.0199919240    0.0003363433    
0.0894471450    0.0202105430    0.0003367489    
0.0896698060    0.0197131040    0.0003313244    
0.0898924670    0.0189014670    0.0003259358    
0.0901151280    0.0193202980    0.0003259678    
0.0903377890    0.0193318830    0.0003287944    
0.0905604500    0.0190440350    0.0003248398    
0.0907831110    0.0197543470    0.0003300193    
0.0910057720    0.0192127370    0.0003269572    
0.0912284330    0.0192125010    0.0003222739    
0.0914510940    0.0192177900    0.0003259126    
0.0916737550    0.0192655200    0.0003255072    
0.0918964160    0.0195259170    0.0003290625    
0.0921190770    0.0197407740    0.0003278764    
0.0923417380    0.0196261690    0.0003270574    
0.0925643990    0.0190529570    0.0003214573    
0.0927870600    0.0193134400    0.0003249745    
0.0930097210    0.0200071840    0.0003279425    
0.0932323820    0.0193532870    0.0003249099    
