# Diamond Light Source Ltd.
# Data extracted from: /dls/b21/data/2018/cm19678-3/processed/b21-386631_00595.dat
q(1/A)          Column          Error           
0.0035000000    2.0929845000    0.0246080250    
0.0037226610    1.8815596000    0.0228407860    
0.0039453220    1.6358595000    0.0193745530    
0.0041679830    1.2903540000    0.0141311630    
0.0043906440    0.9857155700    0.0118136640    
0.0046133050    0.7801423800    0.0100892670    
0.0048359660    0.5963367400    0.0083438429    
0.0050586270    0.4592734300    0.0071972641    
0.0052812880    0.4219559600    0.0065225797    
0.0055039490    0.3928891700    0.0059845489    
0.0057266100    0.3175392800    0.0052048626    
0.0059492710    0.2704459000    0.0048034223    
0.0061719320    0.2187272600    0.0041626481    
0.0063945930    0.1989048100    0.0040176642    
0.0066172539    0.1811743200    0.0036005163    
0.0068399149    0.1680956400    0.0034135052    
0.0070625759    0.1478251500    0.0031682477    
0.0072852369    0.1254473900    0.0028749357    
0.0075078979    0.1148229200    0.0027369840    
0.0077305589    0.0971181960    0.0024691953    
0.0079532199    0.1001229300    0.0024723596    
0.0081758809    0.0920437310    0.0023925629    
0.0083985419    0.0862381730    0.0021600082    
0.0086212029    0.0744440060    0.0020068759    
0.0088438639    0.0750097050    0.0019983059    
0.0090665249    0.0643601060    0.0017877807    
0.0092891859    0.0642188060    0.0018639612    
0.0095118469    0.0614417270    0.0017533323    
0.0097345079    0.0542272620    0.0015997704    
0.0099571689    0.0525118710    0.0015418016    
0.0101798300    0.0482566080    0.0014780128    
0.0104024910    0.0457723340    0.0014345945    
0.0106251520    0.0487093140    0.0014849296    
0.0108478130    0.0444350640    0.0013811970    
0.0110704740    0.0429625650    0.0012930213    
0.0112931350    0.0416103790    0.0012762479    
0.0115157960    0.0390373330    0.0012289510    
0.0117384570    0.0390906220    0.0012192030    
0.0119611180    0.0373265770    0.0011947946    
0.0121837790    0.0364520620    0.0011608701    
0.0124064400    0.0368715620    0.0011188623    
0.0126291010    0.0349942600    0.0010763644    
0.0128517620    0.0338050590    0.0010605590    
0.0130744230    0.0332727040    0.0010443716    
0.0132970840    0.0331753280    0.0010377429    
0.0135197450    0.0303081360    0.0009776818    
0.0137424060    0.0313714280    0.0009808362    
0.0139650670    0.0301360100    0.0009399163    
0.0141877280    0.0300926940    0.0009413164    
0.0144103890    0.0292913970    0.0009126862    
0.0146330500    0.0281063570    0.0008883570    
0.0148557110    0.0276484180    0.0008773960    
0.0150783720    0.0284256330    0.0008822902    
0.0153010330    0.0276829590    0.0008584121    
0.0155236940    0.0275388280    0.0008510834    
0.0157463550    0.0279389970    0.0008423925    
0.0159690160    0.0269207320    0.0008237610    
0.0161916770    0.0261447140    0.0008072279    
0.0164143380    0.0255049560    0.0008033306    
0.0166369990    0.0259528180    0.0007853680    
0.0168596600    0.0254508140    0.0007708829    
0.0170823210    0.0249431750    0.0007565488    
0.0173049820    0.0238781800    0.0007415012    
0.0175276430    0.0252074430    0.0007698948    
0.0177503040    0.0242289200    0.0007355618    
0.0179729650    0.0238163950    0.0007220405    
0.0181956260    0.0238596290    0.0007088408    
0.0184182870    0.0236978340    0.0007031039    
0.0186409480    0.0241888980    0.0007148474    
0.0188636090    0.0233014940    0.0006971997    
0.0190862700    0.0251210850    0.0007227780    
0.0193089310    0.0228039050    0.0006875636    
0.0195315920    0.0230782960    0.0006681647    
0.0197542530    0.0221173260    0.0006550587    
0.0199769140    0.0227769730    0.0006647555    
0.0201995750    0.0228775500    0.0006557891    
0.0204222360    0.0222393870    0.0006521282    
0.0206448970    0.0221129050    0.0006456495    
0.0208675580    0.0224773950    0.0006375444    
0.0210902190    0.0225630100    0.0006449207    
0.0213128800    0.0214346790    0.0006200590    
0.0215355410    0.0220127770    0.0006208793    
0.0217582020    0.0216625420    0.0006159204    
0.0219808630    0.0213611670    0.0006108179    
0.0222035240    0.0215760820    0.0006083202    
0.0224261850    0.0222382530    0.0006120878    
0.0226488460    0.0208434340    0.0005881315    
0.0228715070    0.0202611320    0.0005784175    
0.0230941680    0.0209877010    0.0005886974    
0.0233168290    0.0205613430    0.0005841385    
0.0235394900    0.0215707800    0.0005917024    
0.0237621510    0.0203174150    0.0005587953    
0.0239848120    0.0212887120    0.0005726580    
0.0242074730    0.0219042610    0.0005762284    
0.0244301340    0.0209211370    0.0005637912    
0.0246527950    0.0215270400    0.0005771926    
0.0248754560    0.0208660540    0.0005554907    
0.0250981170    0.0219247360    0.0005706781    
0.0253207780    0.0205651530    0.0005361985    
0.0255434390    0.0200782490    0.0005354676    
0.0257661000    0.0201652360    0.0005383621    
0.0259887610    0.0209488590    0.0005428915    
0.0262114220    0.0219263090    0.0005583716    
0.0264340830    0.0205866220    0.0005336833    
0.0266567440    0.0208659180    0.0005339714    
0.0268794050    0.0213736080    0.0005382227    
0.0271020660    0.0211471270    0.0005331962    
0.0273247270    0.0209735750    0.0005278146    
0.0275473880    0.0204403710    0.0005200254    
0.0277700490    0.0217421730    0.0005331591    
0.0279927100    0.0206193030    0.0005146790    
0.0282153710    0.0208721690    0.0005203428    
0.0284380320    0.0205154840    0.0005128871    
0.0286606930    0.0195608240    0.0004965252    
0.0288833540    0.0204069540    0.0005081138    
0.0291060150    0.0209238540    0.0005140205    
0.0293286760    0.0209341400    0.0005069825    
0.0295513370    0.0205888130    0.0004973085    
0.0297739980    0.0200624170    0.0004963148    
0.0299966590    0.0206166270    0.0004945301    
0.0302193200    0.0209044240    0.0005052267    
0.0304419810    0.0200622680    0.0004958561    
0.0306646420    0.0207975240    0.0004906114    
0.0308873030    0.0198380350    0.0004770909    
0.0311099640    0.0202295240    0.0004830264    
0.0313326250    0.0205846260    0.0004818497    
0.0315552860    0.0195823530    0.0004760633    
0.0317779470    0.0198019790    0.0004791425    
0.0320006080    0.0201746850    0.0004726423    
0.0322232690    0.0200201410    0.0004727995    
0.0324459300    0.0206243020    0.0004762979    
0.0326685910    0.0196135070    0.0004637139    
0.0328912520    0.0197436250    0.0004667902    
0.0331139130    0.0199106050    0.0004626621    
0.0333365740    0.0201699660    0.0004671778    
0.0335592350    0.0197521080    0.0004578680    
0.0337818960    0.0200915560    0.0004614179    
0.0340045570    0.0200066590    0.0004597107    
0.0342272170    0.0194928180    0.0004519789    
0.0344498780    0.0194679610    0.0004534796    
0.0346725390    0.0201374270    0.0004526694    
0.0348952000    0.0192888910    0.0004410114    
0.0351178610    0.0198118340    0.0004489952    
0.0353405220    0.0198636500    0.0004475339    
0.0355631830    0.0202046670    0.0004496593    
0.0357858440    0.0208351380    0.0004566211    
0.0360085050    0.0204477740    0.0004537233    
0.0362311660    0.0200726600    0.0004441985    
0.0364538270    0.0194228700    0.0004334426    
0.0366764880    0.0196844540    0.0004360349    
0.0368991490    0.0201175550    0.0004385836    
0.0371218100    0.0199931040    0.0004359740    
0.0373444710    0.0205086440    0.0004463678    
0.0375671320    0.0200711650    0.0004409382    
0.0377897930    0.0198543210    0.0004271970    
0.0380124540    0.0204951650    0.0004367599    
0.0382351150    0.0204300260    0.0004360654    
0.0384577760    0.0199007620    0.0004262275    
0.0386804370    0.0202056620    0.0004327577    
0.0389030980    0.0198825320    0.0004260325    
0.0391257590    0.0198206200    0.0004224810    
0.0393484200    0.0192491370    0.0004149446    
0.0395710810    0.0205656480    0.0004294774    
0.0397937420    0.0192562050    0.0004155800    
0.0400164030    0.0199918870    0.0004251669    
0.0402390640    0.0195246340    0.0004145741    
0.0404617250    0.0201735710    0.0004189213    
0.0406843860    0.0196661850    0.0004096233    
0.0409070470    0.0198864230    0.0004162016    
0.0411297080    0.0199477470    0.0004128102    
0.0413523690    0.0201108270    0.0004155626    
0.0415750300    0.0198338590    0.0004161967    
0.0417976910    0.0197991240    0.0004050773    
0.0420203520    0.0199732420    0.0004083833    
0.0422430130    0.0201752410    0.0004119971    
0.0424656740    0.0188830790    0.0003933975    
0.0426883350    0.0193027500    0.0003997191    
0.0429109960    0.0207229040    0.0004154564    
0.0431336570    0.0194630090    0.0003969564    
0.0433563180    0.0207227290    0.0004131347    
0.0435789790    0.0196059150    0.0003955347    
0.0438016400    0.0198440140    0.0004000939    
0.0440243010    0.0192220710    0.0003897790    
0.0442469620    0.0192611490    0.0003925129    
0.0444696230    0.0194329770    0.0003928460    
0.0446922840    0.0196098260    0.0003934576    
0.0449149450    0.0201111030    0.0003931281    
0.0451376060    0.0196658280    0.0003935528    
0.0453602670    0.0198494510    0.0003912409    
0.0455829280    0.0198882030    0.0003911698    
0.0458055890    0.0195759720    0.0003903501    
0.0460282500    0.0194941520    0.0003848363    
0.0462509110    0.0198001260    0.0003854324    
0.0464735720    0.0197699100    0.0003853557    
0.0466962330    0.0196165510    0.0003856031    
0.0469188940    0.0198898700    0.0003871794    
0.0471415550    0.0192875630    0.0003832302    
0.0473642160    0.0198616330    0.0003834464    
0.0475868770    0.0194302420    0.0003773752    
0.0478095380    0.0196528940    0.0003778704    
0.0480321990    0.0195931630    0.0003781224    
0.0482548600    0.0198713000    0.0003791377    
0.0484775210    0.0201129210    0.0003852230    
0.0487001820    0.0194495840    0.0003732720    
0.0489228430    0.0200584200    0.0003788656    
0.0491455040    0.0201983040    0.0003775549    
0.0493681650    0.0200228600    0.0003791420    
0.0495908260    0.0193131150    0.0003660966    
0.0498134870    0.0197320720    0.0003735688    
0.0500361480    0.0205282840    0.0003800231    
0.0502588090    0.0195354710    0.0003651649    
0.0504814700    0.0197203250    0.0003716849    
0.0507041310    0.0193841460    0.0003641218    
0.0509267920    0.0198896890    0.0003703654    
0.0511494530    0.0197342030    0.0003664549    
0.0513721140    0.0189614210    0.0003623716    
0.0515947750    0.0196352050    0.0003638646    
0.0518174360    0.0192528040    0.0003581336    
0.0520400970    0.0199262230    0.0003618169    
0.0522627580    0.0194110590    0.0003601440    
0.0524854190    0.0197823210    0.0003665279    
0.0527080800    0.0197450060    0.0003690172    
0.0529307410    0.0193670240    0.0003671845    
0.0531534020    0.0198966260    0.0003708161    
0.0533760630    0.0192981430    0.0003663397    
0.0535987240    0.0196075190    0.0003675405    
0.0538213850    0.0189576330    0.0003655853    
0.0540440460    0.0194350660    0.0003684083    
0.0542667070    0.0196826280    0.0003733023    
0.0544893680    0.0195122420    0.0003718811    
0.0547120290    0.0194485460    0.0003687301    
0.0549346900    0.0197699390    0.0003719599    
0.0551573510    0.0203885810    0.0003821814    
0.0553800120    0.0198814160    0.0003741897    
0.0556026730    0.0191441220    0.0003747990    
0.0558253340    0.0191825490    0.0003783165    
0.0560479950    0.0194138630    0.0003805908    
0.0562706560    0.0194487920    0.0003846159    
0.0564933170    0.0201981900    0.0003953595    
0.0567159780    0.0192106160    0.0003809501    
0.0569386390    0.0192179240    0.0003869991    
0.0571613000    0.0191080530    0.0003775823    
0.0573839610    0.0196285700    0.0003795131    
0.0576066220    0.0195455560    0.0003797581    
0.0578292830    0.0195263660    0.0003783157    
0.0580519440    0.0200326490    0.0003846746    
0.0582746050    0.0197245750    0.0003800221    
0.0584972660    0.0191815120    0.0003733197    
0.0587199270    0.0200162180    0.0003780685    
0.0589425880    0.0200227140    0.0003759181    
0.0591652490    0.0203518880    0.0003812258    
0.0593879100    0.0196919160    0.0003722087    
0.0596105710    0.0188009120    0.0003633069    
0.0598332320    0.0196521310    0.0003746152    
0.0600558930    0.0192965820    0.0003688442    
0.0602785540    0.0193472670    0.0003689379    
0.0605012150    0.0200784920    0.0003750533    
0.0607238760    0.0190136670    0.0003623130    
0.0609465370    0.0192721420    0.0003676390    
0.0611691980    0.0198961110    0.0003741351    
0.0613918590    0.0197806560    0.0003689753    
0.0616145200    0.0193100370    0.0003672278    
0.0618371810    0.0194666830    0.0003650930    
0.0620598420    0.0194313670    0.0003651377    
0.0622825030    0.0195280600    0.0003716429    
0.0625051640    0.0198428370    0.0003693649    
0.0627278250    0.0192818920    0.0003633568    
0.0629504860    0.0191448020    0.0003591194    
0.0631731470    0.0194350480    0.0003663080    
0.0633958080    0.0193311610    0.0003674302    
0.0636184690    0.0196723420    0.0003758208    
0.0638411300    0.0193040240    0.0003708885    
0.0640637910    0.0192874650    0.0003733369    
0.0642864520    0.0192328630    0.0003720013    
0.0645091130    0.0199594780    0.0003822841    
0.0647317740    0.0200035130    0.0003831275    
0.0649544350    0.0190149970    0.0003731301    
0.0651770960    0.0193730050    0.0003745718    
0.0653997570    0.0200894760    0.0003806081    
0.0656224180    0.0197786160    0.0003784731    
0.0658450790    0.0194463060    0.0003698862    
0.0660677400    0.0195128440    0.0003720953    
0.0662904010    0.0196690790    0.0003780419    
0.0665130620    0.0195780410    0.0003755299    
0.0667357230    0.0199297240    0.0003856243    
0.0669583840    0.0194778850    0.0003799523    
0.0671810450    0.0194539760    0.0003776225    
0.0674037060    0.0191559870    0.0003810675    
0.0676263670    0.0197953190    0.0003845383    
0.0678490280    0.0194432540    0.0003787727    
0.0680716890    0.0201895270    0.0003868322    
0.0682943500    0.0188796620    0.0003699761    
0.0685170110    0.0193137250    0.0003703919    
0.0687396720    0.0199177900    0.0003751402    
0.0689623330    0.0188439380    0.0003637311    
0.0691849940    0.0192340960    0.0003700233    
0.0694076550    0.0197255520    0.0003745208    
0.0696303160    0.0195614210    0.0003700066    
0.0698529770    0.0197861660    0.0003713462    
0.0700756380    0.0196413970    0.0003652357    
0.0702982990    0.0193427880    0.0003663959    
0.0705209600    0.0199811270    0.0003697040    
0.0707436210    0.0194388010    0.0003629777    
0.0709662820    0.0196065960    0.0003688867    
0.0711889430    0.0195477230    0.0003638084    
0.0714116040    0.0194100600    0.0003632652    
0.0716342650    0.0200484940    0.0003676921    
0.0718569260    0.0194123840    0.0003603547    
0.0720795870    0.0201092370    0.0003682492    
0.0723022480    0.0188718630    0.0003572833    
0.0725249090    0.0200799270    0.0003641279    
0.0727475700    0.0196117340    0.0003629314    
0.0729702310    0.0192208370    0.0003564307    
0.0731928920    0.0199877400    0.0003649245    
0.0734155530    0.0191980000    0.0003569289    
0.0736382140    0.0192471810    0.0003550923    
0.0738608750    0.0193573150    0.0003584073    
0.0740835360    0.0200801090    0.0003641312    
0.0743061970    0.0197881650    0.0003563845    
0.0745288580    0.0187887020    0.0003508385    
0.0747515190    0.0201126310    0.0003637057    
0.0749741800    0.0193159200    0.0003531300    
0.0751968410    0.0201647170    0.0003636383    
0.0754195020    0.0189699380    0.0003506344    
0.0756421630    0.0200572990    0.0003575964    
0.0758648240    0.0192441710    0.0003511149    
0.0760874850    0.0199552960    0.0003573717    
0.0763101460    0.0196423480    0.0003542182    
0.0765328070    0.0200528990    0.0003615630    
0.0767554680    0.0190421160    0.0003499419    
0.0769781290    0.0195231950    0.0003522987    
0.0772007900    0.0192550800    0.0003470652    
0.0774234510    0.0192469720    0.0003489658    
0.0776461120    0.0193683540    0.0003497324    
0.0778687730    0.0199369470    0.0003536566    
0.0780914340    0.0196247180    0.0003533835    
0.0783140950    0.0195307910    0.0003469435    
0.0785367560    0.0198920370    0.0003557827    
0.0787594170    0.0197871780    0.0003516644    
0.0789820780    0.0196158510    0.0003483446    
0.0792047390    0.0197692330    0.0003508471    
0.0794274000    0.0192212600    0.0003474163    
0.0796500610    0.0197407130    0.0003486431    
0.0798727220    0.0193293760    0.0003446732    
0.0800953830    0.0201276580    0.0003509096    
0.0803180440    0.0191683890    0.0003448311    
0.0805407050    0.0192751670    0.0003454686    
0.0807633660    0.0199439580    0.0003510847    
0.0809860270    0.0197785300    0.0003483345    
0.0812086880    0.0200109410    0.0003473473    
0.0814313490    0.0196523810    0.0003457912    
0.0816540100    0.0191632600    0.0003406835    
0.0818766710    0.0196098480    0.0003454173    
0.0820993320    0.0198112370    0.0003465537    
0.0823219930    0.0196571550    0.0003466272    
0.0825446540    0.0198906020    0.0003461461    
0.0827673150    0.0198857370    0.0003437785    
0.0829899760    0.0197557780    0.0003420433    
0.0832126370    0.0192519800    0.0003391663    
0.0834352980    0.0194574600    0.0003402091    
0.0836579590    0.0198091640    0.0003425059    
0.0838806200    0.0190573400    0.0003369947    
0.0841032810    0.0200162010    0.0003432246    
0.0843259420    0.0190274280    0.0003336092    
0.0845486030    0.0196708690    0.0003392033    
0.0847712640    0.0193393920    0.0003342835    
0.0849939250    0.0200098270    0.0003406205    
0.0852165860    0.0190042330    0.0003323861    
0.0854392470    0.0195072840    0.0003335675    
0.0856619080    0.0194020850    0.0003351169    
0.0858845690    0.0189973240    0.0003286164    
0.0861072300    0.0194218890    0.0003345619    
0.0863298910    0.0197888860    0.0003394765    
0.0865525520    0.0195344620    0.0003343746    
0.0867752130    0.0197892720    0.0003338327    
0.0869978740    0.0192959380    0.0003304855    
0.0872205350    0.0193146190    0.0003302247    
0.0874431960    0.0194162760    0.0003310929    
0.0876658570    0.0191048250    0.0003296877    
0.0878885180    0.0195471800    0.0003340544    
0.0881111790    0.0188991530    0.0003280490    
0.0883338400    0.0192730820    0.0003264281    
0.0885565010    0.0194755990    0.0003325884    
0.0887791620    0.0202187620    0.0003344801    
0.0890018230    0.0192759280    0.0003297561    
0.0892244840    0.0196019010    0.0003330979    
0.0894471450    0.0195713580    0.0003314324    
0.0896698060    0.0192401660    0.0003273766    
0.0898924670    0.0189804200    0.0003266665    
0.0901151280    0.0201569990    0.0003330030    
0.0903377890    0.0199699850    0.0003342286    
0.0905604500    0.0197815680    0.0003311215    
0.0907831110    0.0193468470    0.0003266483    
0.0910057720    0.0196194360    0.0003304509    
0.0912284330    0.0190886810    0.0003212836    
0.0914510940    0.0199480310    0.0003320984    
0.0916737550    0.0198271410    0.0003302689    
0.0918964160    0.0196429210    0.0003300982    
0.0921190770    0.0195126600    0.0003260271    
0.0923417380    0.0193269530    0.0003246051    
0.0925643990    0.0198075520    0.0003278120    
0.0927870600    0.0191717470    0.0003238304    
0.0930097210    0.0200402770    0.0003282646    
0.0932323820    0.0194083990    0.0003254227    
