# Diamond Light Source Ltd.
# Data extracted from: /dls/b21/data/2018/cm19678-3/processed/b21-386631_00603.dat
q(1/A)          Column          Error           
0.0035000000    2.0212495000    0.0241844780    
0.0037226610    1.8369209000    0.0225699340    
0.0039453220    1.5936506000    0.0191244190    
0.0041679830    1.2979795000    0.0141739340    
0.0043906440    0.9575440900    0.0116445090    
0.0046133050    0.7959210100    0.0101915600    
0.0048359660    0.5790296400    0.0082224974    
0.0050586270    0.4472730800    0.0071031529    
0.0052812880    0.4224234700    0.0065266881    
0.0055039490    0.3811877800    0.0058952046    
0.0057266100    0.3135771800    0.0051726819    
0.0059492710    0.2660500000    0.0047645864    
0.0061719320    0.2331015600    0.0042975788    
0.0063945930    0.1984480600    0.0040133536    
0.0066172539    0.1791980400    0.0035810972    
0.0068399149    0.1659720100    0.0033921323    
0.0070625759    0.1474401500    0.0031643596    
0.0072852369    0.1273774500    0.0028971876    
0.0075078979    0.1158191300    0.0027490404    
0.0077305589    0.0948725930    0.0024406671    
0.0079532199    0.0978178800    0.0024439200    
0.0081758809    0.0870816300    0.0023273545    
0.0083985419    0.0815437160    0.0021005541    
0.0086212029    0.0762409520    0.0020311070    
0.0088438639    0.0695901980    0.0019249093    
0.0090665249    0.0655619250    0.0018045326    
0.0092891859    0.0640121280    0.0018611008    
0.0095118469    0.0630523980    0.0017763001    
0.0097345079    0.0584365150    0.0016608254    
0.0099571689    0.0522029240    0.0015373763    
0.0101798300    0.0552364080    0.0015814138    
0.0104024910    0.0461390510    0.0014404394    
0.0106251520    0.0450493820    0.0014281614    
0.0108478130    0.0462023160    0.0014085025    
0.0110704740    0.0420739070    0.0012796759    
0.0112931350    0.0417733060    0.0012788413    
0.0115157960    0.0406297630    0.0012538617    
0.0117384570    0.0376893920    0.0011972430    
0.0119611180    0.0357639910    0.0011696076    
0.0121837790    0.0363466770    0.0011592790    
0.0124064400    0.0350095390    0.0010903277    
0.0126291010    0.0356949360    0.0010871694    
0.0128517620    0.0346088640    0.0010731753    
0.0130744230    0.0344580560    0.0010628927    
0.0132970840    0.0332453030    0.0010389157    
0.0135197450    0.0325522900    0.0010133085    
0.0137424060    0.0331244310    0.0010079443    
0.0139650670    0.0288505270    0.0009197212    
0.0141877280    0.0313930410    0.0009615122    
0.0144103890    0.0294096200    0.0009145957    
0.0146330500    0.0283072080    0.0008915932    
0.0148557110    0.0283209630    0.0008880707    
0.0150783720    0.0255540910    0.0008366034    
0.0153010330    0.0272878330    0.0008523287    
0.0155236940    0.0269905760    0.0008426330    
0.0157463550    0.0269271260    0.0008270601    
0.0159690160    0.0245802470    0.0007871979    
0.0161916770    0.0255753610    0.0007984507    
0.0164143380    0.0251039310    0.0007970506    
0.0166369990    0.0252674350    0.0007749872    
0.0168596600    0.0250810370    0.0007653205    
0.0170823210    0.0266452880    0.0007819956    
0.0173049820    0.0246417910    0.0007533215    
0.0175276430    0.0232357650    0.0007392282    
0.0177503040    0.0244782790    0.0007393935    
0.0179729650    0.0230756400    0.0007107771    
0.0181956260    0.0242002480    0.0007139369    
0.0184182870    0.0231589740    0.0006951169    
0.0186409480    0.0236854820    0.0007074234    
0.0188636090    0.0242021870    0.0007106007    
0.0190862700    0.0242513560    0.0007102099    
0.0193089310    0.0239062730    0.0007040398    
0.0195315920    0.0229657170    0.0006665837    
0.0197542530    0.0222759210    0.0006574530    
0.0199769140    0.0217714220    0.0006499656    
0.0201995750    0.0225990100    0.0006518342    
0.0204222360    0.0236580430    0.0006726575    
0.0206448970    0.0225499190    0.0006520478    
0.0208675580    0.0225169840    0.0006381541    
0.0210902190    0.0217552280    0.0006333192    
0.0213128800    0.0218864300    0.0006266067    
0.0215355410    0.0215957680    0.0006150170    
0.0217582020    0.0210353020    0.0006069840    
0.0219808630    0.0212945390    0.0006099109    
0.0222035240    0.0205844470    0.0005942218    
0.0224261850    0.0210790030    0.0005959659    
0.0226488460    0.0220084360    0.0006043902    
0.0228715070    0.0219817980    0.0006025238    
0.0230941680    0.0205284640    0.0005822653    
0.0233168290    0.0214773380    0.0005970536    
0.0235394900    0.0220285910    0.0005979940    
0.0237621510    0.0215194440    0.0005751314    
0.0239848120    0.0206140570    0.0005635538    
0.0242074730    0.0209372890    0.0005634088    
0.0244301340    0.0212890120    0.0005687697    
0.0246527950    0.0210350070    0.0005706015    
0.0248754560    0.0205142570    0.0005508300    
0.0250981170    0.0212892430    0.0005623894    
0.0253207780    0.0210856320    0.0005429827    
0.0255434390    0.0198670620    0.0005326845    
0.0257661000    0.0212320610    0.0005524613    
0.0259887610    0.0210646140    0.0005444307    
0.0262114220    0.0208061400    0.0005439630    
0.0264340830    0.0211847510    0.0005414218    
0.0266567440    0.0209100900    0.0005345769    
0.0268794050    0.0211735260    0.0005357383    
0.0271020660    0.0208948700    0.0005300467    
0.0273247270    0.0216542900    0.0005363523    
0.0275473880    0.0203508540    0.0005189248    
0.0277700490    0.0206078610    0.0005191045    
0.0279927100    0.0207637750    0.0005165182    
0.0282153710    0.0207585760    0.0005189644    
0.0284380320    0.0202364710    0.0005094262    
0.0286606930    0.0205974520    0.0005095508    
0.0288833540    0.0203214820    0.0005070872    
0.0291060150    0.0198914180    0.0005012166    
0.0293286760    0.0202864840    0.0004991163    
0.0295513370    0.0201354120    0.0004918396    
0.0297739980    0.0203233460    0.0004995698    
0.0299966590    0.0205485770    0.0004937508    
0.0302193200    0.0194787530    0.0004877315    
0.0304419810    0.0194401910    0.0004881451    
0.0306646420    0.0202798010    0.0004845032    
0.0308873030    0.0205640040    0.0004857789    
0.0311099640    0.0207516800    0.0004892577    
0.0313326250    0.0200011460    0.0004750075    
0.0315552860    0.0199673140    0.0004807564    
0.0317779470    0.0199673250    0.0004811753    
0.0320006080    0.0203660180    0.0004749143    
0.0322232690    0.0204922160    0.0004783777    
0.0324459300    0.0201103760    0.0004703619    
0.0326685910    0.0200002660    0.0004682991    
0.0328912520    0.0202322890    0.0004725674    
0.0331139130    0.0200641660    0.0004644782    
0.0333365740    0.0209738930    0.0004764334    
0.0335592350    0.0200948010    0.0004618579    
0.0337818960    0.0204231620    0.0004652454    
0.0340045570    0.0202526910    0.0004625638    
0.0342272170    0.0193175940    0.0004499771    
0.0344498780    0.0201998910    0.0004619608    
0.0346725390    0.0198249980    0.0004491782    
0.0348952000    0.0197153760    0.0004458940    
0.0351178610    0.0199064400    0.0004501002    
0.0353405220    0.0198868390    0.0004478291    
0.0355631830    0.0206681430    0.0004548220    
0.0357858440    0.0194971270    0.0004417496    
0.0360085050    0.0203300500    0.0004524497    
0.0362311660    0.0197414440    0.0004405519    
0.0364538270    0.0195806100    0.0004352322    
0.0366764880    0.0206534650    0.0004466724    
0.0368991490    0.0195946470    0.0004328789    
0.0371218100    0.0201197520    0.0004373859    
0.0373444710    0.0202979960    0.0004441032    
0.0375671320    0.0200160860    0.0004403662    
0.0377897930    0.0195263840    0.0004236864    
0.0380124540    0.0199955980    0.0004314369    
0.0382351150    0.0202376440    0.0004340404    
0.0384577760    0.0197394440    0.0004245287    
0.0386804370    0.0199213620    0.0004297351    
0.0389030980    0.0190729670    0.0004173006    
0.0391257590    0.0198596600    0.0004229290    
0.0393484200    0.0196188550    0.0004189424    
0.0395710810    0.0197614520    0.0004210286    
0.0397937420    0.0196897040    0.0004202637    
0.0400164030    0.0192171950    0.0004168795    
0.0402390640    0.0199237890    0.0004188222    
0.0404617250    0.0200548300    0.0004177183    
0.0406843860    0.0193278440    0.0004061153    
0.0409070470    0.0193057430    0.0004101112    
0.0411297080    0.0198397040    0.0004117220    
0.0413523690    0.0200022360    0.0004144707    
0.0415750300    0.0201775340    0.0004198190    
0.0417976910    0.0197772670    0.0004048844    
0.0420203520    0.0199762780    0.0004084454    
0.0422430130    0.0197491610    0.0004076544    
0.0424656740    0.0190007080    0.0003946509    
0.0426883350    0.0197775640    0.0004046362    
0.0429109960    0.0192432420    0.0004003799    
0.0431336570    0.0205429120    0.0004078512    
0.0433563180    0.0194819970    0.0004006064    
0.0435789790    0.0198962050    0.0003984824    
0.0438016400    0.0192096660    0.0003936771    
0.0440243010    0.0192170880    0.0003897580    
0.0442469620    0.0193680770    0.0003936308    
0.0444696230    0.0197536410    0.0003961040    
0.0446922840    0.0197154500    0.0003945458    
0.0449149450    0.0195453990    0.0003875889    
0.0451376060    0.0200154050    0.0003970654    
0.0453602670    0.0202303910    0.0003950073    
0.0455829280    0.0194833990    0.0003871978    
0.0458055890    0.0190729320    0.0003853314    
0.0460282500    0.0193071590    0.0003830152    
0.0462509110    0.0197205910    0.0003846868    
0.0464735720    0.0194649030    0.0003824006    
0.0466962330    0.0198848670    0.0003882608    
0.0469188940    0.0195310670    0.0003837004    
0.0471415550    0.0190924880    0.0003813163    
0.0473642160    0.0193241680    0.0003782514    
0.0475868770    0.0193085770    0.0003762204    
0.0478095380    0.0199174750    0.0003804344    
0.0480321990    0.0199026730    0.0003811262    
0.0482548600    0.0195270450    0.0003758678    
0.0484775210    0.0197912890    0.0003821595    
0.0487001820    0.0198895960    0.0003774994    
0.0489228430    0.0204264840    0.0003823549    
0.0491455040    0.0197002220    0.0003728990    
0.0493681650    0.0196238060    0.0003753733    
0.0495908260    0.0195797980    0.0003686436    
0.0498134870    0.0201028930    0.0003770913    
0.0500361480    0.0191241800    0.0003668243    
0.0502588090    0.0200436280    0.0003699119    
0.0504814700    0.0205150580    0.0003791292    
0.0507041310    0.0191955470    0.0003623737    
0.0509267920    0.0195478320    0.0003671966    
0.0511494530    0.0197303970    0.0003664474    
0.0513721140    0.0197054210    0.0003694406    
0.0515947750    0.0200495670    0.0003677118    
0.0518174360    0.0193290220    0.0003588691    
0.0520400970    0.0198898280    0.0003615137    
0.0522627580    0.0197080610    0.0003629163    
0.0524854190    0.0197921200    0.0003666465    
0.0527080800    0.0199480400    0.0003709378    
0.0529307410    0.0201149660    0.0003742360    
0.0531534020    0.0193881620    0.0003660751    
0.0533760630    0.0195653800    0.0003688956    
0.0535987240    0.0193968930    0.0003655889    
0.0538213850    0.0198419070    0.0003740429    
0.0540440460    0.0199688470    0.0003734616    
0.0542667070    0.0196856200    0.0003733591    
0.0544893680    0.0199972400    0.0003765031    
0.0547120290    0.0193745920    0.0003680563    
0.0549346900    0.0197939420    0.0003722139    
0.0551573510    0.0194673910    0.0003734762    
0.0553800120    0.0193420710    0.0003691074    
0.0556026730    0.0193892140    0.0003772192    
0.0558253340    0.0200809360    0.0003871035    
0.0560479950    0.0200734940    0.0003870320    
0.0562706560    0.0201287940    0.0003913117    
0.0564933170    0.0192569870    0.0003860674    
0.0567159780    0.0194099780    0.0003829508    
0.0569386390    0.0186908300    0.0003816840    
0.0571613000    0.0196706300    0.0003831295    
0.0573839610    0.0189050030    0.0003724807    
0.0576066220    0.0192312050    0.0003767205    
0.0578292830    0.0196026430    0.0003790827    
0.0580519440    0.0192969150    0.0003775733    
0.0582746050    0.0192662380    0.0003756094    
0.0584972660    0.0195041680    0.0003764750    
0.0587199270    0.0200192610    0.0003781260    
0.0589425880    0.0196375250    0.0003723130    
0.0591652490    0.0190051250    0.0003684243    
0.0593879100    0.0193290160    0.0003687911    
0.0596105710    0.0189231360    0.0003645136    
0.0598332320    0.0194622810    0.0003728297    
0.0600558930    0.0199200340    0.0003747838    
0.0602785540    0.0198849770    0.0003740581    
0.0605012150    0.0200324970    0.0003746520    
0.0607238760    0.0191477540    0.0003636159    
0.0609465370    0.0198011380    0.0003726788    
0.0611691980    0.0190125410    0.0003657611    
0.0613918590    0.0195427340    0.0003667775    
0.0616145200    0.0203257690    0.0003767910    
0.0618371810    0.0195107320    0.0003655336    
0.0620598420    0.0196607800    0.0003673148    
0.0622825030    0.0198988710    0.0003751834    
0.0625051640    0.0199146190    0.0003700605    
0.0627278250    0.0200929230    0.0003709480    
0.0629504860    0.0202930720    0.0003697603    
0.0631731470    0.0195484850    0.0003674034    
0.0633958080    0.0199208270    0.0003730204    
0.0636184690    0.0199984670    0.0003789519    
0.0638411300    0.0198414810    0.0003760447    
0.0640637910    0.0196951410    0.0003772905    
0.0642864520    0.0195740140    0.0003753146    
0.0645091130    0.0197501450    0.0003803030    
0.0647317740    0.0196029000    0.0003793005    
0.0649544350    0.0189519810    0.0003725396    
0.0651770960    0.0189485920    0.0003704743    
0.0653997570    0.0189963120    0.0003701361    
0.0656224180    0.0187168480    0.0003682023    
0.0658450790    0.0192592730    0.0003681311    
0.0660677400    0.0199416100    0.0003761898    
0.0662904010    0.0198174110    0.0003794935    
0.0665130620    0.0196890800    0.0003766219    
0.0667357230    0.0194103680    0.0003805955    
0.0669583840    0.0189397110    0.0003746950    
0.0671810450    0.0192150040    0.0003753245    
0.0674037060    0.0198185050    0.0003876306    
0.0676263670    0.0193874190    0.0003805847    
0.0678490280    0.0199923270    0.0003841129    
0.0680716890    0.0204372200    0.0003892274    
0.0682943500    0.0194626400    0.0003756734    
0.0685170110    0.0191390530    0.0003687412    
0.0687396720    0.0194685530    0.0003709137    
0.0689623330    0.0191978990    0.0003671592    
0.0691849940    0.0195858770    0.0003734201    
0.0694076550    0.0195080800    0.0003724789    
0.0696303160    0.0195013960    0.0003694666    
0.0698529770    0.0196706760    0.0003702890    
0.0700756380    0.0198617490    0.0003673066    
0.0702982990    0.0194637330    0.0003675675    
0.0705209600    0.0188826750    0.0003594256    
0.0707436210    0.0196586790    0.0003650525    
0.0709662820    0.0193596840    0.0003665844    
0.0711889430    0.0194084830    0.0003625380    
0.0714116040    0.0194470090    0.0003636384    
0.0716342650    0.0194242990    0.0003619504    
0.0718569260    0.0196829490    0.0003628848    
0.0720795870    0.0195457510    0.0003630807    
0.0723022480    0.0194632990    0.0003628662    
0.0725249090    0.0193036980    0.0003570476    
0.0727475700    0.0197960840    0.0003646609    
0.0729702310    0.0194947950    0.0003589891    
0.0731928920    0.0191711560    0.0003574196    
0.0734155530    0.0201831980    0.0003660006    
0.0736382140    0.0196956500    0.0003592327    
0.0738608750    0.0201898880    0.0003660617    
0.0740835360    0.0185774200    0.0003502681    
0.0743061970    0.0197462370    0.0003560338    
0.0745288580    0.0197285150    0.0003595332    
0.0747515190    0.0202472490    0.0003649486    
0.0749741800    0.0204552600    0.0003634230    
0.0751968410    0.0196693270    0.0003591710    
0.0754195020    0.0199256760    0.0003593860    
0.0756421630    0.0198563010    0.0003558271    
0.0758648240    0.0191381740    0.0003501732    
0.0760874850    0.0192926250    0.0003514145    
0.0763101460    0.0196453330    0.0003542720    
0.0765328070    0.0196516980    0.0003579550    
0.0767554680    0.0192829940    0.0003521751    
0.0769781290    0.0197169100    0.0003540691    
0.0772007900    0.0198336200    0.0003522673    
0.0774234510    0.0193764590    0.0003501643    
0.0776461120    0.0193902460    0.0003499566    
0.0778687730    0.0192372480    0.0003474216    
0.0780914340    0.0193540340    0.0003509646    
0.0783140950    0.0194351360    0.0003461191    
0.0785367560    0.0191758850    0.0003493461    
0.0787594170    0.0194776430    0.0003489295    
0.0789820780    0.0195384020    0.0003476826    
0.0792047390    0.0192366750    0.0003461155    
0.0794274000    0.0192744250    0.0003479229    
0.0796500610    0.0194727450    0.0003462950    
0.0798727220    0.0195966350    0.0003470742    
0.0800953830    0.0195677920    0.0003460211    
0.0803180440    0.0199344330    0.0003516807    
0.0805407050    0.0194948440    0.0003474581    
0.0807633660    0.0192855930    0.0003452675    
0.0809860270    0.0196710940    0.0003474136    
0.0812086880    0.0195918750    0.0003437171    
0.0814313490    0.0195214930    0.0003446639    
0.0816540100    0.0192388640    0.0003413809    
0.0818766710    0.0194424410    0.0003439659    
0.0820993320    0.0196505440    0.0003451716    
0.0823219930    0.0197151620    0.0003471647    
0.0825446540    0.0198574770    0.0003458840    
0.0827673150    0.0194726770    0.0003402152    
0.0829899760    0.0192908730    0.0003380205    
0.0832126370    0.0194999260    0.0003413693    
0.0834352980    0.0192878870    0.0003387491    
0.0836579590    0.0196167190    0.0003408641    
0.0838806200    0.0188695150    0.0003353554    
0.0841032810    0.0191127570    0.0003354148    
0.0843259420    0.0191941230    0.0003350928    
0.0845486030    0.0196387580    0.0003389521    
0.0847712640    0.0196543990    0.0003370206    
0.0849939250    0.0192473800    0.0003340935    
0.0852165860    0.0197048440    0.0003384833    
0.0854392470    0.0194817260    0.0003333743    
0.0856619080    0.0197871140    0.0003384515    
0.0858845690    0.0195346290    0.0003332565    
0.0861072300    0.0190155940    0.0003310692    
0.0863298910    0.0196404560    0.0003382266    
0.0865525520    0.0196633680    0.0003355016    
0.0867752130    0.0189417870    0.0003266311    
0.0869978740    0.0191516810    0.0003292728    
0.0872205350    0.0193288500    0.0003303715    
0.0874431960    0.0193740540    0.0003307578    
0.0876658570    0.0193011970    0.0003314029    
0.0878885180    0.0190876630    0.0003301297    
0.0881111790    0.0193861090    0.0003322736    
0.0883338400    0.0196354320    0.0003295074    
0.0885565010    0.0199954890    0.0003370239    
0.0887791620    0.0186778040    0.0003215059    
0.0890018230    0.0193296370    0.0003302403    
0.0892244840    0.0192935120    0.0003304924    
0.0894471450    0.0190971840    0.0003274177    
0.0896698060    0.0194770830    0.0003294111    
0.0898924670    0.0195512300    0.0003315673    
0.0901151280    0.0192026800    0.0003250492    
0.0903377890    0.0192904690    0.0003285180    
0.0905604500    0.0198122920    0.0003314038    
0.0907831110    0.0198020920    0.0003304942    
0.0910057720    0.0194999520    0.0003294682    
0.0912284330    0.0191240330    0.0003216054    
0.0914510940    0.0196414010    0.0003295611    
0.0916737550    0.0193459570    0.0003262615    
0.0918964160    0.0193463090    0.0003276213    
0.0921190770    0.0195646610    0.0003264860    
0.0923417380    0.0195152840    0.0003262076    
0.0925643990    0.0198159890    0.0003279068    
0.0927870600    0.0197545520    0.0003287407    
0.0930097210    0.0190376620    0.0003199720    
0.0932323820    0.0195641520    0.0003267506    
