# Diamond Light Source Ltd.
# Data extracted from: /dls/b21/data/2018/cm19678-3/processed/b21-386631_00597.dat
q(1/A)          Column          Error           
0.0035000000    2.0671153000    0.0244564820    
0.0037226610    1.8171051000    0.0224470860    
0.0039453220    1.6183239000    0.0192712240    
0.0041679830    1.2520776000    0.0139205690    
0.0043906440    0.9570526000    0.0116411150    
0.0046133050    0.7541083900    0.0099199030    
0.0048359660    0.5865784000    0.0082756335    
0.0050586270    0.4586344700    0.0071925518    
0.0052812880    0.4240073900    0.0065386852    
0.0055039490    0.3708595700    0.0058145889    
0.0057266100    0.3131287300    0.0051688018    
0.0059492710    0.2662874300    0.0047665459    
0.0061719320    0.2281732600    0.0042517577    
0.0063945930    0.1965675700    0.0039941540    
0.0066172539    0.1825488700    0.0036142977    
0.0068399149    0.1660991000    0.0033933126    
0.0070625759    0.1460717000    0.0031495309    
0.0072852369    0.1259189600    0.0028804529    
0.0075078979    0.1152891000    0.0027426473    
0.0077305589    0.1019605300    0.0025301080    
0.0079532199    0.0981773990    0.0024483218    
0.0081758809    0.0912427520    0.0023822280    
0.0083985419    0.0845138760    0.0021383929    
0.0086212029    0.0763438530    0.0020324065    
0.0088438639    0.0708631220    0.0019423668    
0.0090665249    0.0650110470    0.0017968728    
0.0092891859    0.0640076690    0.0018609711    
0.0095118469    0.0607462530    0.0017434526    
0.0097345079    0.0602260090    0.0016860046    
0.0099571689    0.0566360000    0.0016012676    
0.0101798300    0.0492113060    0.0014926230    
0.0104024910    0.0475298050    0.0014619366    
0.0106251520    0.0509769550    0.0015191641    
0.0108478130    0.0483888320    0.0014413956    
0.0110704740    0.0434720450    0.0013007190    
0.0112931350    0.0408700030    0.0012648948    
0.0115157960    0.0407430100    0.0012555642    
0.0117384570    0.0390177830    0.0012181167    
0.0119611180    0.0382858410    0.0012100997    
0.0121837790    0.0360483640    0.0011544716    
0.0124064400    0.0359917810    0.0011054788    
0.0126291010    0.0346991530    0.0010718604    
0.0128517620    0.0334418130    0.0010548890    
0.0130744230    0.0348490600    0.0010688689    
0.0132970840    0.0325937100    0.0010286484    
0.0135197450    0.0325184820    0.0010127469    
0.0137424060    0.0304539530    0.0009664270    
0.0139650670    0.0308421140    0.0009509031    
0.0141877280    0.0308313550    0.0009528384    
0.0144103890    0.0279855420    0.0008921465    
0.0146330500    0.0302427970    0.0009215398    
0.0148557110    0.0285417550    0.0008914946    
0.0150783720    0.0285375220    0.0008840614    
0.0153010330    0.0282442670    0.0008671069    
0.0155236940    0.0278041440    0.0008552085    
0.0157463550    0.0273316700    0.0008332206    
0.0159690160    0.0264187740    0.0008160787    
0.0161916770    0.0249504420    0.0007886080    
0.0164143380    0.0257347970    0.0008069754    
0.0166369990    0.0249091510    0.0007694462    
0.0168596600    0.0247290200    0.0007599043    
0.0170823210    0.0245321520    0.0007503205    
0.0173049820    0.0251006360    0.0007602763    
0.0175276430    0.0250449040    0.0007674402    
0.0177503040    0.0235609360    0.0007253812    
0.0179729650    0.0241029510    0.0007264012    
0.0181956260    0.0250831050    0.0007268176    
0.0184182870    0.0245342850    0.0007154343    
0.0186409480    0.0233246660    0.0007019899    
0.0188636090    0.0223437380    0.0006827490    
0.0190862700    0.0236257470    0.0007009651    
0.0193089310    0.0235728870    0.0006990891    
0.0195315920    0.0229254250    0.0006659755    
0.0197542530    0.0231668960    0.0006704489    
0.0199769140    0.0230116820    0.0006681993    
0.0201995750    0.0249098190    0.0006843253    
0.0204222360    0.0226045750    0.0006574877    
0.0206448970    0.0221335790    0.0006459778    
0.0208675580    0.0233111410    0.0006492875    
0.0210902190    0.0220118080    0.0006370207    
0.0213128800    0.0227638890    0.0006390218    
0.0215355410    0.0225224840    0.0006280523    
0.0217582020    0.0230128740    0.0006348530    
0.0219808630    0.0215026670    0.0006128629    
0.0222035240    0.0216464680    0.0006093367    
0.0224261850    0.0218525680    0.0006067817    
0.0226488460    0.0216417800    0.0005993137    
0.0228715070    0.0219307240    0.0006018024    
0.0230941680    0.0212536550    0.0005924400    
0.0233168290    0.0221397010    0.0006061692    
0.0235394900    0.0211992160    0.0005866083    
0.0237621510    0.0208262970    0.0005657732    
0.0239848120    0.0211980320    0.0005714606    
0.0242074730    0.0229217780    0.0005894845    
0.0244301340    0.0216370030    0.0005733794    
0.0246527950    0.0222098110    0.0005862987    
0.0248754560    0.0213262430    0.0005616060    
0.0250981170    0.0209312310    0.0005576212    
0.0253207780    0.0211680530    0.0005440239    
0.0255434390    0.0227219950    0.0005696543    
0.0257661000    0.0207706090    0.0005464058    
0.0259887610    0.0214711830    0.0005496405    
0.0262114220    0.0202500880    0.0005366263    
0.0264340830    0.0218335780    0.0005496312    
0.0266567440    0.0206353180    0.0005310345    
0.0268794050    0.0193964180    0.0005127453    
0.0271020660    0.0208127450    0.0005289856    
0.0273247270    0.0210151530    0.0005283593    
0.0275473880    0.0204685160    0.0005204047    
0.0277700490    0.0199003680    0.0005100982    
0.0279927100    0.0208137200    0.0005171210    
0.0282153710    0.0204976650    0.0005156747    
0.0284380320    0.0196580160    0.0005020750    
0.0286606930    0.0209111340    0.0005133982    
0.0288833540    0.0203074140    0.0005068940    
0.0291060150    0.0204835760    0.0005086047    
0.0293286760    0.0209235840    0.0005068755    
0.0295513370    0.0194252340    0.0004830713    
0.0297739980    0.0200517900    0.0004962038    
0.0299966590    0.0199065300    0.0004859589    
0.0302193200    0.0193674920    0.0004863196    
0.0304419810    0.0204071020    0.0005001200    
0.0306646420    0.0196533690    0.0004769448    
0.0308873030    0.0200003130    0.0004790580    
0.0311099640    0.0195852680    0.0004752922    
0.0313326250    0.0209360070    0.0004859649    
0.0315552860    0.0207414110    0.0004899698    
0.0317779470    0.0195949060    0.0004766503    
0.0320006080    0.0203978210    0.0004752684    
0.0322232690    0.0198431230    0.0004707240    
0.0324459300    0.0206810030    0.0004769718    
0.0326685910    0.0207773380    0.0004772932    
0.0328912520    0.0200211760    0.0004700791    
0.0331139130    0.0203853210    0.0004681644    
0.0333365740    0.0201499830    0.0004669656    
0.0335592350    0.0194883700    0.0004548196    
0.0337818960    0.0201567970    0.0004621854    
0.0340045570    0.0201984600    0.0004619280    
0.0342272170    0.0197669260    0.0004551644    
0.0344498780    0.0199343820    0.0004588987    
0.0346725390    0.0204138480    0.0004557844    
0.0348952000    0.0205408810    0.0004551175    
0.0351178610    0.0199762880    0.0004508734    
0.0353405220    0.0204098160    0.0004536635    
0.0355631830    0.0192455550    0.0004388750    
0.0357858440    0.0202163520    0.0004498079    
0.0360085050    0.0198554070    0.0004471213    
0.0362311660    0.0205855100    0.0004498558    
0.0364538270    0.0198791260    0.0004385220    
0.0366764880    0.0202559860    0.0004423379    
0.0368991490    0.0198132160    0.0004352714    
0.0371218100    0.0209360150    0.0004461546    
0.0373444710    0.0198787970    0.0004394781    
0.0375671320    0.0195593720    0.0004352981    
0.0377897930    0.0196721050    0.0004252496    
0.0380124540    0.0193705500    0.0004246253    
0.0382351150    0.0205527160    0.0004373908    
0.0384577760    0.0198293640    0.0004254797    
0.0386804370    0.0202907510    0.0004336858    
0.0389030980    0.0198841690    0.0004260676    
0.0391257590    0.0196601440    0.0004207846    
0.0393484200    0.0202436730    0.0004255465    
0.0395710810    0.0196703790    0.0004200427    
0.0397937420    0.0196973020    0.0004203302    
0.0400164030    0.0193967110    0.0004188075    
0.0402390640    0.0200104360    0.0004197173    
0.0404617250    0.0196967340    0.0004139577    
0.0406843860    0.0196848700    0.0004098347    
0.0409070470    0.0196615650    0.0004138589    
0.0411297080    0.0204192900    0.0004176781    
0.0413523690    0.0202498870    0.0004170141    
0.0415750300    0.0193551080    0.0004111599    
0.0417976910    0.0197095830    0.0004041769    
0.0420203520    0.0203423180    0.0004121561    
0.0422430130    0.0204882220    0.0004151975    
0.0424656740    0.0199747620    0.0004046261    
0.0426883350    0.0199251910    0.0004061294    
0.0429109960    0.0194668060    0.0004026849    
0.0431336570    0.0193431610    0.0003957486    
0.0433563180    0.0199089670    0.0004049584    
0.0435789790    0.0191127530    0.0003905445    
0.0438016400    0.0202570820    0.0004042533    
0.0440243010    0.0201484760    0.0003990775    
0.0442469620    0.0203266650    0.0004032402    
0.0444696230    0.0200381840    0.0003989328    
0.0446922840    0.0190903640    0.0003882273    
0.0449149450    0.0197822860    0.0003899170    
0.0451376060    0.0193917730    0.0003908170    
0.0453602670    0.0192803870    0.0003856077    
0.0455829280    0.0193435440    0.0003857922    
0.0458055890    0.0206362520    0.0004007984    
0.0460282500    0.0192450330    0.0003823852    
0.0462509110    0.0197717420    0.0003851719    
0.0464735720    0.0195236430    0.0003829638    
0.0466962330    0.0194210750    0.0003836929    
0.0469188940    0.0193563440    0.0003819670    
0.0471415550    0.0195404510    0.0003857503    
0.0473642160    0.0198928820    0.0003837637    
0.0475868770    0.0204067330    0.0003867576    
0.0478095380    0.0207444110    0.0003882380    
0.0480321990    0.0195436910    0.0003776603    
0.0482548600    0.0196776080    0.0003773009    
0.0484775210    0.0196866070    0.0003811342    
0.0487001820    0.0203825500    0.0003821355    
0.0489228430    0.0195519500    0.0003740673    
0.0491455040    0.0202352570    0.0003779156    
0.0493681650    0.0199598910    0.0003785609    
0.0495908260    0.0194743310    0.0003676366    
0.0498134870    0.0199034490    0.0003752030    
0.0500361480    0.0194464860    0.0003698896    
0.0502588090    0.0191343240    0.0003614112    
0.0504814700    0.0200162010    0.0003744782    
0.0507041310    0.0191052850    0.0003615081    
0.0509267920    0.0192912760    0.0003647663    
0.0511494530    0.0202802640    0.0003715057    
0.0513721140    0.0196070870    0.0003685048    
0.0515947750    0.0194345190    0.0003620152    
0.0518174360    0.0199606050    0.0003646723    
0.0520400970    0.0199081530    0.0003616676    
0.0522627580    0.0199739870    0.0003653439    
0.0524854190    0.0198994070    0.0003676261    
0.0527080800    0.0191396800    0.0003633316    
0.0529307410    0.0193686180    0.0003672147    
0.0531534020    0.0190757930    0.0003631015    
0.0533760630    0.0204403290    0.0003770406    
0.0535987240    0.0197124850    0.0003685381    
0.0538213850    0.0197206640    0.0003728853    
0.0540440460    0.0198626950    0.0003724546    
0.0542667070    0.0196630060    0.0003731315    
0.0544893680    0.0194004370    0.0003708294    
0.0547120290    0.0194851050    0.0003690917    
0.0549346900    0.0192606560    0.0003671528    
0.0551573510    0.0199460590    0.0003780267    
0.0553800120    0.0193970700    0.0003696189    
0.0556026730    0.0196887350    0.0003801084    
0.0558253340    0.0197736060    0.0003841165    
0.0560479950    0.0199452460    0.0003857802    
0.0562706560    0.0198535500    0.0003886135    
0.0564933170    0.0194104340    0.0003875890    
0.0567159780    0.0195974990    0.0003847828    
0.0569386390    0.0195000840    0.0003898458    
0.0571613000    0.0206169060    0.0003922230    
0.0573839610    0.0193072970    0.0003764099    
0.0576066220    0.0194438580    0.0003787845    
0.0578292830    0.0204076120    0.0003867743    
0.0580519440    0.0198939400    0.0003833563    
0.0582746050    0.0198287110    0.0003810396    
0.0584972660    0.0194301470    0.0003757469    
0.0587199270    0.0188823540    0.0003672192    
0.0589425880    0.0203702190    0.0003791818    
0.0591652490    0.0195394210    0.0003735542    
0.0593879100    0.0194965320    0.0003703728    
0.0596105710    0.0195396730    0.0003703912    
0.0598332320    0.0192752430    0.0003710209    
0.0600558930    0.0196789170    0.0003724957    
0.0602785540    0.0195458660    0.0003708419    
0.0605012150    0.0191062660    0.0003658754    
0.0607238760    0.0194916500    0.0003668539    
0.0609465370    0.0192316460    0.0003672677    
0.0611691980    0.0197288860    0.0003725749    
0.0613918590    0.0202641080    0.0003734725    
0.0616145200    0.0189344740    0.0003636541    
0.0618371810    0.0197285020    0.0003675551    
0.0620598420    0.0199064400    0.0003695896    
0.0622825030    0.0189496490    0.0003661127    
0.0625051640    0.0196106820    0.0003672129    
0.0627278250    0.0192629370    0.0003631931    
0.0629504860    0.0203522910    0.0003702866    
0.0631731470    0.0200718780    0.0003722764    
0.0633958080    0.0199962680    0.0003737131    
0.0636184690    0.0191785220    0.0003710891    
0.0638411300    0.0200182610    0.0003777030    
0.0640637910    0.0200334420    0.0003805038    
0.0642864520    0.0196590000    0.0003761154    
0.0645091130    0.0194631920    0.0003775170    
0.0647317740    0.0193887130    0.0003772095    
0.0649544350    0.0201881650    0.0003844842    
0.0651770960    0.0197946850    0.0003786420    
0.0653997570    0.0197089230    0.0003770015    
0.0656224180    0.0192153020    0.0003730599    
0.0658450790    0.0193705100    0.0003691798    
0.0660677400    0.0192377010    0.0003694779    
0.0662904010    0.0201357610    0.0003825162    
0.0665130620    0.0191618380    0.0003715321    
0.0667357230    0.0192523110    0.0003790295    
0.0669583840    0.0199390510    0.0003844398    
0.0671810450    0.0200127080    0.0003830227    
0.0674037060    0.0200142350    0.0003895265    
0.0676263670    0.0195280090    0.0003819488    
0.0678490280    0.0190389850    0.0003748296    
0.0680716890    0.0191238140    0.0003764997    
0.0682943500    0.0200921080    0.0003816869    
0.0685170110    0.0193508350    0.0003707628    
0.0687396720    0.0196014540    0.0003721646    
0.0689623330    0.0190280470    0.0003655187    
0.0691849940    0.0201255610    0.0003785167    
0.0694076550    0.0193147120    0.0003706153    
0.0696303160    0.0200459830    0.0003745768    
0.0698529770    0.0187980570    0.0003619699    
0.0700756380    0.0190181330    0.0003594089    
0.0702982990    0.0195040230    0.0003679349    
0.0705209600    0.0196133550    0.0003663009    
0.0707436210    0.0193319470    0.0003619936    
0.0709662820    0.0200246680    0.0003728142    
0.0711889430    0.0194613030    0.0003630183    
0.0714116040    0.0196768260    0.0003657681    
0.0716342650    0.0195713160    0.0003633050    
0.0718569260    0.0196882680    0.0003629212    
0.0720795870    0.0193757870    0.0003614861    
0.0723022480    0.0197866470    0.0003658552    
0.0725249090    0.0192495250    0.0003565338    
0.0727475700    0.0193178050    0.0003602163    
0.0729702310    0.0187993670    0.0003525157    
0.0731928920    0.0194096930    0.0003596238    
0.0734155530    0.0195977740    0.0003606409    
0.0736382140    0.0197008300    0.0003592674    
0.0738608750    0.0196110990    0.0003607640    
0.0740835360    0.0197383720    0.0003610342    
0.0743061970    0.0190772850    0.0003499389    
0.0745288580    0.0195502450    0.0003578927    
0.0747515190    0.0198051400    0.0003609296    
0.0749741800    0.0197242640    0.0003568578    
0.0751968410    0.0198319110    0.0003606398    
0.0754195020    0.0194640980    0.0003551866    
0.0756421630    0.0198740460    0.0003559737    
0.0758648240    0.0196429710    0.0003547489    
0.0760874850    0.0199953420    0.0003577448    
0.0763101460    0.0195800820    0.0003536709    
0.0765328070    0.0193830230    0.0003554873    
0.0767554680    0.0197061290    0.0003560057    
0.0769781290    0.0199952790    0.0003565473    
0.0772007900    0.0195256840    0.0003495098    
0.0774234510    0.0201027830    0.0003566544    
0.0776461120    0.0194646830    0.0003506154    
0.0778687730    0.0194241260    0.0003490929    
0.0780914340    0.0194099610    0.0003514591    
0.0783140950    0.0192057290    0.0003440583    
0.0785367560    0.0195372940    0.0003526105    
0.0787594170    0.0188824980    0.0003435454    
0.0789820780    0.0194504300    0.0003468869    
0.0792047390    0.0197584060    0.0003507655    
0.0794274000    0.0193107620    0.0003482385    
0.0796500610    0.0188617530    0.0003408071    
0.0798727220    0.0197366410    0.0003482997    
0.0800953830    0.0187894010    0.0003390572    
0.0803180440    0.0193684920    0.0003466405    
0.0805407050    0.0194625240    0.0003471578    
0.0807633660    0.0196427390    0.0003484377    
0.0809860270    0.0192770660    0.0003439045    
0.0812086880    0.0193975600    0.0003419964    
0.0814313490    0.0196357450    0.0003456590    
0.0816540100    0.0195040390    0.0003437135    
0.0818766710    0.0194593420    0.0003441034    
0.0820993320    0.0188246500    0.0003378283    
0.0823219930    0.0195181790    0.0003454139    
0.0825446540    0.0191151050    0.0003393452    
0.0827673150    0.0196377420    0.0003416422    
0.0829899760    0.0195145830    0.0003399629    
0.0832126370    0.0193491760    0.0003400353    
0.0834352980    0.0196791740    0.0003421560    
0.0836579590    0.0196627330    0.0003412517    
0.0838806200    0.0192674960    0.0003388617    
0.0841032810    0.0195764090    0.0003394469    
0.0843259420    0.0193624260    0.0003365470    
0.0845486030    0.0199006260    0.0003411926    
0.0847712640    0.0199419590    0.0003394653    
0.0849939250    0.0194142030    0.0003355265    
0.0852165860    0.0189941700    0.0003323118    
0.0854392470    0.0196686130    0.0003349578    
0.0856619080    0.0187495610    0.0003294470    
0.0858845690    0.0194366250    0.0003324079    
0.0861072300    0.0191871790    0.0003325479    
0.0863298910    0.0194468900    0.0003365441    
0.0865525520    0.0195360700    0.0003344022    
0.0867752130    0.0194529810    0.0003309977    
0.0869978740    0.0199371930    0.0003359459    
0.0872205350    0.0192202220    0.0003294304    
0.0874431960    0.0193614120    0.0003306384    
0.0876658570    0.0195502040    0.0003335222    
0.0878885180    0.0195088240    0.0003337403    
0.0881111790    0.0190829390    0.0003296538    
0.0883338400    0.0197612350    0.0003305497    
0.0885565010    0.0193465600    0.0003314984    
0.0887791620    0.0195121030    0.0003285965    
0.0890018230    0.0193057240    0.0003300244    
0.0892244840    0.0195072800    0.0003323067    
0.0894471450    0.0193708970    0.0003297443    
0.0896698060    0.0195202940    0.0003297648    
0.0898924670    0.0197297920    0.0003330664    
0.0901151280    0.0193058770    0.0003259101    
0.0903377890    0.0195073030    0.0003303477    
0.0905604500    0.0195614740    0.0003292879    
0.0907831110    0.0198724140    0.0003310690    
0.0910057720    0.0191868830    0.0003268013    
0.0912284330    0.0197500300    0.0003268153    
0.0914510940    0.0198169710    0.0003310193    
0.0916737550    0.0190034920    0.0003233495    
0.0918964160    0.0194392730    0.0003283961    
0.0921190770    0.0196341200    0.0003270537    
0.0923417380    0.0195084720    0.0003261393    
0.0925643990    0.0188596880    0.0003198855    
0.0927870600    0.0197586460    0.0003287633    
0.0930097210    0.0197676750    0.0003260377    
0.0932323820    0.0191426120    0.0003232001    
