# Diamond Light Source Ltd.
# Data extracted from: /dls/b21/data/2018/cm19678-3/processed/b21-386631_00612.dat
q(1/A)          Column          Error           
0.0035000000    2.0462436000    0.0243428000    
0.0037226610    1.8996508000    0.0229608020    
0.0039453220    1.5918770000    0.0191210420    
0.0041679830    1.2827026000    0.0140956320    
0.0043906440    0.9479272400    0.0115902930    
0.0046133050    0.7879068100    0.0101439750    
0.0048359660    0.5877665500    0.0082874492    
0.0050586270    0.4748200300    0.0073214044    
0.0052812880    0.4165887800    0.0064839211    
0.0055039490    0.3730835500    0.0058344181    
0.0057266100    0.3190245900    0.0052194018    
0.0059492710    0.2709489200    0.0048100809    
0.0061719320    0.2155173100    0.0041338759    
0.0063945930    0.2061530700    0.0040920789    
0.0066172539    0.1829153000    0.0036194250    
0.0068399149    0.1646412500    0.0033797905    
0.0070625759    0.1413674600    0.0030996866    
0.0072852369    0.1262213500    0.0028851065    
0.0075078979    0.1119892300    0.0027042336    
0.0077305589    0.1019195200    0.0025306491    
0.0079532199    0.0979533850    0.0024465421    
0.0081758809    0.0927502260    0.0024028233    
0.0083985419    0.0794938440    0.0020747724    
0.0086212029    0.0783566830    0.0020598793    
0.0088438639    0.0690569950    0.0019182499    
0.0090665249    0.0636235550    0.0017783324    
0.0092891859    0.0662810120    0.0018945166    
0.0095118469    0.0638014700    0.0017874997    
0.0097345079    0.0582447700    0.0016587288    
0.0099571689    0.0523785590    0.0015405459    
0.0101798300    0.0461710740    0.0014463816    
0.0104024910    0.0487843780    0.0014817200    
0.0106251520    0.0469413640    0.0014583972    
0.0108478130    0.0453780250    0.0013964122    
0.0110704740    0.0407036760    0.0012591443    
0.0112931350    0.0421968780    0.0012857972    
0.0115157960    0.0397700030    0.0012409961    
0.0117384570    0.0393166040    0.0012232799    
0.0119611180    0.0378965570    0.0012044316    
0.0121837790    0.0357452650    0.0011500850    
0.0124064400    0.0360216650    0.0011063967    
0.0126291010    0.0345622770    0.0010701883    
0.0128517620    0.0333363680    0.0010536618    
0.0130744230    0.0326140430    0.0010344546    
0.0132970840    0.0330431530    0.0010361461    
0.0135197450    0.0310302700    0.0009897119    
0.0137424060    0.0300188270    0.0009598962    
0.0139650670    0.0318066650    0.0009660587    
0.0141877280    0.0295012530    0.0009324454    
0.0144103890    0.0279803140    0.0008924334    
0.0146330500    0.0304084270    0.0009244434    
0.0148557110    0.0295408590    0.0009073403    
0.0150783720    0.0289175470    0.0008902976    
0.0153010330    0.0254436110    0.0008233359    
0.0155236940    0.0272743710    0.0008473735    
0.0157463550    0.0265662730    0.0008218120    
0.0159690160    0.0271723710    0.0008279797    
0.0161916770    0.0270167480    0.0008209540    
0.0164143380    0.0267691900    0.0008233751    
0.0166369990    0.0247157410    0.0007667713    
0.0168596600    0.0254273030    0.0007708783    
0.0170823210    0.0241850370    0.0007453025    
0.0173049820    0.0244070130    0.0007500093    
0.0175276430    0.0232299020    0.0007394159    
0.0177503040    0.0250556770    0.0007483475    
0.0179729650    0.0236847620    0.0007203709    
0.0181956260    0.0234598450    0.0007031979    
0.0184182870    0.0232183480    0.0006962720    
0.0186409480    0.0230691480    0.0006984240    
0.0188636090    0.0236568400    0.0007028162    
0.0190862700    0.0240408410    0.0007073896    
0.0193089310    0.0229492170    0.0006900655    
0.0195315920    0.0238544940    0.0006796180    
0.0197542530    0.0227783350    0.0006650786    
0.0199769140    0.0222346150    0.0006570930    
0.0201995750    0.0225033060    0.0006506999    
0.0204222360    0.0234080790    0.0006693489    
0.0206448970    0.0223029080    0.0006487132    
0.0208675580    0.0215929260    0.0006251601    
0.0210902190    0.0227127590    0.0006473525    
0.0213128800    0.0215081030    0.0006214035    
0.0215355410    0.0218050030    0.0006182241    
0.0217582020    0.0221731020    0.0006234207    
0.0219808630    0.0217652710    0.0006168498    
0.0222035240    0.0210636050    0.0006013266    
0.0224261850    0.0220393370    0.0006096222    
0.0226488460    0.0218258520    0.0006021068    
0.0228715070    0.0214530990    0.0005954601    
0.0230941680    0.0210068570    0.0005892347    
0.0233168290    0.0206299400    0.0005853790    
0.0235394900    0.0215904680    0.0005922425    
0.0237621510    0.0213973670    0.0005737158    
0.0239848120    0.0220173860    0.0005826418    
0.0242074730    0.0216359760    0.0005729500    
0.0244301340    0.0211227180    0.0005667593    
0.0246527950    0.0202300330    0.0005597898    
0.0248754560    0.0205446620    0.0005514476    
0.0250981170    0.0215433190    0.0005659505    
0.0253207780    0.0207658340    0.0005390542    
0.0255434390    0.0211114090    0.0005493220    
0.0257661000    0.0205289060    0.0005434428    
0.0259887610    0.0210947170    0.0005450267    
0.0262114220    0.0207935000    0.0005440045    
0.0264340830    0.0213393410    0.0005436003    
0.0266567440    0.0205293580    0.0005298891    
0.0268794050    0.0211218020    0.0005352870    
0.0271020660    0.0206012720    0.0005265098    
0.0273247270    0.0205938690    0.0005232536    
0.0275473880    0.0216375730    0.0005352819    
0.0277700490    0.0204141600    0.0005168556    
0.0279927100    0.0203295150    0.0005112827    
0.0282153710    0.0215144510    0.0005285292    
0.0284380320    0.0202133620    0.0005093288    
0.0286606930    0.0211934140    0.0005170664    
0.0288833540    0.0207674840    0.0005128165    
0.0291060150    0.0200202990    0.0005030289    
0.0293286760    0.0203264930    0.0004997982    
0.0295513370    0.0203911890    0.0004951418    
0.0297739980    0.0196751810    0.0004917259    
0.0299966590    0.0203029980    0.0004909781    
0.0302193200    0.0194813460    0.0004879494    
0.0304419810    0.0202645790    0.0004985774    
0.0306646420    0.0199477040    0.0004807024    
0.0308873030    0.0206255810    0.0004866907    
0.0311099640    0.0199363030    0.0004797317    
0.0313326250    0.0201518330    0.0004769748    
0.0315552860    0.0205037830    0.0004873572    
0.0317779470    0.0192978610    0.0004732200    
0.0320006080    0.0209910700    0.0004823303    
0.0322232690    0.0201278210    0.0004742856    
0.0324459300    0.0205330290    0.0004754596    
0.0326685910    0.0196533560    0.0004643965    
0.0328912520    0.0202255860    0.0004726688    
0.0331139130    0.0207573500    0.0004726131    
0.0333365740    0.0205024650    0.0004712277    
0.0335592350    0.0198976170    0.0004597611    
0.0337818960    0.0197174540    0.0004573105    
0.0340045570    0.0197183080    0.0004565940    
0.0342272170    0.0201714530    0.0004599891    
0.0344498780    0.0207438970    0.0004683180    
0.0346725390    0.0199724800    0.0004510173    
0.0348952000    0.0204065530    0.0004538152    
0.0351178610    0.0200539840    0.0004519369    
0.0353405220    0.0202854710    0.0004524672    
0.0355631830    0.0209442890    0.0004580244    
0.0357858440    0.0207640070    0.0004560490    
0.0360085050    0.0204865920    0.0004543610    
0.0362311660    0.0200811420    0.0004444950    
0.0364538270    0.0197310450    0.0004370670    
0.0366764880    0.0199441090    0.0004391016    
0.0368991490    0.0200880660    0.0004384619    
0.0371218100    0.0197639460    0.0004336660    
0.0373444710    0.0205565340    0.0004470925    
0.0375671320    0.0203027890    0.0004436775    
0.0377897930    0.0196976390    0.0004257021    
0.0380124540    0.0197872220    0.0004293461    
0.0382351150    0.0201412440    0.0004331701    
0.0384577760    0.0193889730    0.0004209031    
0.0386804370    0.0200385620    0.0004311612    
0.0389030980    0.0198001700    0.0004253432    
0.0391257590    0.0203344530    0.0004281175    
0.0393484200    0.0198038820    0.0004210734    
0.0395710810    0.0203779460    0.0004277081    
0.0397937420    0.0201445560    0.0004252519    
0.0400164030    0.0203902450    0.0004295778    
0.0402390640    0.0196746180    0.0004163532    
0.0404617250    0.0196695530    0.0004138437    
0.0406843860    0.0193681640    0.0004066932    
0.0409070470    0.0194424870    0.0004117176    
0.0411297080    0.0195469680    0.0004088286    
0.0413523690    0.0203612440    0.0004183327    
0.0415750300    0.0191526410    0.0004091735    
0.0417976910    0.0193526650    0.0004006669    
0.0420203520    0.0197825310    0.0004066144    
0.0422430130    0.0199241820    0.0004096124    
0.0424656740    0.0197206400    0.0004022108    
0.0426883350    0.0197926070    0.0004049440    
0.0429109960    0.0195746740    0.0004039666    
0.0431336570    0.0204937090    0.0004075174    
0.0433563180    0.0198677900    0.0004047073    
0.0435789790    0.0197436130    0.0003971023    
0.0438016400    0.0201043470    0.0004028935    
0.0440243010    0.0195244120    0.0003930116    
0.0442469620    0.0197671020    0.0003978162    
0.0444696230    0.0201502080    0.0004002124    
0.0446922840    0.0200544140    0.0003980743    
0.0449149450    0.0197910190    0.0003901650    
0.0451376060    0.0192029170    0.0003890707    
0.0453602670    0.0190725570    0.0003836830    
0.0455829280    0.0195290200    0.0003877982    
0.0458055890    0.0196483750    0.0003912498    
0.0460282500    0.0194359050    0.0003844363    
0.0462509110    0.0200359800    0.0003878981    
0.0464735720    0.0200059830    0.0003878265    
0.0466962330    0.0200896590    0.0003904034    
0.0469188940    0.0193648720    0.0003822097    
0.0471415550    0.0190993880    0.0003815302    
0.0473642160    0.0187979700    0.0003732078    
0.0475868770    0.0199981840    0.0003830254    
0.0478095380    0.0198599040    0.0003800286    
0.0480321990    0.0198520750    0.0003807862    
0.0482548600    0.0196287820    0.0003769889    
0.0484775210    0.0190900050    0.0003754705    
0.0487001820    0.0195031880    0.0003739566    
0.0489228430    0.0193747950    0.0003725233    
0.0491455040    0.0192419280    0.0003686761    
0.0493681650    0.0196531040    0.0003757963    
0.0495908260    0.0190181720    0.0003634562    
0.0498134870    0.0191766920    0.0003684420    
0.0500361480    0.0199344120    0.0003746567    
0.0502588090    0.0191638750    0.0003618403    
0.0504814700    0.0195279680    0.0003700364    
0.0507041310    0.0203260610    0.0003730337    
0.0509267920    0.0194177400    0.0003661119    
0.0511494530    0.0200927700    0.0003699379    
0.0513721140    0.0197966570    0.0003704356    
0.0515947750    0.0194911500    0.0003626928    
0.0518174360    0.0196037740    0.0003615480    
0.0520400970    0.0193262850    0.0003564910    
0.0522627580    0.0197364260    0.0003633155    
0.0524854190    0.0200382800    0.0003690598    
0.0527080800    0.0195628430    0.0003674786    
0.0529307410    0.0197261280    0.0003707421    
0.0531534020    0.0193199020    0.0003655691    
0.0533760630    0.0189190010    0.0003628887    
0.0535987240    0.0196529990    0.0003681344    
0.0538213850    0.0194830040    0.0003707855    
0.0540440460    0.0200749030    0.0003745944    
0.0542667070    0.0205155450    0.0003812929    
0.0544893680    0.0189483350    0.0003666352    
0.0547120290    0.0198021650    0.0003722369    
0.0549346900    0.0198790430    0.0003731550    
0.0551573510    0.0191953790    0.0003709988    
0.0553800120    0.0197092370    0.0003727359    
0.0556026730    0.0195949170    0.0003793591    
0.0558253340    0.0193046090    0.0003796914    
0.0560479950    0.0197452360    0.0003840003    
0.0562706560    0.0188803400    0.0003791263    
0.0564933170    0.0198680630    0.0003922942    
0.0567159780    0.0193869350    0.0003828690    
0.0569386390    0.0199140880    0.0003941259    
0.0571613000    0.0190956210    0.0003776317    
0.0573839610    0.0194995960    0.0003784368    
0.0576066220    0.0193861510    0.0003783789    
0.0578292830    0.0190599850    0.0003739409    
0.0580519440    0.0190010690    0.0003748103    
0.0582746050    0.0201896070    0.0003846512    
0.0584972660    0.0191699300    0.0003733772    
0.0587199270    0.0201631430    0.0003796266    
0.0589425880    0.0195676910    0.0003717917    
0.0591652490    0.0199916440    0.0003780091    
0.0593879100    0.0195549700    0.0003710814    
0.0596105710    0.0197175170    0.0003722274    
0.0598332320    0.0192983950    0.0003713978    
0.0600558930    0.0186790910    0.0003630603    
0.0602785540    0.0193649250    0.0003692746    
0.0605012150    0.0193745670    0.0003685883    
0.0607238760    0.0199846460    0.0003716185    
0.0609465370    0.0195494550    0.0003704436    
0.0611691980    0.0203790310    0.0003788212    
0.0613918590    0.0193371540    0.0003649819    
0.0616145200    0.0194395040    0.0003686249    
0.0618371810    0.0199093660    0.0003693893    
0.0620598420    0.0189615010    0.0003608606    
0.0622825030    0.0194326150    0.0003709028    
0.0625051640    0.0196476110    0.0003677111    
0.0627278250    0.0187375030    0.0003583542    
0.0629504860    0.0194859180    0.0003624699    
0.0631731470    0.0197775760    0.0003696905    
0.0633958080    0.0191950200    0.0003663012    
0.0636184690    0.0194387790    0.0003737536    
0.0638411300    0.0189436260    0.0003675776    
0.0640637910    0.0195871590    0.0003763978    
0.0642864520    0.0196177090    0.0003758761    
0.0645091130    0.0196185950    0.0003791785    
0.0647317740    0.0197059460    0.0003804407    
0.0649544350    0.0194867250    0.0003779024    
0.0651770960    0.0198908580    0.0003797182    
0.0653997570    0.0198479840    0.0003784862    
0.0656224180    0.0192819980    0.0003738619    
0.0658450790    0.0192950470    0.0003686129    
0.0660677400    0.0190122040    0.0003674585    
0.0662904010    0.0192943090    0.0003745938    
0.0665130620    0.0195021840    0.0003749727    
0.0667357230    0.0196193080    0.0003827839    
0.0669583840    0.0194140600    0.0003795024    
0.0671810450    0.0198605790    0.0003817225    
0.0674037060    0.0200308520    0.0003898499    
0.0676263670    0.0199031080    0.0003857597    
0.0678490280    0.0202069430    0.0003863159    
0.0680716890    0.0201708620    0.0003868297    
0.0682943500    0.0195790390    0.0003769384    
0.0685170110    0.0195304260    0.0003726339    
0.0687396720    0.0192994890    0.0003694401    
0.0689623330    0.0195076450    0.0003702500    
0.0691849940    0.0197860230    0.0003754660    
0.0694076550    0.0198360820    0.0003757400    
0.0696303160    0.0199015100    0.0003733794    
0.0698529770    0.0193368490    0.0003672731    
0.0700756380    0.0194621880    0.0003637316    
0.0702982990    0.0199925920    0.0003726694    
0.0705209600    0.0198624290    0.0003687725    
0.0707436210    0.0194429750    0.0003631823    
0.0709662820    0.0200135080    0.0003728650    
0.0711889430    0.0197011070    0.0003653996    
0.0714116040    0.0194413850    0.0003637241    
0.0716342650    0.0196145650    0.0003638571    
0.0718569260    0.0198117410    0.0003642086    
0.0720795870    0.0193783750    0.0003616602    
0.0723022480    0.0202769960    0.0003705145    
0.0725249090    0.0199858990    0.0003634401    
0.0727475700    0.0200128150    0.0003667911    
0.0729702310    0.0198007120    0.0003619324    
0.0731928920    0.0190790390    0.0003566954    
0.0734155530    0.0197867400    0.0003625259    
0.0736382140    0.0196778450    0.0003592068    
0.0738608750    0.0195078240    0.0003599622    
0.0740835360    0.0191467180    0.0003557297    
0.0743061970    0.0195877990    0.0003547374    
0.0745288580    0.0193697640    0.0003563847    
0.0747515190    0.0193607700    0.0003570057    
0.0749741800    0.0191009280    0.0003513195    
0.0751968410    0.0194086150    0.0003569184    
0.0754195020    0.0193764690    0.0003545333    
0.0756421630    0.0195906260    0.0003535730    
0.0758648240    0.0203774280    0.0003614701    
0.0760874850    0.0190062230    0.0003489290    
0.0763101460    0.0196283080    0.0003542531    
0.0765328070    0.0197710470    0.0003591769    
0.0767554680    0.0187827120    0.0003477088    
0.0769781290    0.0197319060    0.0003543384    
0.0772007900    0.0196232940    0.0003505278    
0.0774234510    0.0191822120    0.0003485371    
0.0776461120    0.0194176360    0.0003503368    
0.0778687730    0.0195972330    0.0003507905    
0.0780914340    0.0197827530    0.0003549654    
0.0783140950    0.0198817270    0.0003502063    
0.0785367560    0.0192669010    0.0003503073    
0.0787594170    0.0197989830    0.0003519298    
0.0789820780    0.0196709040    0.0003489922    
0.0792047390    0.0188773730    0.0003429983    
0.0794274000    0.0194336430    0.0003494898    
0.0796500610    0.0200607200    0.0003516179    
0.0798727220    0.0193716240    0.0003452071    
0.0800953830    0.0199990670    0.0003499465    
0.0803180440    0.0199992670    0.0003523861    
0.0805407050    0.0195096710    0.0003477223    
0.0807633660    0.0189476610    0.0003423593    
0.0809860270    0.0202386900    0.0003525241    
0.0812086880    0.0194800470    0.0003428651    
0.0814313490    0.0189517120    0.0003397259    
0.0816540100    0.0199021500    0.0003473478    
0.0818766710    0.0193719700    0.0003434725    
0.0820993320    0.0197322350    0.0003460199    
0.0823219930    0.0194609710    0.0003450505    
0.0825446540    0.0192937680    0.0003410688    
0.0827673150    0.0197670700    0.0003429076    
0.0829899760    0.0192877630    0.0003381217    
0.0832126370    0.0200111490    0.0003459466    
0.0834352980    0.0195704820    0.0003413514    
0.0836579590    0.0187425250    0.0003333091    
0.0838806200    0.0193908570    0.0003400858    
0.0841032810    0.0191331840    0.0003357216    
0.0843259420    0.0196361020    0.0003390578    
0.0845486030    0.0195775870    0.0003385525    
0.0847712640    0.0197676650    0.0003381188    
0.0849939250    0.0192910380    0.0003345993    
0.0852165860    0.0197896570    0.0003393399    
0.0854392470    0.0197934160    0.0003361583    
0.0856619080    0.0188578240    0.0003305340    
0.0858845690    0.0196405200    0.0003342855    
0.0861072300    0.0202645020    0.0003418982    
0.0863298910    0.0195271560    0.0003373779    
0.0865525520    0.0202111000    0.0003402716    
0.0867752130    0.0194916800    0.0003314643    
0.0869978740    0.0196534780    0.0003336854    
0.0872205350    0.0195808950    0.0003326449    
0.0874431960    0.0197843640    0.0003343690    
0.0876658570    0.0194468520    0.0003327775    
0.0878885180    0.0194393120    0.0003332834    
0.0881111790    0.0192640670    0.0003313520    
0.0883338400    0.0195286240    0.0003287349    
0.0885565010    0.0197435090    0.0003350209    
0.0887791620    0.0198993750    0.0003319792    
0.0890018230    0.0196266560    0.0003328943    
0.0892244840    0.0198577450    0.0003354177    
0.0894471450    0.0199487600    0.0003347654    
0.0896698060    0.0193748120    0.0003286700    
0.0898924670    0.0192340900    0.0003289922    
0.0901151280    0.0193329200    0.0003262737    
0.0903377890    0.0195794890    0.0003310957    
0.0905604500    0.0193280710    0.0003274534    
0.0907831110    0.0197012310    0.0003297768    
0.0910057720    0.0195872050    0.0003303300    
0.0912284330    0.0196365290    0.0003260101    
0.0914510940    0.0196065360    0.0003293937    
0.0916737550    0.0197791610    0.0003300196    
0.0918964160    0.0192943950    0.0003273058    
0.0921190770    0.0198139940    0.0003286848    
0.0923417380    0.0191754310    0.0003234776    
0.0925643990    0.0201514420    0.0003307963    
0.0927870600    0.0198243250    0.0003294459    
0.0930097210    0.0192028360    0.0003214792    
0.0932323820    0.0193496550    0.0003250780    
