# Diamond Light Source Ltd.
# Data extracted from: /dls/b21/data/2018/cm19678-3/processed/b21-386631_00605.dat
q(1/A)          Column          Error           
0.0035000000    2.0790711000    0.0245293580    
0.0037226610    1.8501655000    0.0226524460    
0.0039453220    1.6023247000    0.0191774880    
0.0041679830    1.2625241000    0.0139798040    
0.0043906440    0.9579364700    0.0116475590    
0.0046133050    0.7769565100    0.0100699840    
0.0048359660    0.5760594500    0.0082018485    
0.0050586270    0.4512726900    0.0071352478    
0.0052812880    0.4285227700    0.0065740128    
0.0055039490    0.3900758600    0.0059638771    
0.0057266100    0.3112234900    0.0051535261    
0.0059492710    0.2603627500    0.0047136545    
0.0061719320    0.2181515100    0.0041577188    
0.0063945930    0.1965225000    0.0039940627    
0.0066172539    0.1865904700    0.0036544242    
0.0068399149    0.1642575200    0.0033747588    
0.0070625759    0.1437892000    0.0031251139    
0.0072852369    0.1283146200    0.0029079917    
0.0075078979    0.1109380100    0.0026906419    
0.0077305589    0.1023560200    0.0025352431    
0.0079532199    0.0941650200    0.0023979903    
0.0081758809    0.0921926320    0.0023948158    
0.0083985419    0.0857199520    0.0021537948    
0.0086212029    0.0757625960    0.0020248405    
0.0088438639    0.0726866460    0.0019673802    
0.0090665249    0.0663641780    0.0018156431    
0.0092891859    0.0648311660    0.0018730761    
0.0095118469    0.0605572190    0.0017408977    
0.0097345079    0.0579710980    0.0016542927    
0.0099571689    0.0546087610    0.0015724928    
0.0101798300    0.0519371980    0.0015335460    
0.0104024910    0.0465490840    0.0014469082    
0.0106251520    0.0467299110    0.0014546386    
0.0108478130    0.0462505260    0.0014093174    
0.0110704740    0.0432854000    0.0012980429    
0.0112931350    0.0424436970    0.0012891355    
0.0115157960    0.0406730930    0.0012546016    
0.0117384570    0.0381501200    0.0012046072    
0.0119611180    0.0381398530    0.0012079013    
0.0121837790    0.0371273890    0.0011717300    
0.0124064400    0.0355229410    0.0010983559    
0.0126291010    0.0357321200    0.0010877975    
0.0128517620    0.0350454690    0.0010799849    
0.0130744230    0.0321994940    0.0010275271    
0.0132970840    0.0319503000    0.0010185383    
0.0135197450    0.0317042440    0.0010000791    
0.0137424060    0.0319012360    0.0009892153    
0.0139650670    0.0291470450    0.0009244882    
0.0141877280    0.0303363210    0.0009452448    
0.0144103890    0.0298965510    0.0009221886    
0.0146330500    0.0282261770    0.0008903669    
0.0148557110    0.0282127880    0.0008864235    
0.0150783720    0.0274196800    0.0008666532    
0.0153010330    0.0276370720    0.0008578144    
0.0155236940    0.0268357950    0.0008402613    
0.0157463550    0.0262442380    0.0008165519    
0.0159690160    0.0261714920    0.0008123250    
0.0161916770    0.0265754800    0.0008139590    
0.0164143380    0.0263216370    0.0008161993    
0.0166369990    0.0252227700    0.0007743460    
0.0168596600    0.0260648300    0.0007802303    
0.0170823210    0.0248120920    0.0007546586    
0.0173049820    0.0242069850    0.0007466883    
0.0175276430    0.0237558670    0.0007474983    
0.0177503040    0.0241460180    0.0007344000    
0.0179729650    0.0253992350    0.0007457472    
0.0181956260    0.0236342670    0.0007055791    
0.0184182870    0.0231616130    0.0006951961    
0.0186409480    0.0235402620    0.0007052916    
0.0188636090    0.0242049450    0.0007106817    
0.0190862700    0.0228604440    0.0006895818    
0.0193089310    0.0241163610    0.0007071669    
0.0195315920    0.0238777800    0.0006797299    
0.0197542530    0.0231323380    0.0006700102    
0.0199769140    0.0225307500    0.0006612406    
0.0201995750    0.0221691090    0.0006456414    
0.0204222360    0.0231251690    0.0006650768    
0.0206448970    0.0230616180    0.0006594419    
0.0208675580    0.0226823420    0.0006405295    
0.0210902190    0.0227902770    0.0006482468    
0.0213128800    0.0219786330    0.0006279609    
0.0215355410    0.0224740700    0.0006274345    
0.0217582020    0.0216157540    0.0006153367    
0.0219808630    0.0218560330    0.0006179348    
0.0222035240    0.0216847550    0.0006099314    
0.0224261850    0.0213847350    0.0006003065    
0.0226488460    0.0213303640    0.0005950407    
0.0228715070    0.0212905840    0.0005930088    
0.0230941680    0.0226119630    0.0006111341    
0.0233168290    0.0211311960    0.0005922566    
0.0235394900    0.0215278120    0.0005911914    
0.0237621510    0.0211836960    0.0005706596    
0.0239848120    0.0211402910    0.0005707342    
0.0242074730    0.0207425600    0.0005608146    
0.0244301340    0.0209267030    0.0005639412    
0.0246527950    0.0208206840    0.0005677196    
0.0248754560    0.0212561990    0.0005607344    
0.0250981170    0.0211876630    0.0005610781    
0.0253207780    0.0208223380    0.0005396127    
0.0255434390    0.0212834630    0.0005513777    
0.0257661000    0.0198974410    0.0005348465    
0.0259887610    0.0206307570    0.0005388256    
0.0262114220    0.0211214210    0.0005481001    
0.0264340830    0.0207996790    0.0005365092    
0.0266567440    0.0199693620    0.0005224432    
0.0268794050    0.0209590280    0.0005330481    
0.0271020660    0.0209510410    0.0005307890    
0.0273247270    0.0217763350    0.0005378923    
0.0275473880    0.0198635320    0.0005127033    
0.0277700490    0.0209240710    0.0005231018    
0.0279927100    0.0201107740    0.0005083603    
0.0282153710    0.0206830880    0.0005180494    
0.0284380320    0.0197770570    0.0005036391    
0.0286606930    0.0204106950    0.0005072644    
0.0288833540    0.0213108820    0.0005193144    
0.0291060150    0.0207146950    0.0005115129    
0.0293286760    0.0203502030    0.0004999280    
0.0295513370    0.0213152100    0.0005060726    
0.0297739980    0.0208906050    0.0005065226    
0.0299966590    0.0204203990    0.0004922365    
0.0302193200    0.0203603650    0.0004986752    
0.0304419810    0.0198224290    0.0004929488    
0.0306646420    0.0207335970    0.0004899219    
0.0308873030    0.0198318350    0.0004770798    
0.0311099640    0.0202810510    0.0004837055    
0.0313326250    0.0197213690    0.0004717005    
0.0315552860    0.0197727880    0.0004784361    
0.0317779470    0.0199696010    0.0004812301    
0.0320006080    0.0201689760    0.0004726382    
0.0322232690    0.0206620820    0.0004803836    
0.0324459300    0.0200686580    0.0004699005    
0.0326685910    0.0200683430    0.0004691222    
0.0328912520    0.0208859000    0.0004801673    
0.0331139130    0.0206041400    0.0004707136    
0.0333365740    0.0204026280    0.0004699270    
0.0335592350    0.0196087310    0.0004562638    
0.0337818960    0.0203936910    0.0004649361    
0.0340045570    0.0206036760    0.0004665814    
0.0342272170    0.0213010440    0.0004725405    
0.0344498780    0.0202127590    0.0004621342    
0.0346725390    0.0200002880    0.0004511853    
0.0348952000    0.0192032500    0.0004400898    
0.0351178610    0.0193794390    0.0004441276    
0.0353405220    0.0208169940    0.0004582085    
0.0355631830    0.0202701020    0.0004504467    
0.0357858440    0.0197696180    0.0004448512    
0.0360085050    0.0202618740    0.0004517162    
0.0362311660    0.0194880480    0.0004377403    
0.0364538270    0.0198731010    0.0004384958    
0.0366764880    0.0201920770    0.0004416801    
0.0368991490    0.0195777520    0.0004327169    
0.0371218100    0.0197321570    0.0004331771    
0.0373444710    0.0191827720    0.0004317554    
0.0375671320    0.0198633360    0.0004387077    
0.0377897930    0.0206503090    0.0004357342    
0.0380124540    0.0207333670    0.0004393491    
0.0382351150    0.0196906610    0.0004281590    
0.0384577760    0.0200612860    0.0004280000    
0.0386804370    0.0196547700    0.0004268743    
0.0389030980    0.0207278940    0.0004350531    
0.0391257590    0.0200600920    0.0004250821    
0.0393484200    0.0194332010    0.0004169792    
0.0395710810    0.0199072450    0.0004226029    
0.0397937420    0.0200507990    0.0004241241    
0.0400164030    0.0201419150    0.0004268160    
0.0402390640    0.0193449200    0.0004127166    
0.0404617250    0.0195002160    0.0004119253    
0.0406843860    0.0198164980    0.0004112404    
0.0409070470    0.0196128970    0.0004133843    
0.0411297080    0.0204743110    0.0004182788    
0.0413523690    0.0200818190    0.0004153180    
0.0415750300    0.0196644180    0.0004144702    
0.0417976910    0.0204261280    0.0004114961    
0.0420203520    0.0199117370    0.0004078083    
0.0422430130    0.0191370730    0.0004013103    
0.0424656740    0.0193881770    0.0003986772    
0.0426883350    0.0198460550    0.0004053593    
0.0429109960    0.0188038730    0.0003958052    
0.0431336570    0.0190227830    0.0003924936    
0.0433563180    0.0192370600    0.0003981028    
0.0435789790    0.0199942540    0.0003994858    
0.0438016400    0.0194781260    0.0003964410    
0.0440243010    0.0196857270    0.0003945043    
0.0442469620    0.0201543770    0.0004015645    
0.0444696230    0.0199147660    0.0003977389    
0.0446922840    0.0194965940    0.0003923722    
0.0449149450    0.0190479820    0.0003826470    
0.0451376060    0.0199231520    0.0003961719    
0.0453602670    0.0193996310    0.0003868339    
0.0455829280    0.0201397580    0.0003936882    
0.0458055890    0.0195111080    0.0003897547    
0.0460282500    0.0199324880    0.0003891906    
0.0462509110    0.0196102660    0.0003836311    
0.0464735720    0.0199329500    0.0003869929    
0.0466962330    0.0198037330    0.0003874900    
0.0469188940    0.0196463770    0.0003848533    
0.0471415550    0.0207398370    0.0003974491    
0.0473642160    0.0199853920    0.0003846903    
0.0475868770    0.0192008080    0.0003751904    
0.0478095380    0.0202540430    0.0003836571    
0.0480321990    0.0197735550    0.0003799096    
0.0482548600    0.0202456090    0.0003827428    
0.0484775210    0.0194761980    0.0003791268    
0.0487001820    0.0198990290    0.0003776104    
0.0489228430    0.0202498630    0.0003807199    
0.0491455040    0.0197165860    0.0003730751    
0.0493681650    0.0194608770    0.0003738331    
0.0495908260    0.0197763920    0.0003705108    
0.0498134870    0.0195321660    0.0003717211    
0.0500361480    0.0191756180    0.0003673382    
0.0502588090    0.0189808020    0.0003599914    
0.0504814700    0.0191579780    0.0003663957    
0.0507041310    0.0202787190    0.0003724787    
0.0509267920    0.0205779210    0.0003767687    
0.0511494530    0.0197462590    0.0003666156    
0.0513721140    0.0196799590    0.0003692229    
0.0515947750    0.0194920460    0.0003625839    
0.0518174360    0.0198110070    0.0003633366    
0.0520400970    0.0196029460    0.0003589176    
0.0522627580    0.0192758650    0.0003589354    
0.0524854190    0.0193596340    0.0003626392    
0.0527080800    0.0192466720    0.0003643792    
0.0529307410    0.0196367840    0.0003697820    
0.0531534020    0.0198258780    0.0003702055    
0.0533760630    0.0195189160    0.0003684783    
0.0535987240    0.0200055410    0.0003713016    
0.0538213850    0.0185395590    0.0003615797    
0.0540440460    0.0194681770    0.0003687710    
0.0542667070    0.0200773710    0.0003770772    
0.0544893680    0.0202051150    0.0003784765    
0.0547120290    0.0194327420    0.0003686293    
0.0549346900    0.0194671950    0.0003691500    
0.0551573510    0.0196774200    0.0003755069    
0.0553800120    0.0194499440    0.0003701563    
0.0556026730    0.0194574810    0.0003779042    
0.0558253340    0.0191204840    0.0003777542    
0.0560479950    0.0190384090    0.0003769428    
0.0562706560    0.0191268170    0.0003814697    
0.0564933170    0.0193830350    0.0003873510    
0.0567159780    0.0197748940    0.0003865559    
0.0569386390    0.0198622450    0.0003934854    
0.0571613000    0.0194265880    0.0003807671    
0.0573839610    0.0196411310    0.0003796850    
0.0576066220    0.0200673850    0.0003848453    
0.0578292830    0.0191356500    0.0003745614    
0.0580519440    0.0198828170    0.0003832843    
0.0582746050    0.0196492620    0.0003793463    
0.0584972660    0.0196008710    0.0003774287    
0.0587199270    0.0196858260    0.0003749851    
0.0589425880    0.0186514210    0.0003628654    
0.0591652490    0.0201144430    0.0003790458    
0.0593879100    0.0191975120    0.0003675554    
0.0596105710    0.0197258440    0.0003721857    
0.0598332320    0.0196859300    0.0003749871    
0.0600558930    0.0195908530    0.0003716954    
0.0602785540    0.0197183500    0.0003725088    
0.0605012150    0.0206934960    0.0003808046    
0.0607238760    0.0197783690    0.0003695762    
0.0609465370    0.0195648840    0.0003704700    
0.0611691980    0.0196550990    0.0003719116    
0.0613918590    0.0192626990    0.0003641609    
0.0616145200    0.0193570870    0.0003677238    
0.0618371810    0.0196841820    0.0003671757    
0.0620598420    0.0196561580    0.0003672925    
0.0622825030    0.0192785650    0.0003693103    
0.0625051640    0.0195798970    0.0003669583    
0.0627278250    0.0195335890    0.0003657693    
0.0629504860    0.0196485200    0.0003638615    
0.0631731470    0.0195576190    0.0003675102    
0.0633958080    0.0195808010    0.0003698443    
0.0636184690    0.0195985770    0.0003751654    
0.0638411300    0.0194089480    0.0003719445    
0.0640637910    0.0200660340    0.0003808481    
0.0642864520    0.0198857220    0.0003783127    
0.0645091130    0.0198402820    0.0003811916    
0.0647317740    0.0196418340    0.0003796986    
0.0649544350    0.0201406050    0.0003840663    
0.0651770960    0.0194650880    0.0003755109    
0.0653997570    0.0195827130    0.0003758270    
0.0656224180    0.0191970980    0.0003729174    
0.0658450790    0.0194233290    0.0003697168    
0.0660677400    0.0199935650    0.0003767010    
0.0662904010    0.0193254500    0.0003747748    
0.0665130620    0.0190500770    0.0003704811    
0.0667357230    0.0192036020    0.0003785845    
0.0669583840    0.0198166800    0.0003832935    
0.0671810450    0.0196351190    0.0003794270    
0.0674037060    0.0195477930    0.0003849960    
0.0676263670    0.0192775500    0.0003795264    
0.0678490280    0.0188358190    0.0003728586    
0.0680716890    0.0200392100    0.0003854407    
0.0682943500    0.0196751710    0.0003777406    
0.0685170110    0.0196243840    0.0003734085    
0.0687396720    0.0193082210    0.0003694043    
0.0689623330    0.0191930640    0.0003671339    
0.0691849940    0.0200153310    0.0003775134    
0.0694076550    0.0194107250    0.0003715694    
0.0696303160    0.0193566070    0.0003681134    
0.0698529770    0.0195892630    0.0003695430    
0.0700756380    0.0194156450    0.0003631790    
0.0702982990    0.0193548760    0.0003665591    
0.0705209600    0.0190900970    0.0003614149    
0.0707436210    0.0191999050    0.0003607883    
0.0709662820    0.0198061940    0.0003708089    
0.0711889430    0.0190720570    0.0003594026    
0.0714116040    0.0194356240    0.0003635527    
0.0716342650    0.0197907600    0.0003653696    
0.0718569260    0.0193372560    0.0003597045    
0.0720795870    0.0197570840    0.0003650591    
0.0723022480    0.0198173450    0.0003661725    
0.0725249090    0.0192530600    0.0003565993    
0.0727475700    0.0193683800    0.0003607206    
0.0729702310    0.0193581770    0.0003577494    
0.0731928920    0.0197064890    0.0003623962    
0.0734155530    0.0194619800    0.0003594223    
0.0736382140    0.0198027410    0.0003602285    
0.0738608750    0.0195350470    0.0003600968    
0.0740835360    0.0186654010    0.0003511165    
0.0743061970    0.0195045210    0.0003538681    
0.0745288580    0.0194752010    0.0003572379    
0.0747515190    0.0189206380    0.0003528104    
0.0749741800    0.0189852650    0.0003501410    
0.0751968410    0.0199208250    0.0003614805    
0.0754195020    0.0190787080    0.0003516850    
0.0756421630    0.0198968270    0.0003562103    
0.0758648240    0.0196017230    0.0003544088    
0.0760874850    0.0194740730    0.0003530833    
0.0763101460    0.0188425020    0.0003469774    
0.0765328070    0.0197061050    0.0003584706    
0.0767554680    0.0192465950    0.0003518626    
0.0769781290    0.0198717720    0.0003554771    
0.0772007900    0.0198734250    0.0003526407    
0.0774234510    0.0191571600    0.0003481969    
0.0776461120    0.0196009090    0.0003518725    
0.0778687730    0.0194841690    0.0003496641    
0.0780914340    0.0189870640    0.0003476412    
0.0783140950    0.0191784330    0.0003438453    
0.0785367560    0.0191780710    0.0003493859    
0.0787594170    0.0192235500    0.0003466658    
0.0789820780    0.0195096910    0.0003474469    
0.0792047390    0.0198679140    0.0003517685    
0.0794274000    0.0198670430    0.0003532512    
0.0796500610    0.0201647800    0.0003524148    
0.0798727220    0.0189595070    0.0003414050    
0.0800953830    0.0192456910    0.0003431810    
0.0803180440    0.0195706090    0.0003484765    
0.0805407050    0.0189334590    0.0003424382    
0.0807633660    0.0187994150    0.0003409072    
0.0809860270    0.0192253780    0.0003434746    
0.0812086880    0.0189970570    0.0003384785    
0.0814313490    0.0193411400    0.0003430877    
0.0816540100    0.0194470380    0.0003432424    
0.0818766710    0.0191038430    0.0003409770    
0.0820993320    0.0194223590    0.0003431812    
0.0823219930    0.0196440420    0.0003465577    
0.0825446540    0.0188113190    0.0003366688    
0.0827673150    0.0202714890    0.0003471430    
0.0829899760    0.0198143460    0.0003425955    
0.0832126370    0.0196396140    0.0003426093    
0.0834352980    0.0193912360    0.0003396748    
0.0836579590    0.0205252650    0.0003486881    
0.0838806200    0.0191816230    0.0003381367    
0.0841032810    0.0197154040    0.0003406812    
0.0843259420    0.0195181020    0.0003379283    
0.0845486030    0.0196175940    0.0003387887    
0.0847712640    0.0195815030    0.0003364142    
0.0849939250    0.0190523800    0.0003324157    
0.0852165860    0.0194047090    0.0003359147    
0.0854392470    0.0199232620    0.0003371501    
0.0856619080    0.0199920100    0.0003402187    
0.0858845690    0.0197586070    0.0003351806    
0.0861072300    0.0192425850    0.0003330583    
0.0863298910    0.0192698800    0.0003350397    
0.0865525520    0.0197056850    0.0003358815    
0.0867752130    0.0191861670    0.0003287501    
0.0869978740    0.0197030590    0.0003339981    
0.0872205350    0.0192632830    0.0003298295    
0.0874431960    0.0198337020    0.0003346775    
0.0876658570    0.0195139590    0.0003332435    
0.0878885180    0.0198950040    0.0003370582    
0.0881111790    0.0192231420    0.0003308929    
0.0883338400    0.0190348810    0.0003244477    
0.0885565010    0.0194864610    0.0003327254    
0.0887791620    0.0197260090    0.0003304231    
0.0890018230    0.0199243220    0.0003353009    
0.0892244840    0.0193749780    0.0003312083    
0.0894471450    0.0194474390    0.0003304254    
0.0896698060    0.0191728500    0.0003268469    
0.0898924670    0.0191316840    0.0003280092    
0.0901151280    0.0194469930    0.0003271291    
0.0903377890    0.0198298180    0.0003330979    
0.0905604500    0.0196371400    0.0003299544    
0.0907831110    0.0196333360    0.0003291017    
0.0910057720    0.0189899850    0.0003251500    
0.0912284330    0.0192614380    0.0003227771    
0.0914510940    0.0196657610    0.0003297842    
0.0916737550    0.0196123000    0.0003285184    
0.0918964160    0.0193984520    0.0003280812    
0.0921190770    0.0188367420    0.0003203731    
0.0923417380    0.0192721070    0.0003241873    
0.0925643990    0.0196066070    0.0003261884    
0.0927870600    0.0189634670    0.0003221094    
0.0930097210    0.0195561660    0.0003243185    
0.0932323820    0.0191788750    0.0003235357    
