# Diamond Light Source Ltd.
# Data extracted from: /dls/b21/data/2018/cm19678-3/processed/b21-386631_00617.dat
q(1/A)          Column          Error           
0.0035000000    2.1108766000    0.0247296670    
0.0037226610    1.8546705000    0.0226923000    
0.0039453220    1.6148616000    0.0192628010    
0.0041679830    1.2835737000    0.0141035020    
0.0043906440    0.9416784800    0.0115545550    
0.0046133050    0.7690450000    0.0100240130    
0.0048359660    0.5732938900    0.0081865719    
0.0050586270    0.4617007900    0.0072211302    
0.0052812880    0.4174777700    0.0064922554    
0.0055039490    0.3806405200    0.0058945002    
0.0057266100    0.3154052800    0.0051908456    
0.0059492710    0.2599616400    0.0047125751    
0.0061719320    0.2251308800    0.0042259939    
0.0063945930    0.2014488000    0.0040460050    
0.0066172539    0.1794128000    0.0035853889    
0.0068399149    0.1667956200    0.0034025754    
0.0070625759    0.1417692800    0.0031047677    
0.0072852369    0.1260126700    0.0028833511    
0.0075078979    0.1172645000    0.0027677976    
0.0077305589    0.1002668000    0.0025105959    
0.0079532199    0.0976905760    0.0024437922    
0.0081758809    0.0885560570    0.0023483805    
0.0083985419    0.0818039650    0.0021051637    
0.0086212029    0.0745445520    0.0020095864    
0.0088438639    0.0678611240    0.0019019839    
0.0090665249    0.0676793300    0.0018345392    
0.0092891859    0.0643597170    0.0018672648    
0.0095118469    0.0582180090    0.0017078679    
0.0097345079    0.0594517260    0.0016761935    
0.0099571689    0.0528094460    0.0015472078    
0.0101798300    0.0497723450    0.0015020588    
0.0104024910    0.0455189900    0.0014315847    
0.0106251520    0.0446500700    0.0014226695    
0.0108478130    0.0460427340    0.0014069102    
0.0110704740    0.0419684580    0.0012788369    
0.0112931350    0.0406866510    0.0012628544    
0.0115157960    0.0403297830    0.0012499727    
0.0117384570    0.0399430410    0.0012332564    
0.0119611180    0.0377216570    0.0012019119    
0.0121837790    0.0351315710    0.0011404191    
0.0124064400    0.0352214840    0.0010942783    
0.0126291010    0.0349089170    0.0010757768    
0.0128517620    0.0349835170    0.0010796148    
0.0130744230    0.0346634790    0.0010666948    
0.0132970840    0.0331226200    0.0010376182    
0.0135197450    0.0310754270    0.0009906484    
0.0137424060    0.0314445070    0.0009826408    
0.0139650670    0.0312334850    0.0009575239    
0.0141877280    0.0325215970    0.0009792286    
0.0144103890    0.0286475190    0.0009032085    
0.0146330500    0.0290440370    0.0009036637    
0.0148557110    0.0294422600    0.0009060229    
0.0150783720    0.0268461280    0.0008580060    
0.0153010330    0.0284666650    0.0008710658    
0.0155236940    0.0273916560    0.0008493792    
0.0157463550    0.0266033290    0.0008225648    
0.0159690160    0.0263008330    0.0008147712    
0.0161916770    0.0258306260    0.0008029061    
0.0164143380    0.0258434440    0.0008091896    
0.0166369990    0.0246551590    0.0007659985    
0.0168596600    0.0264671870    0.0007866555    
0.0170823210    0.0249768640    0.0007575706    
0.0173049820    0.0241871190    0.0007467864    
0.0175276430    0.0254534050    0.0007741641    
0.0177503040    0.0243287270    0.0007375729    
0.0179729650    0.0236512850    0.0007200191    
0.0181956260    0.0232381500    0.0007000205    
0.0184182870    0.0239805080    0.0007077623    
0.0186409480    0.0235657880    0.0007060563    
0.0188636090    0.0231658550    0.0006956368    
0.0190862700    0.0223854640    0.0006827502    
0.0193089310    0.0239971990    0.0007058000    
0.0195315920    0.0228963860    0.0006659754    
0.0197542530    0.0222249070    0.0006570932    
0.0199769140    0.0234488400    0.0006749440    
0.0201995750    0.0244519930    0.0006784372    
0.0204222360    0.0218098660    0.0006462360    
0.0206448970    0.0231243780    0.0006606965    
0.0208675580    0.0216204810    0.0006256957    
0.0210902190    0.0226857780    0.0006471095    
0.0213128800    0.0228825640    0.0006410914    
0.0215355410    0.0221652590    0.0006234466    
0.0217582020    0.0215690500    0.0006150047    
0.0219808630    0.0214949570    0.0006131414    
0.0222035240    0.0216395720    0.0006096259    
0.0224261850    0.0210367850    0.0005957254    
0.0226488460    0.0219849590    0.0006044296    
0.0228715070    0.0213302050    0.0005938820    
0.0230941680    0.0197428490    0.0005713571    
0.0233168290    0.0213867550    0.0005961501    
0.0235394900    0.0229651450    0.0006109394    
0.0237621510    0.0211758870    0.0005708637    
0.0239848120    0.0207775870    0.0005661237    
0.0242074730    0.0216454420    0.0005732007    
0.0244301340    0.0218165800    0.0005761189    
0.0246527950    0.0204248460    0.0005626017    
0.0248754560    0.0204499940    0.0005502960    
0.0250981170    0.0199612030    0.0005448920    
0.0253207780    0.0218528640    0.0005531041    
0.0255434390    0.0203341620    0.0005392330    
0.0257661000    0.0213150750    0.0005538719    
0.0259887610    0.0208362730    0.0005417962    
0.0262114220    0.0204323940    0.0005393781    
0.0264340830    0.0210854550    0.0005404751    
0.0266567440    0.0208941010    0.0005346926    
0.0268794050    0.0208324670    0.0005317243    
0.0271020660    0.0216603200    0.0005399914    
0.0273247270    0.0197782320    0.0005128992    
0.0275473880    0.0214218260    0.0005327230    
0.0277700490    0.0202267150    0.0005145897    
0.0279927100    0.0210073510    0.0005198502    
0.0282153710    0.0198871670    0.0005082593    
0.0284380320    0.0211594880    0.0005212266    
0.0286606930    0.0197386910    0.0004991143    
0.0288833540    0.0203711740    0.0005080109    
0.0291060150    0.0198267450    0.0005007009    
0.0293286760    0.0195731160    0.0004905558    
0.0295513370    0.0196423230    0.0004860710    
0.0297739980    0.0200157450    0.0004960718    
0.0299966590    0.0203712720    0.0004919105    
0.0302193200    0.0197344100    0.0004912159    
0.0304419810    0.0206538790    0.0005034537    
0.0306646420    0.0208603810    0.0004916839    
0.0308873030    0.0201750370    0.0004814510    
0.0311099640    0.0198757310    0.0004791072    
0.0313326250    0.0208157290    0.0004848741    
0.0315552860    0.0190177570    0.0004694669    
0.0317779470    0.0196313650    0.0004773959    
0.0320006080    0.0212996230    0.0004859686    
0.0322232690    0.0198123840    0.0004706574    
0.0324459300    0.0202666510    0.0004724687    
0.0326685910    0.0208366210    0.0004782767    
0.0328912520    0.0198586990    0.0004684646    
0.0331139130    0.0203465810    0.0004680158    
0.0333365740    0.0200996890    0.0004666781    
0.0335592350    0.0202676760    0.0004641182    
0.0337818960    0.0195987470    0.0004560315    
0.0340045570    0.0197798220    0.0004574057    
0.0342272170    0.0202537370    0.0004610272    
0.0344498780    0.0200548600    0.0004605751    
0.0346725390    0.0198895150    0.0004501780    
0.0348952000    0.0201832570    0.0004514242    
0.0351178610    0.0200321900    0.0004517901    
0.0353405220    0.0198601880    0.0004477970    
0.0355631830    0.0193401070    0.0004402306    
0.0357858440    0.0200616160    0.0004483672    
0.0360085050    0.0200116460    0.0004491615    
0.0362311660    0.0197946320    0.0004414092    
0.0364538270    0.0196137620    0.0004358614    
0.0366764880    0.0206008420    0.0004463702    
0.0368991490    0.0193500440    0.0004304263    
0.0371218100    0.0203533000    0.0004401807    
0.0373444710    0.0203904200    0.0004453798    
0.0375671320    0.0213495660    0.0004550709    
0.0377897930    0.0202677140    0.0004319128    
0.0380124540    0.0192739540    0.0004238338    
0.0382351150    0.0200568560    0.0004323562    
0.0384577760    0.0200830400    0.0004284641    
0.0386804370    0.0193976470    0.0004243028    
0.0389030980    0.0201013500    0.0004286597    
0.0391257590    0.0195949020    0.0004203521    
0.0393484200    0.0194811430    0.0004177196    
0.0395710810    0.0205754620    0.0004298699    
0.0397937420    0.0199827310    0.0004236330    
0.0400164030    0.0205349790    0.0004311940    
0.0402390640    0.0195069310    0.0004146658    
0.0404617250    0.0201398410    0.0004188535    
0.0406843860    0.0197098340    0.0004103545    
0.0409070470    0.0198871140    0.0004164898    
0.0411297080    0.0203510860    0.0004172443    
0.0413523690    0.0210408450    0.0004253498    
0.0415750300    0.0193796540    0.0004116813    
0.0417976910    0.0195105110    0.0004023855    
0.0420203520    0.0193982050    0.0004027333    
0.0422430130    0.0195032380    0.0004053510    
0.0424656740    0.0203037470    0.0004082031    
0.0426883350    0.0197764010    0.0004048667    
0.0429109960    0.0193497070    0.0004017264    
0.0431336570    0.0199757180    0.0004024223    
0.0433563180    0.0193981270    0.0003999827    
0.0435789790    0.0191929240    0.0003916108    
0.0438016400    0.0201858400    0.0004037976    
0.0440243010    0.0200394810    0.0003982489    
0.0442469620    0.0200480780    0.0004007212    
0.0444696230    0.0194353660    0.0003931354    
0.0446922840    0.0195177350    0.0003927976    
0.0449149450    0.0195919090    0.0003882823    
0.0451376060    0.0198343450    0.0003955022    
0.0453602670    0.0200152560    0.0003931368    
0.0455829280    0.0203002690    0.0003954681    
0.0458055890    0.0194309400    0.0003891640    
0.0460282500    0.0194368010    0.0003845292    
0.0462509110    0.0201123630    0.0003887218    
0.0464735720    0.0199921710    0.0003877774    
0.0466962330    0.0197189460    0.0003868692    
0.0469188940    0.0199469220    0.0003879961    
0.0471415550    0.0202590890    0.0003930286    
0.0473642160    0.0195548840    0.0003807307    
0.0475868770    0.0204252730    0.0003871785    
0.0478095380    0.0203051060    0.0003843486    
0.0480321990    0.0195830900    0.0003782804    
0.0482548600    0.0203327550    0.0003837735    
0.0484775210    0.0196007510    0.0003805433    
0.0487001820    0.0193323850    0.0003723969    
0.0489228430    0.0195982430    0.0003747473    
0.0491455040    0.0195471580    0.0003716700    
0.0493681650    0.0191944220    0.0003714663    
0.0495908260    0.0197422440    0.0003703914    
0.0498134870    0.0198224600    0.0003746762    
0.0500361480    0.0201192470    0.0003764720    
0.0502588090    0.0195823610    0.0003658497    
0.0504814700    0.0197820340    0.0003725172    
0.0507041310    0.0195678560    0.0003660902    
0.0509267920    0.0192950230    0.0003650330    
0.0511494530    0.0193179400    0.0003628142    
0.0513721140    0.0199509450    0.0003719577    
0.0515947750    0.0197359970    0.0003650435    
0.0518174360    0.0189519350    0.0003555641    
0.0520400970    0.0200452380    0.0003631408    
0.0522627580    0.0198521170    0.0003644585    
0.0524854190    0.0194758290    0.0003639229    
0.0527080800    0.0198545460    0.0003702892    
0.0529307410    0.0197905250    0.0003714280    
0.0531534020    0.0198127740    0.0003702837    
0.0533760630    0.0196793550    0.0003701901    
0.0535987240    0.0193097580    0.0003649853    
0.0538213850    0.0196256600    0.0003722219    
0.0540440460    0.0188948880    0.0003634977    
0.0542667070    0.0195957770    0.0003727293    
0.0544893680    0.0196095670    0.0003730590    
0.0547120290    0.0188517880    0.0003632740    
0.0549346900    0.0198877400    0.0003733183    
0.0551573510    0.0195481110    0.0003744739    
0.0553800120    0.0197742770    0.0003734321    
0.0556026730    0.0198239190    0.0003816529    
0.0558253340    0.0197837400    0.0003844585    
0.0560479950    0.0195297390    0.0003819827    
0.0562706560    0.0187972030    0.0003783735    
0.0564933170    0.0188306100    0.0003819981    
0.0567159780    0.0197585140    0.0003866052    
0.0569386390    0.0198603720    0.0003936801    
0.0571613000    0.0187901830    0.0003746813    
0.0573839610    0.0197873390    0.0003813021    
0.0576066220    0.0195941200    0.0003804863    
0.0578292830    0.0197362290    0.0003806000    
0.0580519440    0.0194161980    0.0003789654    
0.0582746050    0.0196852310    0.0003798992    
0.0584972660    0.0198403910    0.0003799336    
0.0587199270    0.0187561370    0.0003662218    
0.0589425880    0.0191168820    0.0003675644    
0.0591652490    0.0197644190    0.0003759370    
0.0593879100    0.0185561140    0.0003615590    
0.0596105710    0.0201549730    0.0003764162    
0.0598332320    0.0198574410    0.0003768212    
0.0600558930    0.0194709000    0.0003707566    
0.0602785540    0.0191479620    0.0003672805    
0.0605012150    0.0190603440    0.0003656671    
0.0607238760    0.0198827760    0.0003707512    
0.0609465370    0.0199512750    0.0003743131    
0.0611691980    0.0193523460    0.0003692362    
0.0613918590    0.0198142640    0.0003695379    
0.0616145200    0.0193011520    0.0003673912    
0.0618371810    0.0196575300    0.0003671260    
0.0620598420    0.0193201990    0.0003643375    
0.0622825030    0.0198448120    0.0003748978    
0.0625051640    0.0197870190    0.0003690940    
0.0627278250    0.0192325130    0.0003631363    
0.0629504860    0.0196900620    0.0003644434    
0.0631731470    0.0199798040    0.0003716570    
0.0633958080    0.0197418970    0.0003715639    
0.0636184690    0.0197132900    0.0003764657    
0.0638411300    0.0191160310    0.0003693273    
0.0640637910    0.0193352240    0.0003740511    
0.0642864520    0.0194605780    0.0003744497    
0.0645091130    0.0196931640    0.0003799815    
0.0647317740    0.0189871200    0.0003735191    
0.0649544350    0.0195832330    0.0003789199    
0.0651770960    0.0197110070    0.0003780803    
0.0653997570    0.0196183880    0.0003763730    
0.0656224180    0.0195877680    0.0003768970    
0.0658450790    0.0192893990    0.0003686396    
0.0660677400    0.0195818300    0.0003730042    
0.0662904010    0.0192881980    0.0003746164    
0.0665130620    0.0200733180    0.0003805069    
0.0667357230    0.0198819260    0.0003854216    
0.0669583840    0.0195784100    0.0003811887    
0.0671810450    0.0195976900    0.0003792707    
0.0674037060    0.0191970410    0.0003817332    
0.0676263670    0.0199866150    0.0003866527    
0.0678490280    0.0198611210    0.0003830797    
0.0680716890    0.0190738490    0.0003762459    
0.0682943500    0.0194424040    0.0003757030    
0.0685170110    0.0193967140    0.0003714374    
0.0687396720    0.0197253630    0.0003735757    
0.0689623330    0.0197763010    0.0003728724    
0.0691849940    0.0192885860    0.0003707972    
0.0694076550    0.0191611950    0.0003693735    
0.0696303160    0.0193775960    0.0003685126    
0.0698529770    0.0203432810    0.0003767920    
0.0700756380    0.0192938820    0.0003622346    
0.0702982990    0.0195982550    0.0003690565    
0.0705209600    0.0195560310    0.0003659971    
0.0707436210    0.0192139370    0.0003611157    
0.0709662820    0.0194315340    0.0003674841    
0.0711889430    0.0193300410    0.0003620213    
0.0714116040    0.0194022360    0.0003634372    
0.0716342650    0.0194678350    0.0003625729    
0.0718569260    0.0193783180    0.0003602814    
0.0720795870    0.0199203130    0.0003667627    
0.0723022480    0.0193985720    0.0003624793    
0.0725249090    0.0194326240    0.0003584525    
0.0727475700    0.0195306150    0.0003624246    
0.0729702310    0.0197762820    0.0003617882    
0.0731928920    0.0189539550    0.0003556020    
0.0734155530    0.0198086870    0.0003628062    
0.0736382140    0.0197258140    0.0003597230    
0.0738608750    0.0197821590    0.0003625637    
0.0740835360    0.0204576680    0.0003677867    
0.0743061970    0.0196992030    0.0003558225    
0.0745288580    0.0194963180    0.0003576253    
0.0747515190    0.0199092880    0.0003621068    
0.0749741800    0.0195230170    0.0003552577    
0.0751968410    0.0198833280    0.0003613359    
0.0754195020    0.0198002910    0.0003584681    
0.0756421630    0.0195481240    0.0003532665    
0.0758648240    0.0191226210    0.0003502406    
0.0760874850    0.0197643530    0.0003558979    
0.0763101460    0.0195665350    0.0003537726    
0.0765328070    0.0193553800    0.0003554589    
0.0767554680    0.0198341550    0.0003573867    
0.0769781290    0.0190339280    0.0003480910    
0.0772007900    0.0198198050    0.0003523556    
0.0774234510    0.0192222830    0.0003489773    
0.0776461120    0.0195842220    0.0003519133    
0.0778687730    0.0195555510    0.0003504939    
0.0780914340    0.0191733250    0.0003495315    
0.0783140950    0.0193041430    0.0003451574    
0.0785367560    0.0196194190    0.0003535748    
0.0787594170    0.0201581120    0.0003551849    
0.0789820780    0.0193140430    0.0003458877    
0.0792047390    0.0196899400    0.0003503792    
0.0794274000    0.0196936610    0.0003518970    
0.0796500610    0.0191816300    0.0003439026    
0.0798727220    0.0188200520    0.0003403315    
0.0800953830    0.0197198910    0.0003475714    
0.0803180440    0.0192874550    0.0003461339    
0.0805407050    0.0194190040    0.0003469893    
0.0807633660    0.0194386680    0.0003468427    
0.0809860270    0.0189329290    0.0003410370    
0.0812086880    0.0193617860    0.0003418975    
0.0814313490    0.0195692590    0.0003452921    
0.0816540100    0.0190860400    0.0003402260    
0.0818766710    0.0197581850    0.0003469553    
0.0820993320    0.0199958240    0.0003483995    
0.0823219930    0.0192246630    0.0003430242    
0.0825446540    0.0200863610    0.0003480801    
0.0827673150    0.0195436230    0.0003410386    
0.0829899760    0.0193673620    0.0003388928    
0.0832126370    0.0192181500    0.0003390969    
0.0834352980    0.0197041310    0.0003425899    
0.0836579590    0.0191361770    0.0003368648    
0.0838806200    0.0189159980    0.0003359693    
0.0841032810    0.0193890760    0.0003380330    
0.0843259420    0.0194221240    0.0003372791    
0.0845486030    0.0192581540    0.0003358526    
0.0847712640    0.0199036050    0.0003393536    
0.0849939250    0.0195143030    0.0003366036    
0.0852165860    0.0190473650    0.0003329877    
0.0854392470    0.0191395320    0.0003306314    
0.0856619080    0.0196891110    0.0003378145    
0.0858845690    0.0191425170    0.0003300925    
0.0861072300    0.0193211600    0.0003339185    
0.0863298910    0.0195182050    0.0003373743    
0.0865525520    0.0195264580    0.0003345318    
0.0867752130    0.0193592280    0.0003304085    
0.0869978740    0.0196167330    0.0003334463    
0.0872205350    0.0193915880    0.0003311054    
0.0874431960    0.0190128320    0.0003278562    
0.0876658570    0.0194952390    0.0003332641    
0.0878885180    0.0196936300    0.0003355299    
0.0881111790    0.0192838990    0.0003315951    
0.0883338400    0.0197973690    0.0003310615    
0.0885565010    0.0192857850    0.0003311871    
0.0887791620    0.0198859180    0.0003319395    
0.0890018230    0.0194940220    0.0003318402    
0.0892244840    0.0191806010    0.0003297213    
0.0894471450    0.0196315130    0.0003321655    
0.0896698060    0.0194223350    0.0003291448    
0.0898924670    0.0194902150    0.0003312479    
0.0901151280    0.0194570630    0.0003273912    
0.0903377890    0.0192911820    0.0003287209    
0.0905604500    0.0191922250    0.0003263719    
0.0907831110    0.0188428160    0.0003225829    
0.0910057720    0.0191610560    0.0003267883    
0.0912284330    0.0195097480    0.0003250271    
0.0914510940    0.0190448750    0.0003247124    
0.0916737550    0.0198484120    0.0003306691    
0.0918964160    0.0192139610    0.0003266943    
0.0921190770    0.0196372000    0.0003272867    
0.0923417380    0.0197352050    0.0003282370    
0.0925643990    0.0189813910    0.0003211194    
0.0927870600    0.0194988880    0.0003268021    
0.0930097210    0.0192004690    0.0003215298    
0.0932323820    0.0193799750    0.0003254038    
