# Diamond Light Source Ltd.
# Data extracted from: /dls/b21/data/2018/cm19678-3/processed/b21-386631_00619.dat
q(1/A)          Column          Error           
0.0035000000    2.0598557000    0.0244322290    
0.0037226610    1.8346134000    0.0225722720    
0.0039453220    1.5913889000    0.0191248390    
0.0041679830    1.2890309000    0.0141353340    
0.0043906440    0.9460419900    0.0115828370    
0.0046133050    0.7687271300    0.0100232760    
0.0048359660    0.5697047300    0.0081619924    
0.0050586270    0.4517694200    0.0071439948    
0.0052812880    0.4272839300    0.0065689363    
0.0055039490    0.3687809800    0.0058027196    
0.0057266100    0.3233509100    0.0052565225    
0.0059492710    0.2658416500    0.0047662082    
0.0061719320    0.2151136100    0.0041314560    
0.0063945930    0.1975195700    0.0040068860    
0.0066172539    0.1813956800    0.0036056276    
0.0068399149    0.1735747600    0.0034714952    
0.0070625759    0.1454117400    0.0031448188    
0.0072852369    0.1267061700    0.0028916595    
0.0075078979    0.1152046800    0.0027437463    
0.0077305589    0.0991616760    0.0024970544    
0.0079532199    0.0934361520    0.0023903047    
0.0081758809    0.0890156980    0.0023547808    
0.0083985419    0.0793330550    0.0020734026    
0.0086212029    0.0781950930    0.0020584785    
0.0088438639    0.0737979720    0.0019837018    
0.0090665249    0.0647626490    0.0017948126    
0.0092891859    0.0642684850    0.0018661894    
0.0095118469    0.0584840950    0.0017119944    
0.0097345079    0.0545513280    0.0016058406    
0.0099571689    0.0561788290    0.0015960152    
0.0101798300    0.0501030000    0.0015072406    
0.0104024910    0.0486836180    0.0014807100    
0.0106251520    0.0457955190    0.0014409944    
0.0108478130    0.0469150390    0.0014203642    
0.0110704740    0.0423304450    0.0012845113    
0.0112931350    0.0417560960    0.0012795141    
0.0115157960    0.0403405280    0.0012503057    
0.0117384570    0.0396489840    0.0012288721    
0.0119611180    0.0370805000    0.0011918124    
0.0121837790    0.0368813150    0.0011686292    
0.0124064400    0.0349588150    0.0010903355    
0.0126291010    0.0357803960    0.0010892672    
0.0128517620    0.0343596340    0.0010700873    
0.0130744230    0.0322429970    0.0010289154    
0.0132970840    0.0314407340    0.0010110658    
0.0135197450    0.0324420390    0.0010123319    
0.0137424060    0.0304085510    0.0009664472    
0.0139650670    0.0323282230    0.0009742898    
0.0141877280    0.0310261430    0.0009565769    
0.0144103890    0.0303357230    0.0009295645    
0.0146330500    0.0283486830    0.0008928996    
0.0148557110    0.0292827740    0.0009036860    
0.0150783720    0.0276487300    0.0008708532    
0.0153010330    0.0269012340    0.0008468893    
0.0155236940    0.0286108310    0.0008681916    
0.0157463550    0.0266612980    0.0008235702    
0.0159690160    0.0266865530    0.0008208333    
0.0161916770    0.0273852620    0.0008268250    
0.0164143380    0.0258249860    0.0008090083    
0.0166369990    0.0262328420    0.0007902319    
0.0168596600    0.0251879460    0.0007675115    
0.0170823210    0.0259488430    0.0007722733    
0.0173049820    0.0245164510    0.0007519535    
0.0175276430    0.0248478230    0.0007650012    
0.0177503040    0.0233063310    0.0007220047    
0.0179729650    0.0241837980    0.0007281767    
0.0181956260    0.0232021550    0.0006995713    
0.0184182870    0.0244047870    0.0007140911    
0.0186409480    0.0233604680    0.0007030675    
0.0188636090    0.0235481280    0.0007014463    
0.0190862700    0.0249950820    0.0007215459    
0.0193089310    0.0233391330    0.0006961480    
0.0195315920    0.0236387760    0.0006767762    
0.0197542530    0.0223668570    0.0006592760    
0.0199769140    0.0225806230    0.0006624191    
0.0201995750    0.0230275250    0.0006584670    
0.0204222360    0.0225626580    0.0006573817    
0.0206448970    0.0220353790    0.0006450377    
0.0208675580    0.0231839100    0.0006480100    
0.0210902190    0.0229503140    0.0006509581    
0.0213128800    0.0226730690    0.0006382350    
0.0215355410    0.0207854670    0.0006038104    
0.0217582020    0.0215397160    0.0006146683    
0.0219808630    0.0236175130    0.0006427873    
0.0222035240    0.0210440780    0.0006012594    
0.0224261850    0.0210086410    0.0005954061    
0.0226488460    0.0208106590    0.0005881440    
0.0228715070    0.0207900860    0.0005863928    
0.0230941680    0.0206412390    0.0005842900    
0.0233168290    0.0215088060    0.0005979284    
0.0235394900    0.0224022660    0.0006034862    
0.0237621510    0.0207197230    0.0005647567    
0.0239848120    0.0211997110    0.0005719217    
0.0242074730    0.0219548730    0.0005773601    
0.0244301340    0.0211528080    0.0005673625    
0.0246527950    0.0218408760    0.0005818547    
0.0248754560    0.0223513850    0.0005753867    
0.0250981170    0.0213650700    0.0005638026    
0.0253207780    0.0212705600    0.0005457579    
0.0255434390    0.0205112220    0.0005416478    
0.0257661000    0.0213351510    0.0005542065    
0.0259887610    0.0206727220    0.0005397375    
0.0262114220    0.0209078360    0.0005456901    
0.0264340830    0.0201487650    0.0005284041    
0.0266567440    0.0207354260    0.0005327294    
0.0268794050    0.0208108670    0.0005315194    
0.0271020660    0.0209524160    0.0005311648    
0.0273247270    0.0205285430    0.0005226069    
0.0275473880    0.0195723350    0.0005092751    
0.0277700490    0.0206380560    0.0005198651    
0.0279927100    0.0200092680    0.0005074182    
0.0282153710    0.0202172930    0.0005125287    
0.0284380320    0.0204972940    0.0005130741    
0.0286606930    0.0207538710    0.0005118565    
0.0288833540    0.0214030350    0.0005207875    
0.0291060150    0.0205529620    0.0005098562    
0.0293286760    0.0205621670    0.0005028642    
0.0295513370    0.0202250720    0.0004932944    
0.0297739980    0.0211770870    0.0005103283    
0.0299966590    0.0200440190    0.0004880084    
0.0302193200    0.0203267210    0.0004985995    
0.0304419810    0.0208066860    0.0005053800    
0.0306646420    0.0199733410    0.0004811806    
0.0308873030    0.0208584560    0.0004896027    
0.0311099640    0.0201467230    0.0004824265    
0.0313326250    0.0203693760    0.0004797112    
0.0315552860    0.0201588610    0.0004834106    
0.0317779470    0.0205191390    0.0004881360    
0.0320006080    0.0208616690    0.0004810106    
0.0322232690    0.0198735820    0.0004714465    
0.0324459300    0.0209661480    0.0004806171    
0.0326685910    0.0204139090    0.0004734635    
0.0328912520    0.0195213170    0.0004645300    
0.0331139130    0.0199966500    0.0004640356    
0.0333365740    0.0196173210    0.0004611056    
0.0335592350    0.0205601100    0.0004675168    
0.0337818960    0.0201028250    0.0004619204    
0.0340045570    0.0202506240    0.0004628790    
0.0342272170    0.0198917400    0.0004569495    
0.0344498780    0.0212451940    0.0004741097    
0.0346725390    0.0203636460    0.0004555728    
0.0348952000    0.0199260510    0.0004485984    
0.0351178610    0.0192935090    0.0004434411    
0.0353405220    0.0188050450    0.0004357973    
0.0355631830    0.0207084490    0.0004555986    
0.0357858440    0.0197261630    0.0004446621    
0.0360085050    0.0201178190    0.0004504115    
0.0362311660    0.0200165140    0.0004439354    
0.0364538270    0.0199580810    0.0004397291    
0.0366764880    0.0201226150    0.0004412175    
0.0368991490    0.0200351690    0.0004380384    
0.0371218100    0.0204349010    0.0004411209    
0.0373444710    0.0197828090    0.0004387522    
0.0375671320    0.0193856420    0.0004336930    
0.0377897930    0.0192327590    0.0004207968    
0.0380124540    0.0196799600    0.0004283316    
0.0382351150    0.0206681670    0.0004389541    
0.0384577760    0.0191740350    0.0004187109    
0.0386804370    0.0201455070    0.0004324624    
0.0389030980    0.0192654970    0.0004197087    
0.0391257590    0.0190408930    0.0004144224    
0.0393484200    0.0198805400    0.0004220360    
0.0395710810    0.0205989110    0.0004301721    
0.0397937420    0.0197994040    0.0004217415    
0.0400164030    0.0191638420    0.0004166053    
0.0402390640    0.0194327750    0.0004139320    
0.0404617250    0.0193610080    0.0004107295    
0.0406843860    0.0192707050    0.0004058115    
0.0409070470    0.0201018070    0.0004187876    
0.0411297080    0.0205447570    0.0004192807    
0.0413523690    0.0197821160    0.0004124856    
0.0415750300    0.0195335280    0.0004133675    
0.0417976910    0.0201050820    0.0004085251    
0.0420203520    0.0205073580    0.0004141422    
0.0422430130    0.0200477600    0.0004110254    
0.0424656740    0.0197345240    0.0004024940    
0.0426883350    0.0198645770    0.0004058223    
0.0429109960    0.0200556420    0.0004090434    
0.0431336570    0.0205567930    0.0004082878    
0.0433563180    0.0201870170    0.0004080893    
0.0435789790    0.0196456190    0.0003962550    
0.0438016400    0.0193913260    0.0003958238    
0.0440243010    0.0200289870    0.0003981977    
0.0442469620    0.0201014900    0.0004013081    
0.0444696230    0.0197030400    0.0003958861    
0.0446922840    0.0195782850    0.0003934589    
0.0449149450    0.0198511370    0.0003908946    
0.0451376060    0.0197607450    0.0003948203    
0.0453602670    0.0197270770    0.0003903483    
0.0455829280    0.0207757530    0.0004001261    
0.0458055890    0.0202001520    0.0003968450    
0.0460282500    0.0200963870    0.0003910514    
0.0462509110    0.0202304470    0.0003899132    
0.0464735720    0.0201404450    0.0003892646    
0.0466962330    0.0196027270    0.0003857788    
0.0469188940    0.0201862580    0.0003903688    
0.0471415550    0.0194712960    0.0003853625    
0.0473642160    0.0200568820    0.0003856380    
0.0475868770    0.0192707970    0.0003761274    
0.0478095380    0.0201504180    0.0003829328    
0.0480321990    0.0197637250    0.0003800716    
0.0482548600    0.0195484100    0.0003763488    
0.0484775210    0.0201454520    0.0003858461    
0.0487001820    0.0195527960    0.0003745636    
0.0489228430    0.0193095920    0.0003720269    
0.0491455040    0.0196230540    0.0003724405    
0.0493681650    0.0193577350    0.0003730929    
0.0495908260    0.0198934730    0.0003718569    
0.0498134870    0.0192539480    0.0003693134    
0.0500361480    0.0193917790    0.0003696523    
0.0502588090    0.0192320630    0.0003626110    
0.0504814700    0.0192259630    0.0003672931    
0.0507041310    0.0196210250    0.0003666361    
0.0509267920    0.0199909360    0.0003716070    
0.0511494530    0.0193639830    0.0003632947    
0.0513721140    0.0193944060    0.0003667819    
0.0515947750    0.0197750240    0.0003654530    
0.0518174360    0.0191171280    0.0003571579    
0.0520400970    0.0197544590    0.0003605453    
0.0522627580    0.0199444120    0.0003653534    
0.0524854190    0.0199027440    0.0003679390    
0.0527080800    0.0195420780    0.0003674128    
0.0529307410    0.0187289590    0.0003613771    
0.0531534020    0.0200257170    0.0003723179    
0.0533760630    0.0196497710    0.0003699610    
0.0535987240    0.0188663610    0.0003608186    
0.0538213850    0.0200898850    0.0003766486    
0.0540440460    0.0197742720    0.0003719098    
0.0542667070    0.0192676960    0.0003696451    
0.0544893680    0.0197425760    0.0003743720    
0.0547120290    0.0195010090    0.0003695256    
0.0549346900    0.0197738770    0.0003722977    
0.0551573510    0.0194959140    0.0003740234    
0.0553800120    0.0191235190    0.0003672849    
0.0556026730    0.0193955750    0.0003775574    
0.0558253340    0.0196769140    0.0003834701    
0.0560479950    0.0196694600    0.0003833977    
0.0562706560    0.0198840240    0.0003892100    
0.0564933170    0.0199828180    0.0003935639    
0.0567159780    0.0198621430    0.0003876693    
0.0569386390    0.0203730370    0.0003987820    
0.0571613000    0.0196247190    0.0003829624    
0.0573839610    0.0196088700    0.0003796292    
0.0576066220    0.0201314490    0.0003857194    
0.0578292830    0.0190954290    0.0003744202    
0.0580519440    0.0190144470    0.0003750741    
0.0582746050    0.0189864590    0.0003731453    
0.0584972660    0.0197001280    0.0003786386    
0.0587199270    0.0194263210    0.0003727569    
0.0589425880    0.0190936990    0.0003673904    
0.0591652490    0.0188899200    0.0003675750    
0.0593879100    0.0195264580    0.0003709413    
0.0596105710    0.0191336910    0.0003668043    
0.0598332320    0.0200129360    0.0003783441    
0.0600558930    0.0192006830    0.0003682240    
0.0602785540    0.0196111020    0.0003717452    
0.0605012150    0.0198443190    0.0003731612    
0.0607238760    0.0201646810    0.0003734200    
0.0609465370    0.0200619580    0.0003754000    
0.0611691980    0.0192236140    0.0003680551    
0.0613918590    0.0196540940    0.0003680903    
0.0616145200    0.0197889520    0.0003720543    
0.0618371810    0.0192718440    0.0003635550    
0.0620598420    0.0198407810    0.0003692626    
0.0622825030    0.0195950660    0.0003725810    
0.0625051640    0.0200677570    0.0003717526    
0.0627278250    0.0197657290    0.0003681848    
0.0629504860    0.0205589600    0.0003724474    
0.0631731470    0.0191345500    0.0003637589    
0.0633958080    0.0187818340    0.0003624648    
0.0636184690    0.0191935780    0.0003715195    
0.0638411300    0.0184502070    0.0003628866    
0.0640637910    0.0193765660    0.0003745007    
0.0642864520    0.0190837990    0.0003708565    
0.0645091130    0.0198597530    0.0003816362    
0.0647317740    0.0195801720    0.0003793581    
0.0649544350    0.0188917440    0.0003722195    
0.0651770960    0.0199701480    0.0003806082    
0.0653997570    0.0195152770    0.0003754327    
0.0656224180    0.0196872880    0.0003779036    
0.0658450790    0.0196539330    0.0003721562    
0.0660677400    0.0198571150    0.0003756669    
0.0662904010    0.0189876710    0.0003717360    
0.0665130620    0.0203744710    0.0003834017    
0.0667357230    0.0202310090    0.0003888422    
0.0669583840    0.0194277290    0.0003797696    
0.0671810450    0.0194707570    0.0003780908    
0.0674037060    0.0196121670    0.0003858899    
0.0676263670    0.0191838830    0.0003788589    
0.0678490280    0.0194229660    0.0003788810    
0.0680716890    0.0187448640    0.0003730367    
0.0682943500    0.0193168690    0.0003745380    
0.0685170110    0.0191244070    0.0003688700    
0.0687396720    0.0193130770    0.0003697002    
0.0689623330    0.0197253130    0.0003724410    
0.0691849940    0.0192580750    0.0003705532    
0.0694076550    0.0199924950    0.0003773512    
0.0696303160    0.0196491400    0.0003711351    
0.0698529770    0.0198181680    0.0003719468    
0.0700756380    0.0198772450    0.0003677190    
0.0702982990    0.0196590890    0.0003696781    
0.0705209600    0.0194790220    0.0003653244    
0.0707436210    0.0197214270    0.0003659024    
0.0709662820    0.0189918080    0.0003633507    
0.0711889430    0.0194030100    0.0003627523    
0.0714116040    0.0199521750    0.0003686009    
0.0716342650    0.0186219640    0.0003546558    
0.0718569260    0.0201472970    0.0003674092    
0.0720795870    0.0192974570    0.0003610314    
0.0723022480    0.0191869390    0.0003605447    
0.0725249090    0.0190872740    0.0003553004    
0.0727475700    0.0194214560    0.0003614585    
0.0729702310    0.0194306740    0.0003586607    
0.0731928920    0.0195062200    0.0003607935    
0.0734155530    0.0195613880    0.0003605824    
0.0736382140    0.0202625690    0.0003646329    
0.0738608750    0.0197010220    0.0003618676    
0.0740835360    0.0190808330    0.0003552421    
0.0743061970    0.0197687400    0.0003564975    
0.0745288580    0.0194555810    0.0003572990    
0.0747515190    0.0196247330    0.0003595576    
0.0749741800    0.0195734830    0.0003557639    
0.0751968410    0.0201907640    0.0003641672    
0.0754195020    0.0196952110    0.0003575632    
0.0756421630    0.0198215360    0.0003557758    
0.0758648240    0.0189352200    0.0003485666    
0.0760874850    0.0196542320    0.0003549523    
0.0763101460    0.0196421270    0.0003545025    
0.0765328070    0.0194976610    0.0003568105    
0.0767554680    0.0196719630    0.0003559698    
0.0769781290    0.0196502850    0.0003537292    
0.0772007900    0.0189102740    0.0003442217    
0.0774234510    0.0199878820    0.0003559065    
0.0776461120    0.0191909460    0.0003484084    
0.0778687730    0.0198246710    0.0003529444    
0.0780914340    0.0196564600    0.0003539551    
0.0783140950    0.0195685540    0.0003475594    
0.0785367560    0.0196118990    0.0003535541    
0.0787594170    0.0199756830    0.0003536211    
0.0789820780    0.0191828760    0.0003447571    
0.0792047390    0.0198199180    0.0003515806    
0.0794274000    0.0194661940    0.0003499055    
0.0796500610    0.0196061220    0.0003477334    
0.0798727220    0.0195760990    0.0003471463    
0.0800953830    0.0197435280    0.0003478260    
0.0803180440    0.0196653980    0.0003495553    
0.0805407050    0.0192567280    0.0003455825    
0.0807633660    0.0200628810    0.0003524145    
0.0809860270    0.0198289540    0.0003490602    
0.0812086880    0.0194635680    0.0003428406    
0.0814313490    0.0197572980    0.0003469933    
0.0816540100    0.0192549200    0.0003417734    
0.0818766710    0.0196537540    0.0003460833    
0.0820993320    0.0192117920    0.0003415463    
0.0823219930    0.0191257080    0.0003421858    
0.0825446540    0.0198564040    0.0003461280    
0.0827673150    0.0200786250    0.0003457210    
0.0829899760    0.0185302380    0.0003315320    
0.0832126370    0.0192651640    0.0003395566    
0.0834352980    0.0195544700    0.0003413318    
0.0836579590    0.0198708620    0.0003433162    
0.0838806200    0.0197148850    0.0003430362    
0.0841032810    0.0191643400    0.0003361131    
0.0843259420    0.0199077080    0.0003415148    
0.0845486030    0.0197202610    0.0003399035    
0.0847712640    0.0200304450    0.0003404786    
0.0849939250    0.0195195020    0.0003366933    
0.0852165860    0.0189243360    0.0003319548    
0.0854392470    0.0188418370    0.0003280937    
0.0856619080    0.0196827620    0.0003378051    
0.0858845690    0.0194493780    0.0003327720    
0.0861072300    0.0195456630    0.0003358976    
0.0863298910    0.0192550820    0.0003351372    
0.0865525520    0.0190730360    0.0003306690    
0.0867752130    0.0196182160    0.0003326555    
0.0869978740    0.0193101400    0.0003308743    
0.0872205350    0.0199452930    0.0003358441    
0.0874431960    0.0189274170    0.0003271625    
0.0876658570    0.0196827860    0.0003349079    
0.0878885180    0.0194472800    0.0003334691    
0.0881111790    0.0196141330    0.0003344668    
0.0883338400    0.0194482340    0.0003281730    
0.0885565010    0.0197403430    0.0003351120    
0.0887791620    0.0196528990    0.0003300329    
0.0890018230    0.0195783210    0.0003326012    
0.0892244840    0.0196449450    0.0003337330    
0.0894471450    0.0193725220    0.0003300111    
0.0896698060    0.0195614150    0.0003303652    
0.0898924670    0.0193996760    0.0003305216    
0.0901151280    0.0196440860    0.0003290047    
0.0903377890    0.0193579530    0.0003293331    
0.0905604500    0.0194249530    0.0003283886    
0.0907831110    0.0197316740    0.0003301476    
0.0910057720    0.0192107590    0.0003272555    
0.0912284330    0.0189191530    0.0003201123    
0.0914510940    0.0190610250    0.0003248933    
0.0916737550    0.0197820660    0.0003301600    
0.0918964160    0.0193079790    0.0003275363    
0.0921190770    0.0196096950    0.0003271009    
0.0923417380    0.0194838090    0.0003261831    
0.0925643990    0.0192146780    0.0003231298    
0.0927870600    0.0190603100    0.0003231489    
0.0930097210    0.0194856440    0.0003239519    
0.0932323820    0.0196310740    0.0003275487    
