# Diamond Light Source Ltd.
# Data extracted from: /dls/b21/data/2018/cm19678-3/processed/b21-386631_00615.dat
q(1/A)          Column          Error           
0.0035000000    2.0557161000    0.0244020170    
0.0037226610    1.8332091000    0.0225584090    
0.0039453220    1.6145443000    0.0192590160    
0.0041679830    1.2794481000    0.0140794350    
0.0043906440    0.9716858600    0.0117360550    
0.0046133050    0.7749029000    0.0100611290    
0.0048359660    0.5727137100    0.0081816245    
0.0050586270    0.4535928600    0.0071567409    
0.0052812880    0.4296097300    0.0065852657    
0.0055039490    0.3888706300    0.0059572987    
0.0057266100    0.3122684400    0.0051644611    
0.0059492710    0.2680247500    0.0047846308    
0.0061719320    0.2192175700    0.0041697147    
0.0063945930    0.2030341300    0.0040614951    
0.0066172539    0.1795208200    0.0035861156    
0.0068399149    0.1725228600    0.0034601592    
0.0070625759    0.1435769300    0.0031241918    
0.0072852369    0.1313968100    0.0029440160    
0.0075078979    0.1159351500    0.0027517941    
0.0077305589    0.0971045550    0.0024704460    
0.0079532199    0.0987104360    0.0024562740    
0.0081758809    0.0900329790    0.0023676498    
0.0083985419    0.0835211430    0.0021269351    
0.0086212029    0.0768589630    0.0020403437    
0.0088438639    0.0695533100    0.0019253627    
0.0090665249    0.0657270340    0.0018077081    
0.0092891859    0.0609347250    0.0018167225    
0.0095118469    0.0585071190    0.0017119351    
0.0097345079    0.0558963210    0.0016251403    
0.0099571689    0.0536148480    0.0015588083    
0.0101798300    0.0491280690    0.0014921588    
0.0104024910    0.0460952380    0.0014404762    
0.0106251520    0.0469526730    0.0014587486    
0.0108478130    0.0459047410    0.0014046622    
0.0110704740    0.0429731780    0.0012939268    
0.0112931350    0.0437746230    0.0013097724    
0.0115157960    0.0395859160    0.0012382697    
0.0117384570    0.0390595870    0.0012194218    
0.0119611180    0.0372164930    0.0011937196    
0.0121837790    0.0366791840    0.0011651527    
0.0124064400    0.0367441520    0.0011175717    
0.0126291010    0.0341397140    0.0010637541    
0.0128517620    0.0344436650    0.0010711470    
0.0130744230    0.0332454580    0.0010445461    
0.0132970840    0.0339935740    0.0010510684    
0.0135197450    0.0333426850    0.0010260502    
0.0137424060    0.0313155220    0.0009805270    
0.0139650670    0.0308164610    0.0009510166    
0.0141877280    0.0303927260    0.0009465429    
0.0144103890    0.0286988320    0.0009039282    
0.0146330500    0.0281950100    0.0008902701    
0.0148557110    0.0279590750    0.0008828203    
0.0150783720    0.0282665160    0.0008803248    
0.0153010330    0.0277681990    0.0008602285    
0.0155236940    0.0265172860    0.0008356306    
0.0157463550    0.0271320980    0.0008306177    
0.0159690160    0.0268003800    0.0008223917    
0.0161916770    0.0267737340    0.0008173519    
0.0164143380    0.0260410190    0.0008121971    
0.0166369990    0.0249120460    0.0007699031    
0.0168596600    0.0233996890    0.0007395934    
0.0170823210    0.0244895170    0.0007500697    
0.0173049820    0.0230297270    0.0007286283    
0.0175276430    0.0245302830    0.0007599214    
0.0177503040    0.0242568760    0.0007364106    
0.0179729650    0.0245013360    0.0007327720    
0.0181956260    0.0246250680    0.0007205366    
0.0184182870    0.0251035770    0.0007240747    
0.0186409480    0.0248513100    0.0007249872    
0.0188636090    0.0222632540    0.0006818833    
0.0190862700    0.0217981160    0.0006736675    
0.0193089310    0.0241792760    0.0007084029    
0.0195315920    0.0228725200    0.0006655628    
0.0197542530    0.0223953520    0.0006595432    
0.0199769140    0.0222788190    0.0006578251    
0.0201995750    0.0226969270    0.0006535720    
0.0204222360    0.0227628050    0.0006601382    
0.0206448970    0.0226857470    0.0006543361    
0.0208675580    0.0229016200    0.0006439037    
0.0210902190    0.0217770200    0.0006339536    
0.0213128800    0.0219083530    0.0006272343    
0.0215355410    0.0221609030    0.0006233241    
0.0217582020    0.0210739050    0.0006078449    
0.0219808630    0.0220677830    0.0006211965    
0.0222035240    0.0221161040    0.0006162411    
0.0224261850    0.0209651850    0.0005946523    
0.0226488460    0.0228778080    0.0006165204    
0.0228715070    0.0208631230    0.0005872860    
0.0230941680    0.0221526120    0.0006051632    
0.0233168290    0.0213327090    0.0005953379    
0.0235394900    0.0218394130    0.0005957188    
0.0237621510    0.0213563630    0.0005732348    
0.0239848120    0.0195243180    0.0005487304    
0.0242074730    0.0214742510    0.0005708734    
0.0244301340    0.0212647040    0.0005687295    
0.0246527950    0.0215053980    0.0005772351    
0.0248754560    0.0210677930    0.0005584915    
0.0250981170    0.0210280140    0.0005592082    
0.0253207780    0.0208688130    0.0005404542    
0.0255434390    0.0217598540    0.0005577617    
0.0257661000    0.0203755670    0.0005414746    
0.0259887610    0.0216068700    0.0005516698    
0.0262114220    0.0198020030    0.0005309401    
0.0264340830    0.0208181410    0.0005369854    
0.0266567440    0.0210952010    0.0005372068    
0.0268794050    0.0190101310    0.0005078858    
0.0271020660    0.0203370490    0.0005231855    
0.0273247270    0.0215164030    0.0005349096    
0.0275473880    0.0209937670    0.0005273218    
0.0277700490    0.0206808610    0.0005202835    
0.0279927100    0.0207202650    0.0005162351    
0.0282153710    0.0205975500    0.0005172065    
0.0284380320    0.0204364600    0.0005121936    
0.0286606930    0.0198609940    0.0005006090    
0.0288833540    0.0202151770    0.0005060123    
0.0291060150    0.0203285330    0.0005069475    
0.0293286760    0.0208353720    0.0005060768    
0.0295513370    0.0198308790    0.0004883505    
0.0297739980    0.0210320700    0.0005084603    
0.0299966590    0.0197853470    0.0004847370    
0.0302193200    0.0211608120    0.0005086087    
0.0304419810    0.0205884720    0.0005026066    
0.0306646420    0.0204275690    0.0004865086    
0.0308873030    0.0194933430    0.0004732007    
0.0311099640    0.0201951330    0.0004828940    
0.0313326250    0.0212181600    0.0004894906    
0.0315552860    0.0214936050    0.0004990422    
0.0317779470    0.0200685750    0.0004826353    
0.0320006080    0.0201314500    0.0004724079    
0.0322232690    0.0199090980    0.0004717584    
0.0324459300    0.0203177300    0.0004730173    
0.0326685910    0.0195483300    0.0004632098    
0.0328912520    0.0194901850    0.0004640520    
0.0331139130    0.0199335790    0.0004631960    
0.0333365740    0.0189257450    0.0004528001    
0.0335592350    0.0208799990    0.0004710307    
0.0337818960    0.0203481380    0.0004646226    
0.0340045570    0.0197019080    0.0004564591    
0.0342272170    0.0198615500    0.0004564969    
0.0344498780    0.0200720700    0.0004607274    
0.0346725390    0.0204357200    0.0004562727    
0.0348952000    0.0200581540    0.0004499788    
0.0351178610    0.0195087000    0.0004458040    
0.0353405220    0.0199471380    0.0004487321    
0.0355631830    0.0198773220    0.0004462591    
0.0357858440    0.0194866010    0.0004418514    
0.0360085050    0.0203705740    0.0004531272    
0.0362311660    0.0198989960    0.0004425278    
0.0364538270    0.0194355970    0.0004338346    
0.0366764880    0.0193397130    0.0004324491    
0.0368991490    0.0205523900    0.0004435538    
0.0371218100    0.0202065320    0.0004385476    
0.0373444710    0.0205128550    0.0004466711    
0.0375671320    0.0204434530    0.0004452654    
0.0377897930    0.0200336710    0.0004293696    
0.0380124540    0.0200808550    0.0004325722    
0.0382351150    0.0196242740    0.0004276263    
0.0384577760    0.0199511420    0.0004270128    
0.0386804370    0.0194123940    0.0004244224    
0.0389030980    0.0195307610    0.0004224905    
0.0391257590    0.0199606940    0.0004242158    
0.0393484200    0.0197817880    0.0004208891    
0.0395710810    0.0194400360    0.0004177997    
0.0397937420    0.0193682160    0.0004170274    
0.0400164030    0.0200964260    0.0004265229    
0.0402390640    0.0197498610    0.0004171989    
0.0404617250    0.0189949660    0.0004067342    
0.0406843860    0.0202355530    0.0004157503    
0.0409070470    0.0198308820    0.0004158597    
0.0411297080    0.0195858880    0.0004092847    
0.0413523690    0.0195666340    0.0004101380    
0.0415750300    0.0194632820    0.0004125281    
0.0417976910    0.0195647570    0.0004029049    
0.0420203520    0.0189931300    0.0003984670    
0.0422430130    0.0193814820    0.0004040440    
0.0424656740    0.0199305220    0.0004043942    
0.0426883350    0.0195073340    0.0004020635    
0.0429109960    0.0201714410    0.0004101276    
0.0431336570    0.0202879050    0.0004055149    
0.0433563180    0.0200457400    0.0004065647    
0.0435789790    0.0195166940    0.0003948613    
0.0438016400    0.0191723760    0.0003934917    
0.0440243010    0.0201938020    0.0003997401    
0.0442469620    0.0201322260    0.0004015218    
0.0444696230    0.0200596540    0.0003993602    
0.0446922840    0.0199644020    0.0003972278    
0.0449149450    0.0201573890    0.0003938072    
0.0451376060    0.0197437140    0.0003945588    
0.0453602670    0.0197488280    0.0003904730    
0.0455829280    0.0194489970    0.0003870495    
0.0458055890    0.0190764510    0.0003855599    
0.0460282500    0.0201099030    0.0003910923    
0.0462509110    0.0206116840    0.0003934789    
0.0464735720    0.0188151180    0.0003761519    
0.0466962330    0.0198896080    0.0003885015    
0.0469188940    0.0201165510    0.0003896040    
0.0471415550    0.0203618340    0.0003939852    
0.0473642160    0.0200920670    0.0003858867    
0.0475868770    0.0194233110    0.0003775255    
0.0478095380    0.0196901180    0.0003784462    
0.0480321990    0.0193016260    0.0003755152    
0.0482548600    0.0191627700    0.0003725318    
0.0484775210    0.0198480470    0.0003828987    
0.0487001820    0.0193931340    0.0003729449    
0.0489228430    0.0199741000    0.0003782865    
0.0491455040    0.0202357400    0.0003781226    
0.0493681650    0.0197656510    0.0003769162    
0.0495908260    0.0197731030    0.0003706444    
0.0498134870    0.0194645350    0.0003712416    
0.0500361480    0.0199039990    0.0003744159    
0.0502588090    0.0193598350    0.0003637294    
0.0504814700    0.0194976050    0.0003697932    
0.0507041310    0.0198447680    0.0003686352    
0.0509267920    0.0197055030    0.0003688591    
0.0511494530    0.0194708380    0.0003642114    
0.0513721140    0.0192190310    0.0003650353    
0.0515947750    0.0197456200    0.0003650966    
0.0518174360    0.0194684360    0.0003603413    
0.0520400970    0.0193901380    0.0003571225    
0.0522627580    0.0187644910    0.0003542993    
0.0524854190    0.0195195940    0.0003642958    
0.0527080800    0.0192775650    0.0003648333    
0.0529307410    0.0201002670    0.0003742865    
0.0531534020    0.0192276910    0.0003647396    
0.0533760630    0.0196058650    0.0003694619    
0.0535987240    0.0202440160    0.0003736738    
0.0538213850    0.0200452960    0.0003761433    
0.0540440460    0.0192267700    0.0003666401    
0.0542667070    0.0190319540    0.0003672918    
0.0544893680    0.0200385580    0.0003770805    
0.0547120290    0.0199399150    0.0003735744    
0.0549346900    0.0193303360    0.0003680133    
0.0551573510    0.0197379190    0.0003762505    
0.0553800120    0.0188678910    0.0003647374    
0.0556026730    0.0200624470    0.0003839044    
0.0558253340    0.0196005790    0.0003826370    
0.0560479950    0.0192943390    0.0003796363    
0.0562706560    0.0203774040    0.0003939180    
0.0564933170    0.0195474460    0.0003891629    
0.0567159780    0.0195050510    0.0003840798    
0.0569386390    0.0197082280    0.0003921308    
0.0571613000    0.0194214220    0.0003808854    
0.0573839610    0.0193867540    0.0003773857    
0.0576066220    0.0202994200    0.0003872356    
0.0578292830    0.0198204090    0.0003813733    
0.0580519440    0.0193975920    0.0003787465    
0.0582746050    0.0198646160    0.0003815887    
0.0584972660    0.0199237810    0.0003806938    
0.0587199270    0.0197676430    0.0003759303    
0.0589425880    0.0197137220    0.0003732214    
0.0591652490    0.0197533860    0.0003757951    
0.0593879100    0.0197639420    0.0003731038    
0.0596105710    0.0191459210    0.0003668367    
0.0598332320    0.0192101040    0.0003705919    
0.0600558930    0.0194035490    0.0003700785    
0.0602785540    0.0197428950    0.0003729059    
0.0605012150    0.0200876320    0.0003753550    
0.0607238760    0.0195540050    0.0003676370    
0.0609465370    0.0191609750    0.0003667886    
0.0611691980    0.0197218500    0.0003727079    
0.0613918590    0.0199275100    0.0003705560    
0.0616145200    0.0200944240    0.0003748281    
0.0618371810    0.0192012290    0.0003628043    
0.0620598420    0.0192614480    0.0003637474    
0.0622825030    0.0197134550    0.0003736183    
0.0625051640    0.0196867620    0.0003681216    
0.0627278250    0.0196263340    0.0003667993    
0.0629504860    0.0189645680    0.0003576311    
0.0631731470    0.0192777590    0.0003650331    
0.0633958080    0.0198009450    0.0003720825    
0.0636184690    0.0194362740    0.0003737745    
0.0638411300    0.0197329420    0.0003752025    
0.0640637910    0.0191071450    0.0003718019    
0.0642864520    0.0198529480    0.0003781685    
0.0645091130    0.0199018740    0.0003819522    
0.0647317740    0.0195490710    0.0003789690    
0.0649544350    0.0203344110    0.0003860810    
0.0651770960    0.0195983750    0.0003769615    
0.0653997570    0.0201415340    0.0003813207    
0.0656224180    0.0198521920    0.0003793951    
0.0658450790    0.0192644770    0.0003683652    
0.0660677400    0.0205796130    0.0003823516    
0.0662904010    0.0191098230    0.0003728435    
0.0665130620    0.0196439000    0.0003763779    
0.0667357230    0.0198033180    0.0003846211    
0.0669583840    0.0188325390    0.0003738205    
0.0671810450    0.0198580260    0.0003817440    
0.0674037060    0.0190946090    0.0003806760    
0.0676263670    0.0196985030    0.0003838180    
0.0678490280    0.0198128940    0.0003825767    
0.0680716890    0.0193223900    0.0003786521    
0.0682943500    0.0194603600    0.0003758395    
0.0685170110    0.0197484740    0.0003747534    
0.0687396720    0.0196507500    0.0003728318    
0.0689623330    0.0192171290    0.0003675270    
0.0691849940    0.0195627360    0.0003733863    
0.0694076550    0.0196557650    0.0003740733    
0.0696303160    0.0200324260    0.0003746506    
0.0698529770    0.0196485150    0.0003702656    
0.0700756380    0.0201264250    0.0003699311    
0.0702982990    0.0194623840    0.0003677388    
0.0705209600    0.0190591030    0.0003612816    
0.0707436210    0.0189251650    0.0003583566    
0.0709662820    0.0197056520    0.0003700306    
0.0711889430    0.0197261890    0.0003656762    
0.0714116040    0.0188471000    0.0003581649    
0.0716342650    0.0197948240    0.0003655693    
0.0718569260    0.0198566970    0.0003646655    
0.0720795870    0.0194505570    0.0003623768    
0.0723022480    0.0197536720    0.0003657460    
0.0725249090    0.0194618590    0.0003586868    
0.0727475700    0.0195066050    0.0003621661    
0.0729702310    0.0197326920    0.0003613537    
0.0731928920    0.0192303810    0.0003581505    
0.0734155530    0.0201967720    0.0003663070    
0.0736382140    0.0194333570    0.0003570113    
0.0738608750    0.0195723170    0.0003606001    
0.0740835360    0.0198256270    0.0003620251    
0.0743061970    0.0196374990    0.0003552299    
0.0745288580    0.0197745120    0.0003601323    
0.0747515190    0.0196880820    0.0003600541    
0.0749741800    0.0195967400    0.0003558928    
0.0751968410    0.0191966390    0.0003550067    
0.0754195020    0.0200948710    0.0003610893    
0.0756421630    0.0205719210    0.0003623637    
0.0758648240    0.0203182020    0.0003609879    
0.0760874850    0.0201320990    0.0003591584    
0.0763101460    0.0198184950    0.0003560081    
0.0765328070    0.0192928370    0.0003548492    
0.0767554680    0.0190640890    0.0003503457    
0.0769781290    0.0191192930    0.0003488364    
0.0772007900    0.0186134270    0.0003414302    
0.0774234510    0.0187814330    0.0003449184    
0.0776461120    0.0187394980    0.0003442063    
0.0778687730    0.0193381660    0.0003485061    
0.0780914340    0.0197747770    0.0003549366    
0.0783140950    0.0196520500    0.0003482195    
0.0785367560    0.0198321690    0.0003554517    
0.0787594170    0.0195472110    0.0003497271    
0.0789820780    0.0191616120    0.0003444862    
0.0792047390    0.0193556830    0.0003473583    
0.0794274000    0.0196520710    0.0003514907    
0.0796500610    0.0197080100    0.0003485551    
0.0798727220    0.0196039580    0.0003473129    
0.0800953830    0.0195261440    0.0003458258    
0.0803180440    0.0198488220    0.0003511004    
0.0805407050    0.0192974070    0.0003458672    
0.0807633660    0.0194039110    0.0003464984    
0.0809860270    0.0194819750    0.0003459126    
0.0812086880    0.0193278000    0.0003415638    
0.0814313490    0.0198943450    0.0003481141    
0.0816540100    0.0196098270    0.0003448290    
0.0818766710    0.0200040480    0.0003490731    
0.0820993320    0.0198037500    0.0003466881    
0.0823219930    0.0196737170    0.0003469732    
0.0825446540    0.0197326300    0.0003449676    
0.0827673150    0.0197004330    0.0003423704    
0.0829899760    0.0192094060    0.0003374749    
0.0832126370    0.0193519610    0.0003402419    
0.0834352980    0.0192059660    0.0003381982    
0.0836579590    0.0188893330    0.0003346522    
0.0838806200    0.0194611540    0.0003407427    
0.0841032810    0.0194972170    0.0003389411    
0.0843259420    0.0195881300    0.0003386842    
0.0845486030    0.0195764470    0.0003385834    
0.0847712640    0.0191361000    0.0003327137    
0.0849939250    0.0193131000    0.0003348309    
0.0852165860    0.0189795990    0.0003323622    
0.0854392470    0.0197696320    0.0003359967    
0.0856619080    0.0195229850    0.0003363533    
0.0858845690    0.0197021620    0.0003348500    
0.0861072300    0.0192942840    0.0003336534    
0.0863298910    0.0197592460    0.0003394178    
0.0865525520    0.0195570010    0.0003347604    
0.0867752130    0.0195696700    0.0003321668    
0.0869978740    0.0192332010    0.0003301381    
0.0872205350    0.0200999820    0.0003370659    
0.0874431960    0.0197891300    0.0003344496    
0.0876658570    0.0198046830    0.0003358656    
0.0878885180    0.0198440770    0.0003367759    
0.0881111790    0.0194055270    0.0003326065    
0.0883338400    0.0193174600    0.0003269921    
0.0885565010    0.0192365050    0.0003307312    
0.0887791620    0.0189236410    0.0003237768    
0.0890018230    0.0199194160    0.0003354084    
0.0892244840    0.0196585200    0.0003337710    
0.0894471450    0.0196950850    0.0003326702    
0.0896698060    0.0199092790    0.0003332126    
0.0898924670    0.0199310480    0.0003349401    
0.0901151280    0.0194146850    0.0003270023    
0.0903377890    0.0191865860    0.0003277963    
0.0905604500    0.0198709810    0.0003320605    
0.0907831110    0.0197004560    0.0003298100    
0.0910057720    0.0196142130    0.0003305975    
0.0912284330    0.0192243970    0.0003226097    
0.0914510940    0.0191518360    0.0003255910    
0.0916737550    0.0195581070    0.0003282098    
0.0918964160    0.0190269130    0.0003250683    
0.0921190770    0.0194860910    0.0003259930    
0.0923417380    0.0191473010    0.0003232792    
0.0925643990    0.0194121820    0.0003247111    
0.0927870600    0.0200919560    0.0003317022    
0.0930097210    0.0194658590    0.0003237124    
0.0932323820    0.0195072720    0.0003264387    
