# Diamond Light Source Ltd.
# Data extracted from: /dls/b21/data/2018/cm19678-3/processed/b21-386631_00630.dat
q(1/A)          Column          Error           
0.0035000000    2.0958672000    0.0246521440    
0.0037226610    1.8790460000    0.0228507160    
0.0039453220    1.6180850000    0.0192902750    
0.0041679830    1.2811062000    0.0140959750    
0.0043906440    0.9710067800    0.0117381320    
0.0046133050    0.7678731600    0.0100206630    
0.0048359660    0.5971857900    0.0083589963    
0.0050586270    0.4518099800    0.0071464235    
0.0052812880    0.4131872400    0.0064615743    
0.0055039490    0.3725616300    0.0058341087    
0.0057266100    0.3165305400    0.0052023243    
0.0059492710    0.2662550600    0.0047713202    
0.0061719320    0.2201630800    0.0041808978    
0.0063945930    0.1936508900    0.0039686226    
0.0066172539    0.1800685100    0.0035934732    
0.0068399149    0.1664522400    0.0034005270    
0.0070625759    0.1497168600    0.0031919742    
0.0072852369    0.1196495300    0.0028108126    
0.0075078979    0.1147496000    0.0027391298    
0.0077305589    0.1010448000    0.0025213967    
0.0079532199    0.0954492320    0.0024166299    
0.0081758809    0.0910004370    0.0023815903    
0.0083985419    0.0822536040    0.0021118455    
0.0086212029    0.0775363690    0.0020503946    
0.0088438639    0.0701601230    0.0019347616    
0.0090665249    0.0663935210    0.0018178071    
0.0092891859    0.0653908430    0.0018829695    
0.0095118469    0.0615272820    0.0017564891    
0.0097345079    0.0565701010    0.0016357667    
0.0099571689    0.0512214150    0.0015244199    
0.0101798300    0.0506316290    0.0015156182    
0.0104024910    0.0488926010    0.0014843225    
0.0106251520    0.0464123440    0.0014510945    
0.0108478130    0.0476311650    0.0014315858    
0.0110704740    0.0433694630    0.0013005638    
0.0112931350    0.0423692030    0.0012892538    
0.0115157960    0.0395112960    0.0012377536    
0.0117384570    0.0378431110    0.0012009148    
0.0119611180    0.0361058340    0.0011763916    
0.0121837790    0.0385333390    0.0011948681    
0.0124064400    0.0350475010    0.0010920398    
0.0126291010    0.0352706300    0.0010817990    
0.0128517620    0.0344466060    0.0010717569    
0.0130744230    0.0338061370    0.0010538720    
0.0132970840    0.0320448820    0.0010210348    
0.0135197450    0.0329985190    0.0010212785    
0.0137424060    0.0310411750    0.0009767366    
0.0139650670    0.0321416440    0.0009717609    
0.0141877280    0.0291558180    0.0009275702    
0.0144103890    0.0286150620    0.0009030834    
0.0146330500    0.0285342570    0.0008960817    
0.0148557110    0.0282954840    0.0008885833    
0.0150783720    0.0284609680    0.0008838128    
0.0153010330    0.0267303730    0.0008444446    
0.0155236940    0.0271515190    0.0008460100    
0.0157463550    0.0276697860    0.0008392494    
0.0159690160    0.0270812390    0.0008271250    
0.0161916770    0.0266520700    0.0008159222    
0.0164143380    0.0256373610    0.0008063020    
0.0166369990    0.0244142770    0.0007625739    
0.0168596600    0.0258346380    0.0007775312    
0.0170823210    0.0241703550    0.0007455584    
0.0173049820    0.0240924570    0.0007456428    
0.0175276430    0.0239905340    0.0007519103    
0.0177503040    0.0251328760    0.0007499845    
0.0179729650    0.0243735790    0.0007312439    
0.0181956260    0.0234057970    0.0007028419    
0.0184182870    0.0233738490    0.0006990518    
0.0186409480    0.0238400470    0.0007104572    
0.0188636090    0.0235620270    0.0007018603    
0.0190862700    0.0236134520    0.0007015272    
0.0193089310    0.0240593130    0.0007070155    
0.0195315920    0.0227221290    0.0006637205    
0.0197542530    0.0228078260    0.0006659397    
0.0199769140    0.0233522670    0.0006738412    
0.0201995750    0.0225136010    0.0006512699    
0.0204222360    0.0223459990    0.0006544109    
0.0206448970    0.0237109880    0.0006693107    
0.0208675580    0.0223639300    0.0006366350    
0.0210902190    0.0223357250    0.0006423724    
0.0213128800    0.0230819350    0.0006441540    
0.0215355410    0.0217454790    0.0006177793    
0.0217582020    0.0221842590    0.0006239810    
0.0219808630    0.0216709170    0.0006159096    
0.0222035240    0.0212111990    0.0006038202    
0.0224261850    0.0215613410    0.0006033653    
0.0226488460    0.0212886310    0.0005950353    
0.0228715070    0.0214146770    0.0005953117    
0.0230941680    0.0212326450    0.0005927762    
0.0233168290    0.0207398080    0.0005873156    
0.0235394900    0.0212768200    0.0005883054    
0.0237621510    0.0216869150    0.0005779582    
0.0239848120    0.0222002750    0.0005854353    
0.0242074730    0.0219982150    0.0005781002    
0.0244301340    0.0219418610    0.0005780181    
0.0246527950    0.0218382570    0.0005819915    
0.0248754560    0.0215790750    0.0005655254    
0.0250981170    0.0211246020    0.0005607862    
0.0253207780    0.0207086520    0.0005386599    
0.0255434390    0.0196359870    0.0005301218    
0.0257661000    0.0201233440    0.0005383962    
0.0259887610    0.0216437340    0.0005524309    
0.0262114220    0.0212051930    0.0005497190    
0.0264340830    0.0212421780    0.0005427123    
0.0266567440    0.0207202750    0.0005326919    
0.0268794050    0.0208367330    0.0005320065    
0.0271020660    0.0210052030    0.0005319904    
0.0273247270    0.0205406590    0.0005229154    
0.0275473880    0.0200612200    0.0005157484    
0.0277700490    0.0210564280    0.0005252629    
0.0279927100    0.0204330870    0.0005129152    
0.0282153710    0.0203202320    0.0005139835    
0.0284380320    0.0203551860    0.0005114433    
0.0286606930    0.0193135020    0.0004939208    
0.0288833540    0.0210099230    0.0005161349    
0.0291060150    0.0202233960    0.0005059012    
0.0293286760    0.0203651140    0.0005005966    
0.0295513370    0.0204055500    0.0004956367    
0.0297739980    0.0202297790    0.0004989307    
0.0299966590    0.0207334920    0.0004964771    
0.0302193200    0.0205957060    0.0005020357    
0.0304419810    0.0210400530    0.0005083562    
0.0306646420    0.0206462740    0.0004893636    
0.0308873030    0.0200658340    0.0004803519    
0.0311099640    0.0203204380    0.0004846449    
0.0313326250    0.0200648820    0.0004762527    
0.0315552860    0.0209826930    0.0004933350    
0.0317779470    0.0198457130    0.0004802007    
0.0320006080    0.0201859510    0.0004732960    
0.0322232690    0.0210043500    0.0004848162    
0.0324459300    0.0201407040    0.0004712001    
0.0326685910    0.0195249740    0.0004631768    
0.0328912520    0.0202517710    0.0004732808    
0.0331139130    0.0202885920    0.0004675486    
0.0333365740    0.0205832330    0.0004724605    
0.0335592350    0.0198276440    0.0004592489    
0.0337818960    0.0206881820    0.0004687355    
0.0340045570    0.0198920480    0.0004588979    
0.0342272170    0.0208592670    0.0004680685    
0.0344498780    0.0201355620    0.0004616985    
0.0346725390    0.0198963580    0.0004504483    
0.0348952000    0.0197154940    0.0004463536    
0.0351178610    0.0205898500    0.0004582316    
0.0353405220    0.0203218390    0.0004531657    
0.0355631830    0.0205000260    0.0004534339    
0.0357858440    0.0199083050    0.0004468420    
0.0360085050    0.0202205030    0.0004516927    
0.0362311660    0.0192599020    0.0004355928    
0.0364538270    0.0197565910    0.0004376328    
0.0366764880    0.0196795290    0.0004364616    
0.0368991490    0.0198361750    0.0004359862    
0.0371218100    0.0198371740    0.0004347499    
0.0373444710    0.0203884170    0.0004455487    
0.0375671320    0.0204261580    0.0004453114    
0.0377897930    0.0205982920    0.0004356075    
0.0380124540    0.0197568720    0.0004292944    
0.0382351150    0.0196076360    0.0004276701    
0.0384577760    0.0193866290    0.0004211500    
0.0386804370    0.0198322780    0.0004292138    
0.0389030980    0.0202192110    0.0004300986    
0.0391257590    0.0204690820    0.0004298103    
0.0393484200    0.0194619770    0.0004176929    
0.0395710810    0.0200627590    0.0004246622    
0.0397937420    0.0206919820    0.0004312702    
0.0400164030    0.0208063090    0.0004342193    
0.0402390640    0.0196030450    0.0004158642    
0.0404617250    0.0196339890    0.0004137370    
0.0406843860    0.0197096190    0.0004105280    
0.0409070470    0.0191010040    0.0004083500    
0.0411297080    0.0200688600    0.0004145185    
0.0413523690    0.0188729500    0.0004030143    
0.0415750300    0.0201665070    0.0004201356    
0.0417976910    0.0201003360    0.0004085974    
0.0420203520    0.0198750910    0.0004078282    
0.0422430130    0.0205233490    0.0004159949    
0.0424656740    0.0199268770    0.0004045702    
0.0426883350    0.0198763010    0.0004060618    
0.0429109960    0.0194497610    0.0004029362    
0.0431336570    0.0202362530    0.0004052116    
0.0433563180    0.0192579110    0.0003987051    
0.0435789790    0.0196092310    0.0003960047    
0.0438016400    0.0200010240    0.0004021169    
0.0440243010    0.0200408090    0.0003984327    
0.0442469620    0.0196483980    0.0003968766    
0.0444696230    0.0199454820    0.0003984318    
0.0446922840    0.0199933470    0.0003977250    
0.0449149450    0.0196240990    0.0003887676    
0.0451376060    0.0193777490    0.0003910908    
0.0453602670    0.0187571940    0.0003807439    
0.0455829280    0.0199089960    0.0003918062    
0.0458055890    0.0194553890    0.0003895755    
0.0460282500    0.0190879890    0.0003812264    
0.0462509110    0.0190543130    0.0003785210    
0.0464735720    0.0202501950    0.0003904389    
0.0466962330    0.0195459280    0.0003853332    
0.0469188940    0.0197902810    0.0003866351    
0.0471415550    0.0197727790    0.0003884490    
0.0473642160    0.0197200210    0.0003824986    
0.0475868770    0.0195686490    0.0003791349    
0.0478095380    0.0195142630    0.0003769509    
0.0480321990    0.0196291220    0.0003788869    
0.0482548600    0.0197339430    0.0003782421    
0.0484775210    0.0194918390    0.0003796471    
0.0487001820    0.0196504910    0.0003756090    
0.0489228430    0.0197369560    0.0003762322    
0.0491455040    0.0200095040    0.0003762009    
0.0493681650    0.0189446500    0.0003691995    
0.0495908260    0.0196965640    0.0003701211    
0.0498134870    0.0199386770    0.0003759339    
0.0500361480    0.0194948820    0.0003707431    
0.0502588090    0.0191134370    0.0003615976    
0.0504814700    0.0196375020    0.0003713129    
0.0507041310    0.0195366370    0.0003659547    
0.0509267920    0.0194014090    0.0003661947    
0.0511494530    0.0190548750    0.0003604897    
0.0513721140    0.0193086850    0.0003660784    
0.0515947750    0.0196718140    0.0003646056    
0.0518174360    0.0196158010    0.0003618930    
0.0520400970    0.0193249690    0.0003567096    
0.0522627580    0.0195142010    0.0003614981    
0.0524854190    0.0197987880    0.0003670851    
0.0527080800    0.0196089070    0.0003681491    
0.0529307410    0.0198842280    0.0003724657    
0.0531534020    0.0197120040    0.0003694991    
0.0533760630    0.0195359140    0.0003689965    
0.0535987240    0.0194782060    0.0003667308    
0.0538213850    0.0189571090    0.0003659837    
0.0540440460    0.0199399190    0.0003735744    
0.0542667070    0.0197686730    0.0003745303    
0.0544893680    0.0203651100    0.0003803408    
0.0547120290    0.0198207960    0.0003726530    
0.0549346900    0.0193857690    0.0003687347    
0.0551573510    0.0191340740    0.0003706456    
0.0553800120    0.0194947750    0.0003709423    
0.0556026730    0.0196202860    0.0003798503    
0.0558253340    0.0197857360    0.0003846425    
0.0560479950    0.0197259350    0.0003840610    
0.0562706560    0.0193926490    0.0003844843    
0.0564933170    0.0197464240    0.0003913445    
0.0567159780    0.0200479990    0.0003895938    
0.0569386390    0.0200101640    0.0003953312    
0.0571613000    0.0199578410    0.0003863129    
0.0573839610    0.0193042220    0.0003767798    
0.0576066220    0.0196183030    0.0003808841    
0.0578292830    0.0194299200    0.0003777967    
0.0580519440    0.0196623260    0.0003815231    
0.0582746050    0.0198561920    0.0003817087    
0.0584972660    0.0196971910    0.0003787221    
0.0587199270    0.0201534640    0.0003797811    
0.0589425880    0.0196000990    0.0003723403    
0.0591652490    0.0200246840    0.0003785662    
0.0593879100    0.0191078790    0.0003670522    
0.0596105710    0.0204466460    0.0003792925    
0.0598332320    0.0196883780    0.0003753744    
0.0600558930    0.0196359660    0.0003724843    
0.0602785540    0.0194887090    0.0003706927    
0.0605012150    0.0191398660    0.0003665861    
0.0607238760    0.0200866310    0.0003728066    
0.0609465370    0.0194060780    0.0003693215    
0.0611691980    0.0197778820    0.0003734336    
0.0613918590    0.0198174460    0.0003697259    
0.0616145200    0.0198566250    0.0003727999    
0.0618371810    0.0197635840    0.0003682726    
0.0620598420    0.0202306990    0.0003729835    
0.0622825030    0.0193372710    0.0003702312    
0.0625051640    0.0194869990    0.0003664420    
0.0627278250    0.0193176160    0.0003640947    
0.0629504860    0.0196529230    0.0003642554    
0.0631731470    0.0198446970    0.0003705569    
0.0633958080    0.0193318600    0.0003678424    
0.0636184690    0.0194351640    0.0003739607    
0.0638411300    0.0197108810    0.0003751902    
0.0640637910    0.0193155780    0.0003740212    
0.0642864520    0.0196214740    0.0003761555    
0.0645091130    0.0192697540    0.0003760355    
0.0647317740    0.0202168400    0.0003855901    
0.0649544350    0.0194605880    0.0003778933    
0.0651770960    0.0197061210    0.0003781954    
0.0653997570    0.0197435990    0.0003777339    
0.0656224180    0.0192851880    0.0003741348    
0.0658450790    0.0193200280    0.0003690902    
0.0660677400    0.0197763890    0.0003750131    
0.0662904010    0.0189479040    0.0003714561    
0.0665130620    0.0197223470    0.0003773273    
0.0667357230    0.0197419230    0.0003842267    
0.0669583840    0.0195209040    0.0003807915    
0.0671810450    0.0196952900    0.0003803768    
0.0674037060    0.0196085480    0.0003859681    
0.0676263670    0.0200411720    0.0003873459    
0.0678490280    0.0199077190    0.0003836931    
0.0680716890    0.0196324420    0.0003818790    
0.0682943500    0.0196988490    0.0003783346    
0.0685170110    0.0199757290    0.0003771020    
0.0687396720    0.0194519360    0.0003711364    
0.0689623330    0.0197299190    0.0003725944    
0.0691849940    0.0199186530    0.0003769661    
0.0694076550    0.0196978520    0.0003746708    
0.0696303160    0.0196256660    0.0003710228    
0.0698529770    0.0198787590    0.0003726249    
0.0700756380    0.0200114960    0.0003690676    
0.0702982990    0.0195663570    0.0003689140    
0.0705209600    0.0197373210    0.0003678471    
0.0707436210    0.0195360760    0.0003642863    
0.0709662820    0.0186482760    0.0003601557    
0.0711889430    0.0196655410    0.0003653059    
0.0714116040    0.0192485190    0.0003621497    
0.0716342650    0.0194169320    0.0003622537    
0.0718569260    0.0186909930    0.0003539859    
0.0720795870    0.0198022120    0.0003658305    
0.0723022480    0.0193067280    0.0003617751    
0.0725249090    0.0194161860    0.0003584544    
0.0727475700    0.0193252200    0.0003606682    
0.0729702310    0.0191771720    0.0003564185    
0.0731928920    0.0193240910    0.0003592112    
0.0734155530    0.0184024150    0.0003498406    
0.0736382140    0.0192043370    0.0003550883    
0.0738608750    0.0194200190    0.0003593836    
0.0740835360    0.0198597500    0.0003625273    
0.0743061970    0.0192529310    0.0003519196    
0.0745288580    0.0197756480    0.0003603323    
0.0747515190    0.0187925940    0.0003519558    
0.0749741800    0.0195850350    0.0003559739    
0.0751968410    0.0191577150    0.0003548333    
0.0754195020    0.0187974890    0.0003494223    
0.0756421630    0.0198843520    0.0003564443    
0.0758648240    0.0189399750    0.0003487132    
0.0760874850    0.0194541650    0.0003532453    
0.0763101460    0.0195961040    0.0003541914    
0.0765328070    0.0196659730    0.0003584530    
0.0767554680    0.0195224450    0.0003547191    
0.0769781290    0.0191776630    0.0003495525    
0.0772007900    0.0192098340    0.0003470398    
0.0774234510    0.0197079900    0.0003535101    
0.0776461120    0.0192529050    0.0003490733    
0.0778687730    0.0199935540    0.0003545492    
0.0780914340    0.0197127040    0.0003545657    
0.0783140950    0.0196974610    0.0003488052    
0.0785367560    0.0200380090    0.0003574798    
0.0787594170    0.0193798940    0.0003484105    
0.0789820780    0.0191817990    0.0003448492    
0.0792047390    0.0196194460    0.0003499012    
0.0794274000    0.0193392310    0.0003488654    
0.0796500610    0.0201607440    0.0003527215    
0.0798727220    0.0190948820    0.0003429542    
0.0800953830    0.0196816050    0.0003473825    
0.0803180440    0.0200873300    0.0003533896    
0.0805407050    0.0198514110    0.0003509815    
0.0807633660    0.0196349490    0.0003487387    
0.0809860270    0.0194410160    0.0003457308    
0.0812086880    0.0195173530    0.0003434153    
0.0814313490    0.0200738470    0.0003498652    
0.0816540100    0.0189749230    0.0003393794    
0.0818766710    0.0199702430    0.0003489617    
0.0820993320    0.0192838870    0.0003422876    
0.0823219930    0.0201048720    0.0003509393    
0.0825446540    0.0195541940    0.0003435852    
0.0827673150    0.0197926620    0.0003433516    
0.0829899760    0.0195442030    0.0003405823    
0.0832126370    0.0195220580    0.0003419139    
0.0834352980    0.0197985150    0.0003435565    
0.0836579590    0.0194255870    0.0003395480    
0.0838806200    0.0190576240    0.0003373691    
0.0841032810    0.0191579560    0.0003361562    
0.0843259420    0.0200073900    0.0003424698    
0.0845486030    0.0197260380    0.0003400536    
0.0847712640    0.0200017310    0.0003403348    
0.0849939250    0.0194729130    0.0003363905    
0.0852165860    0.0199143250    0.0003406274    
0.0854392470    0.0197047130    0.0003356213    
0.0856619080    0.0192070950    0.0003337967    
0.0858845690    0.0194893420    0.0003332120    
0.0861072300    0.0196034060    0.0003364927    
0.0863298910    0.0195874570    0.0003381171    
0.0865525520    0.0192793240    0.0003325505    
0.0867752130    0.0195846430    0.0003324688    
0.0869978740    0.0194009550    0.0003317493    
0.0872205350    0.0192780610    0.0003302762    
0.0874431960    0.0188876630    0.0003269151    
0.0876658570    0.0196544900    0.0003347658    
0.0878885180    0.0202254360    0.0003401756    
0.0881111790    0.0190093750    0.0003293673    
0.0883338400    0.0195040400    0.0003287405    
0.0885565010    0.0190518510    0.0003293133    
0.0887791620    0.0193872210    0.0003278913    
0.0890018230    0.0189679750    0.0003274724    
0.0892244840    0.0194636610    0.0003322876    
0.0894471450    0.0198845860    0.0003344428    
0.0896698060    0.0196455350    0.0003311725    
0.0898924670    0.0197999120    0.0003340122    
0.0901151280    0.0192256250    0.0003255776    
0.0903377890    0.0190890690    0.0003271344    
0.0905604500    0.0193031010    0.0003274535    
0.0907831110    0.0185273260    0.0003200079    
0.0910057720    0.0195177370    0.0003299571    
0.0912284330    0.0188219290    0.0003193830    
0.0914510940    0.0191166030    0.0003254627    
0.0916737550    0.0194022770    0.0003270718    
0.0918964160    0.0193860900    0.0003282950    
0.0921190770    0.0194411070    0.0003257879    
0.0923417380    0.0193587110    0.0003252302    
0.0925643990    0.0195685630    0.0003261880    
0.0927870600    0.0198006540    0.0003294623    
0.0930097210    0.0194486440    0.0003237396    
0.0932323820    0.0194895440    0.0003264621    
