# Diamond Light Source Ltd.
# Data extracted from: /dls/b21/data/2018/cm19678-3/processed/b21-386631_00625.dat
q(1/A)          Column          Error           
0.0035000000    2.0869829000    0.0245987460    
0.0037226610    1.8633190000    0.0227538780    
0.0039453220    1.5556243000    0.0189134530    
0.0041679830    1.2916932000    0.0141534700    
0.0043906440    0.9634006000    0.0116915480    
0.0046133050    0.7770886900    0.0100801670    
0.0048359660    0.5851994400    0.0082743152    
0.0050586270    0.4678197200    0.0072716138    
0.0052812880    0.4203243400    0.0065168522    
0.0055039490    0.3777355300    0.0058742183    
0.0057266100    0.3154764900    0.0051934244    
0.0059492710    0.2729855100    0.0048310345    
0.0061719320    0.2232396600    0.0042098216    
0.0063945930    0.1949348800    0.0039815808    
0.0066172539    0.1823470900    0.0036159769    
0.0068399149    0.1715083700    0.0034516344    
0.0070625759    0.1482065300    0.0031756921    
0.0072852369    0.1229401900    0.0028490761    
0.0075078979    0.1112089600    0.0026964205    
0.0077305589    0.1006583500    0.0025164588    
0.0079532199    0.0968478920    0.0024341633    
0.0081758809    0.0871906180    0.0023311000    
0.0083985419    0.0835474910    0.0021282963    
0.0086212029    0.0750355260    0.0020169674    
0.0088438639    0.0706340310    0.0019411987    
0.0090665249    0.0638993320    0.0017832564    
0.0092891859    0.0598549570    0.0018014225    
0.0095118469    0.0614716760    0.0017556172    
0.0097345079    0.0560448280    0.0016280823    
0.0099571689    0.0562977230    0.0015981036    
0.0101798300    0.0516251570    0.0015303482    
0.0104024910    0.0479870920    0.0014704479    
0.0106251520    0.0472701520    0.0014643778    
0.0108478130    0.0459059970    0.0014053588    
0.0110704740    0.0421956750    0.0012827863    
0.0112931350    0.0410709390    0.0012692913    
0.0115157960    0.0412912590    0.0012652703    
0.0117384570    0.0372681520    0.0011917041    
0.0119611180    0.0382871800    0.0012113528    
0.0121837790    0.0343064450    0.0011273797    
0.0124064400    0.0340577010    0.0010764610    
0.0126291010    0.0360305750    0.0010933426    
0.0128517620    0.0333432200    0.0010544052    
0.0130744230    0.0336717320    0.0010517282    
0.0132970840    0.0320745650    0.0010214623    
0.0135197450    0.0324583040    0.0010128394    
0.0137424060    0.0324520480    0.0009986428    
0.0139650670    0.0281434730    0.0009092743    
0.0141877280    0.0303335210    0.0009460765    
0.0144103890    0.0300089480    0.0009247761    
0.0146330500    0.0289256510    0.0009021663    
0.0148557110    0.0281813610    0.0008867502    
0.0150783720    0.0283486680    0.0008820282    
0.0153010330    0.0271014430    0.0008502479    
0.0155236940    0.0260156970    0.0008280888    
0.0157463550    0.0270055510    0.0008290779    
0.0159690160    0.0253864060    0.0008007892    
0.0161916770    0.0260502720    0.0008066221    
0.0164143380    0.0246715490    0.0007909336    
0.0166369990    0.0265079770    0.0007945642    
0.0168596600    0.0255749560    0.0007735792    
0.0170823210    0.0255939250    0.0007671659    
0.0173049820    0.0232134660    0.0007318819    
0.0175276430    0.0236820670    0.0007470275    
0.0177503040    0.0236760650    0.0007278916    
0.0179729650    0.0241081770    0.0007272195    
0.0181956260    0.0248176490    0.0007236973    
0.0184182870    0.0232881530    0.0006977381    
0.0186409480    0.0243460200    0.0007179250    
0.0188636090    0.0234972190    0.0007008633    
0.0190862700    0.0232362400    0.0006958705    
0.0193089310    0.0240571760    0.0007069527    
0.0195315920    0.0223905520    0.0006588307    
0.0197542530    0.0237584720    0.0006796462    
0.0199769140    0.0232335390    0.0006720962    
0.0201995750    0.0228318490    0.0006558277    
0.0204222360    0.0229380660    0.0006629942    
0.0206448970    0.0218386190    0.0006423123    
0.0208675580    0.0211296810    0.0006187905    
0.0210902190    0.0223891590    0.0006431118    
0.0213128800    0.0215160610    0.0006218930    
0.0215355410    0.0218488430    0.0006192183    
0.0217582020    0.0222173870    0.0006244190    
0.0219808630    0.0217740110    0.0006173454    
0.0222035240    0.0213640020    0.0006059643    
0.0224261850    0.0226399290    0.0006182451    
0.0226488460    0.0215029330    0.0005979962    
0.0228715070    0.0218264690    0.0006009815    
0.0230941680    0.0204364670    0.0005815303    
0.0233168290    0.0212701350    0.0005947507    
0.0235394900    0.0216002350    0.0005927334    
0.0237621510    0.0201756640    0.0005574324    
0.0239848120    0.0214727670    0.0005757374    
0.0242074730    0.0205531360    0.0005587650    
0.0244301340    0.0205239420    0.0005590052    
0.0246527950    0.0218828430    0.0005825594    
0.0248754560    0.0210436570    0.0005584407    
0.0250981170    0.0205124140    0.0005525762    
0.0253207780    0.0214913740    0.0005487209    
0.0255434390    0.0208649610    0.0005464354    
0.0257661000    0.0208129200    0.0005475189    
0.0259887610    0.0204152070    0.0005364997    
0.0262114220    0.0206190780    0.0005420445    
0.0264340830    0.0207827650    0.0005367876    
0.0266567440    0.0203076260    0.0005273374    
0.0268794050    0.0218127900    0.0005443001    
0.0271020660    0.0200198580    0.0005193398    
0.0273247270    0.0206852550    0.0005247294    
0.0275473880    0.0203378570    0.0005192691    
0.0277700490    0.0212117790    0.0005271736    
0.0279927100    0.0204441460    0.0005130311    
0.0282153710    0.0208514110    0.0005206349    
0.0284380320    0.0207645570    0.0005165377    
0.0286606930    0.0201959100    0.0005050556    
0.0288833540    0.0202473540    0.0005066591    
0.0291060150    0.0203228340    0.0005071209    
0.0293286760    0.0207447330    0.0005052183    
0.0295513370    0.0206324520    0.0004983626    
0.0297739980    0.0210523580    0.0005089507    
0.0299966590    0.0205533390    0.0004942935    
0.0302193200    0.0203124390    0.0004985492    
0.0304419810    0.0211364360    0.0005094966    
0.0306646420    0.0209459880    0.0004928809    
0.0308873030    0.0202135250    0.0004820950    
0.0311099640    0.0202492860    0.0004837742    
0.0313326250    0.0201648270    0.0004774161    
0.0315552860    0.0212823770    0.0004968235    
0.0317779470    0.0199833690    0.0004818418    
0.0320006080    0.0207500680    0.0004798425    
0.0322232690    0.0197828410    0.0004704869    
0.0324459300    0.0205577870    0.0004760329    
0.0326685910    0.0205340090    0.0004749732    
0.0328912520    0.0207918890    0.0004795292    
0.0331139130    0.0196619180    0.0004602507    
0.0333365740    0.0193235310    0.0004577545    
0.0335592350    0.0206235980    0.0004683554    
0.0337818960    0.0201553800    0.0004626397    
0.0340045570    0.0203031180    0.0004635947    
0.0342272170    0.0198807080    0.0004569372    
0.0344498780    0.0196256660    0.0004557950    
0.0346725390    0.0198639990    0.0004500619    
0.0348952000    0.0195116540    0.0004440204    
0.0351178610    0.0197518550    0.0004487899    
0.0353405220    0.0201482590    0.0004512061    
0.0355631830    0.0194351860    0.0004414808    
0.0357858440    0.0199065370    0.0004468024    
0.0360085050    0.0199664780    0.0004488266    
0.0362311660    0.0204304290    0.0004486143    
0.0364538270    0.0199196210    0.0004394153    
0.0366764880    0.0200359110    0.0004403763    
0.0368991490    0.0202943420    0.0004409730    
0.0371218100    0.0198639930    0.0004350243    
0.0373444710    0.0200750630    0.0004420919    
0.0375671320    0.0202204880    0.0004430442    
0.0377897930    0.0200898410    0.0004301785    
0.0380124540    0.0200535890    0.0004324868    
0.0382351150    0.0198577300    0.0004303698    
0.0384577760    0.0198057210    0.0004256589    
0.0386804370    0.0194125420    0.0004246286    
0.0389030980    0.0190921920    0.0004179214    
0.0391257590    0.0200340940    0.0004252000    
0.0393484200    0.0201414910    0.0004249033    
0.0395710810    0.0201778190    0.0004258592    
0.0397937420    0.0200879540    0.0004249100    
0.0400164030    0.0199527100    0.0004252000    
0.0402390640    0.0198571260    0.0004185320    
0.0404617250    0.0195014800    0.0004123202    
0.0406843860    0.0203491230    0.0004171163    
0.0409070470    0.0202340920    0.0004202687    
0.0411297080    0.0202468590    0.0004163342    
0.0413523690    0.0197317970    0.0004120639    
0.0415750300    0.0201559630    0.0004200071    
0.0417976910    0.0198743100    0.0004062756    
0.0420203520    0.0198733250    0.0004077920    
0.0422430130    0.0190544990    0.0004008144    
0.0424656740    0.0196130070    0.0004013535    
0.0426883350    0.0193353680    0.0004004804    
0.0429109960    0.0200406560    0.0004089930    
0.0431336570    0.0196259610    0.0003990368    
0.0433563180    0.0197101620    0.0004033416    
0.0435789790    0.0197274370    0.0003971788    
0.0438016400    0.0191019480    0.0003929577    
0.0440243010    0.0197697290    0.0003957113    
0.0442469620    0.0195504630    0.0003958687    
0.0444696230    0.0198720850    0.0003976804    
0.0446922840    0.0197937920    0.0003957176    
0.0449149450    0.0203385560    0.0003957637    
0.0451376060    0.0197311890    0.0003946238    
0.0453602670    0.0206024870    0.0003990153    
0.0455829280    0.0188740870    0.0003814699    
0.0458055890    0.0201790780    0.0003967374    
0.0460282500    0.0199237450    0.0003894656    
0.0462509110    0.0199999880    0.0003877831    
0.0464735720    0.0203763600    0.0003916359    
0.0466962330    0.0197188970    0.0003870172    
0.0469188940    0.0205362570    0.0003938372    
0.0471415550    0.0193131830    0.0003838909    
0.0473642160    0.0194066940    0.0003794309    
0.0475868770    0.0196917740    0.0003803089    
0.0478095380    0.0196144610    0.0003779006    
0.0480321990    0.0191154870    0.0003738803    
0.0482548600    0.0193697330    0.0003747187    
0.0484775210    0.0203995470    0.0003883691    
0.0487001820    0.0193256930    0.0003724754    
0.0489228430    0.0195774360    0.0003746921    
0.0491455040    0.0193146350    0.0003695946    
0.0493681650    0.0197631330    0.0003770739    
0.0495908260    0.0200981690    0.0003738588    
0.0498134870    0.0195258350    0.0003720050    
0.0500361480    0.0197046490    0.0003727158    
0.0502588090    0.0187492040    0.0003581198    
0.0504814700    0.0201412190    0.0003760283    
0.0507041310    0.0191167860    0.0003619850    
0.0509267920    0.0197452440    0.0003694089    
0.0511494530    0.0196328250    0.0003658996    
0.0513721140    0.0197233670    0.0003699721    
0.0515947750    0.0192916660    0.0003610494    
0.0518174360    0.0190666270    0.0003567753    
0.0520400970    0.0194746780    0.0003580727    
0.0522627580    0.0193383680    0.0003598498    
0.0524854190    0.0193070370    0.0003624816    
0.0527080800    0.0202429980    0.0003740375    
0.0529307410    0.0193383100    0.0003673008    
0.0531534020    0.0190453960    0.0003631815    
0.0533760630    0.0199662590    0.0003730220    
0.0535987240    0.0194488600    0.0003664382    
0.0538213850    0.0196477960    0.0003725747    
0.0540440460    0.0190983520    0.0003655899    
0.0542667070    0.0198520580    0.0003753027    
0.0544893680    0.0190706190    0.0003680380    
0.0547120290    0.0191184680    0.0003659749    
0.0549346900    0.0198889860    0.0003734733    
0.0551573510    0.0196277330    0.0003753798    
0.0553800120    0.0191895670    0.0003680108    
0.0556026730    0.0193905910    0.0003776035    
0.0558253340    0.0195821010    0.0003826410    
0.0560479950    0.0198288600    0.0003850445    
0.0562706560    0.0196043490    0.0003865600    
0.0564933170    0.0197136490    0.0003910023    
0.0567159780    0.0201294920    0.0003903675    
0.0569386390    0.0193914220    0.0003891538    
0.0571613000    0.0202850550    0.0003894496    
0.0573839610    0.0198319470    0.0003818782    
0.0576066220    0.0188401790    0.0003732375    
0.0578292830    0.0196779320    0.0003801833    
0.0580519440    0.0196457750    0.0003813456    
0.0582746050    0.0194141970    0.0003774197    
0.0584972660    0.0192658550    0.0003745358    
0.0587199270    0.0198010230    0.0003764290    
0.0589425880    0.0200085720    0.0003761834    
0.0591652490    0.0189280150    0.0003680376    
0.0593879100    0.0195997000    0.0003717295    
0.0596105710    0.0202337680    0.0003772961    
0.0598332320    0.0196937850    0.0003754092    
0.0600558930    0.0203478080    0.0003791590    
0.0602785540    0.0201497050    0.0003769099    
0.0605012150    0.0195172780    0.0003701663    
0.0607238760    0.0200640910    0.0003725808    
0.0609465370    0.0196784470    0.0003718877    
0.0611691980    0.0199312320    0.0003748618    
0.0613918590    0.0197674050    0.0003692424    
0.0616145200    0.0197428840    0.0003717141    
0.0618371810    0.0199951280    0.0003704072    
0.0620598420    0.0185580580    0.0003572161    
0.0622825030    0.0189031960    0.0003660360    
0.0625051640    0.0193336850    0.0003649815    
0.0627278250    0.0199471830    0.0003699637    
0.0629504860    0.0194756600    0.0003625929    
0.0631731470    0.0191925730    0.0003644013    
0.0633958080    0.0193931300    0.0003684085    
0.0636184690    0.0196348940    0.0003758606    
0.0638411300    0.0186237000    0.0003646802    
0.0640637910    0.0199801080    0.0003803838    
0.0642864520    0.0199442030    0.0003792195    
0.0645091130    0.0197229610    0.0003804149    
0.0647317740    0.0194723310    0.0003784068    
0.0649544350    0.0197303440    0.0003804865    
0.0651770960    0.0192544000    0.0003738190    
0.0653997570    0.0193082760    0.0003735298    
0.0656224180    0.0201108420    0.0003820428    
0.0658450790    0.0196426340    0.0003721424    
0.0660677400    0.0201230530    0.0003782689    
0.0662904010    0.0198709600    0.0003803795    
0.0665130620    0.0191936540    0.0003722190    
0.0667357230    0.0195382810    0.0003822229    
0.0669583840    0.0193112030    0.0003787238    
0.0671810450    0.0192234220    0.0003757758    
0.0674037060    0.0191738000    0.0003816485    
0.0676263670    0.0197699050    0.0003846984    
0.0678490280    0.0196767210    0.0003814436    
0.0680716890    0.0196678350    0.0003822061    
0.0682943500    0.0196680370    0.0003780218    
0.0685170110    0.0199597180    0.0003769341    
0.0687396720    0.0188200420    0.0003650422    
0.0689623330    0.0196015230    0.0003713635    
0.0691849940    0.0189467200    0.0003676377    
0.0694076550    0.0199668880    0.0003772040    
0.0696303160    0.0198062750    0.0003727095    
0.0698529770    0.0189550810    0.0003638486    
0.0700756380    0.0191181290    0.0003607194    
0.0702982990    0.0190290780    0.0003637975    
0.0705209600    0.0192694270    0.0003634447    
0.0707436210    0.0189230430    0.0003585093    
0.0709662820    0.0196690190    0.0003698648    
0.0711889430    0.0200234140    0.0003685985    
0.0714116040    0.0190015410    0.0003598028    
0.0716342650    0.0196922770    0.0003647969    
0.0718569260    0.0194602340    0.0003611807    
0.0720795870    0.0198207260    0.0003659852    
0.0723022480    0.0196439350    0.0003649046    
0.0725249090    0.0198114850    0.0003620688    
0.0727475700    0.0197946440    0.0003650062    
0.0729702310    0.0189436410    0.0003542260    
0.0731928920    0.0194024950    0.0003599231    
0.0734155530    0.0195911460    0.0003609470    
0.0736382140    0.0198919570    0.0003613734    
0.0738608750    0.0193052420    0.0003583041    
0.0740835360    0.0194014040    0.0003583036    
0.0743061970    0.0199844770    0.0003585273    
0.0745288580    0.0193012080    0.0003559679    
0.0747515190    0.0189491090    0.0003534027    
0.0749741800    0.0191692450    0.0003521593    
0.0751968410    0.0194583030    0.0003575903    
0.0754195020    0.0194907580    0.0003557916    
0.0756421630    0.0197611940    0.0003553229    
0.0758648240    0.0188291570    0.0003476761    
0.0760874850    0.0195294000    0.0003539120    
0.0763101460    0.0192806990    0.0003513139    
0.0765328070    0.0192983810    0.0003550713    
0.0767554680    0.0193918190    0.0003535147    
0.0769781290    0.0191249940    0.0003490567    
0.0772007900    0.0197033760    0.0003514540    
0.0774234510    0.0198076880    0.0003543874    
0.0776461120    0.0195676180    0.0003518992    
0.0778687730    0.0197025890    0.0003519442    
0.0780914340    0.0199979120    0.0003571056    
0.0783140950    0.0194980740    0.0003470199    
0.0785367560    0.0196982540    0.0003544204    
0.0787594170    0.0197289080    0.0003515182    
0.0789820780    0.0200665700    0.0003526970    
0.0792047390    0.0198048950    0.0003515354    
0.0794274000    0.0196647350    0.0003517735    
0.0796500610    0.0190667790    0.0003430031    
0.0798727220    0.0193457090    0.0003451840    
0.0800953830    0.0193242700    0.0003441993    
0.0803180440    0.0198058030    0.0003508889    
0.0805407050    0.0193780710    0.0003467564    
0.0807633660    0.0198871360    0.0003509555    
0.0809860270    0.0191503440    0.0003431212    
0.0812086880    0.0202104480    0.0003494442    
0.0814313490    0.0194806330    0.0003446415    
0.0816540100    0.0191856690    0.0003412438    
0.0818766710    0.0191758270    0.0003419352    
0.0820993320    0.0194887250    0.0003440854    
0.0823219930    0.0199989570    0.0003499982    
0.0825446540    0.0195403840    0.0003434486    
0.0827673150    0.0191000390    0.0003372755    
0.0829899760    0.0201715280    0.0003459897    
0.0832126370    0.0194604450    0.0003413588    
0.0834352980    0.0196656120    0.0003423863    
0.0836579590    0.0195069460    0.0003402432    
0.0838806200    0.0189723260    0.0003365983    
0.0841032810    0.0192388240    0.0003368500    
0.0843259420    0.0193901460    0.0003371307    
0.0845486030    0.0190326170    0.0003340084    
0.0847712640    0.0195830470    0.0003367390    
0.0849939250    0.0192155180    0.0003341450    
0.0852165860    0.0194814480    0.0003368900    
0.0854392470    0.0195714950    0.0003344700    
0.0856619080    0.0202030720    0.0003423266    
0.0858845690    0.0195559690    0.0003337663    
0.0861072300    0.0195901140    0.0003363636    
0.0863298910    0.0197257820    0.0003392938    
0.0865525520    0.0191399550    0.0003313316    
0.0867752130    0.0192612250    0.0003296976    
0.0869978740    0.0196771750    0.0003340878    
0.0872205350    0.0196610830    0.0003335263    
0.0874431960    0.0191688790    0.0003293252    
0.0876658570    0.0186835050    0.0003263774    
0.0878885180    0.0193597730    0.0003328013    
0.0881111790    0.0193728890    0.0003324869    
0.0883338400    0.0200009450    0.0003328871    
0.0885565010    0.0195681050    0.0003337304    
0.0887791620    0.0193965890    0.0003279559    
0.0890018230    0.0201930220    0.0003378669    
0.0892244840    0.0198022750    0.0003351507    
0.0894471450    0.0195228480    0.0003313720    
0.0896698060    0.0193981730    0.0003290663    
0.0898924670    0.0198432260    0.0003343625    
0.0901151280    0.0195712380    0.0003284764    
0.0903377890    0.0190705560    0.0003269612    
0.0905604500    0.0196624200    0.0003304725    
0.0907831110    0.0196862980    0.0003298505    
0.0910057720    0.0195662010    0.0003303518    
0.0912284330    0.0192483600    0.0003229663    
0.0914510940    0.0195470680    0.0003290920    
0.0916737550    0.0196210770    0.0003288962    
0.0918964160    0.0190285890    0.0003252394    
0.0921190770    0.0187460910    0.0003198973    
0.0923417380    0.0191548430    0.0003234988    
0.0925643990    0.0190612080    0.0003219174    
0.0927870600    0.0198975600    0.0003302528    
0.0930097210    0.0191613290    0.0003213252    
0.0932323820    0.0192745620    0.0003246422    
