# Diamond Light Source Ltd.
# Data extracted from: /dls/b21/data/2018/cm19678-3/processed/b21-386631_00626.dat
q(1/A)          Column          Error           
0.0035000000    2.0944416000    0.0246421950    
0.0037226610    1.8599139000    0.0227326460    
0.0039453220    1.5907464000    0.0191254070    
0.0041679830    1.2848206000    0.0141154990    
0.0043906440    0.9720186100    0.0117435010    
0.0046133050    0.7784973900    0.0100891070    
0.0048359660    0.5926644400    0.0083267644    
0.0050586270    0.4491531300    0.0071249283    
0.0052812880    0.4291994800    0.0065851691    
0.0055039490    0.3812837000    0.0059016305    
0.0057266100    0.3203375100    0.0052331833    
0.0059492710    0.2604933300    0.0047191130    
0.0061719320    0.2160865000    0.0041417470    
0.0063945930    0.1964725700    0.0039971777    
0.0066172539    0.1809777900    0.0036023061    
0.0068399149    0.1685844400    0.0034220204    
0.0070625759    0.1420768800    0.0031092681    
0.0072852369    0.1281513600    0.0029087771    
0.0075078979    0.1166963200    0.0027620914    
0.0077305589    0.1026676100    0.0025414021    
0.0079532199    0.0987407130    0.0024577884    
0.0081758809    0.0907396050    0.0023780238    
0.0083985419    0.0815383800    0.0021025104    
0.0086212029    0.0776349590    0.0020515675    
0.0088438639    0.0707380370    0.0019425904    
0.0090665249    0.0659869850    0.0018121182    
0.0092891859    0.0617501820    0.0018296852    
0.0095118469    0.0614693370    0.0017555504    
0.0097345079    0.0560426950    0.0016280204    
0.0099571689    0.0517592720    0.0015323054    
0.0101798300    0.0503530260    0.0015113466    
0.0104024910    0.0484358310    0.0014772790    
0.0106251520    0.0476766210    0.0014706323    
0.0108478130    0.0450007920    0.0013914074    
0.0110704740    0.0429739960    0.0012945384    
0.0112931350    0.0402456350    0.0012564497    
0.0115157960    0.0415998450    0.0012699653    
0.0117384570    0.0402389270    0.0012382674    
0.0119611180    0.0355647160    0.0011674690    
0.0121837790    0.0366020270    0.0011644656    
0.0124064400    0.0352131660    0.0010945482    
0.0126291010    0.0354320350    0.0010842027    
0.0128517620    0.0333752920    0.0010548921    
0.0130744230    0.0317651960    0.0010214998    
0.0132970840    0.0331467930    0.0010383755    
0.0135197450    0.0311929170    0.0009928815    
0.0137424060    0.0317440250    0.0009876699    
0.0139650670    0.0308450130    0.0009518977    
0.0141877280    0.0306569350    0.0009510885    
0.0144103890    0.0280414830    0.0008939298    
0.0146330500    0.0270393900    0.0008722384    
0.0148557110    0.0277617690    0.0008801072    
0.0150783720    0.0271401400    0.0008630063    
0.0153010330    0.0264068970    0.0008392663    
0.0155236940    0.0288349440    0.0008717871    
0.0157463550    0.0255283110    0.0008060679    
0.0159690160    0.0246781830    0.0007895250    
0.0161916770    0.0239513510    0.0007734295    
0.0164143380    0.0254819770    0.0008038039    
0.0166369990    0.0265069680    0.0007945340    
0.0168596600    0.0240063180    0.0007494659    
0.0170823210    0.0257079230    0.0007688579    
0.0173049820    0.0265583320    0.0007828222    
0.0175276430    0.0244587560    0.0007591642    
0.0177503040    0.0254653460    0.0007548809    
0.0179729650    0.0252479120    0.0007441968    
0.0181956260    0.0232340060    0.0007002135    
0.0184182870    0.0240816260    0.0007095117    
0.0186409480    0.0240275490    0.0007132003    
0.0188636090    0.0237262710    0.0007042576    
0.0190862700    0.0235479390    0.0007005089    
0.0193089310    0.0235576850    0.0006995618    
0.0195315920    0.0227386310    0.0006639193    
0.0197542530    0.0217939720    0.0006509289    
0.0199769140    0.0226494080    0.0006635809    
0.0201995750    0.0225672560    0.0006520041    
0.0204222360    0.0225156240    0.0006568483    
0.0206448970    0.0227634380    0.0006557591    
0.0208675580    0.0219080720    0.0006300732    
0.0210902190    0.0218526130    0.0006353470    
0.0213128800    0.0222881370    0.0006329406    
0.0215355410    0.0220234980    0.0006216765    
0.0217582020    0.0215847910    0.0006154536    
0.0219808630    0.0212131000    0.0006093304    
0.0222035240    0.0225318910    0.0006222950    
0.0224261850    0.0216261330    0.0006042328    
0.0226488460    0.0216517810    0.0006000510    
0.0228715070    0.0206342460    0.0005843262    
0.0230941680    0.0205018780    0.0005824491    
0.0233168290    0.0211362880    0.0005928652    
0.0235394900    0.0211765330    0.0005868801    
0.0237621510    0.0214377520    0.0005745921    
0.0239848120    0.0211940960    0.0005719784    
0.0242074730    0.0212207230    0.0005677563    
0.0244301340    0.0214214300    0.0005710859    
0.0246527950    0.0226264020    0.0005923629    
0.0248754560    0.0214874230    0.0005642874    
0.0250981170    0.0209433000    0.0005583391    
0.0253207780    0.0206359770    0.0005376797    
0.0255434390    0.0211074390    0.0005495909    
0.0257661000    0.0209849620    0.0005497667    
0.0259887610    0.0205695120    0.0005385132    
0.0262114220    0.0212737470    0.0005505720    
0.0264340830    0.0201858260    0.0005290124    
0.0266567440    0.0205122490    0.0005299774    
0.0268794050    0.0209834860    0.0005338428    
0.0271020660    0.0210160090    0.0005320935    
0.0273247270    0.0210305400    0.0005290807    
0.0275473880    0.0202310220    0.0005178936    
0.0277700490    0.0207262240    0.0005210950    
0.0279927100    0.0203918730    0.0005123651    
0.0282153710    0.0213835820    0.0005272268    
0.0284380320    0.0209436510    0.0005187506    
0.0286606930    0.0197404670    0.0004993188    
0.0288833540    0.0208804780    0.0005145098    
0.0291060150    0.0203094060    0.0005069437    
0.0293286760    0.0212483930    0.0005113049    
0.0295513370    0.0213538950    0.0005069911    
0.0297739980    0.0205963210    0.0005033985    
0.0299966590    0.0201959480    0.0004899678    
0.0302193200    0.0213639570    0.0005112809    
0.0304419810    0.0203987700    0.0005005174    
0.0306646420    0.0203885080    0.0004862683    
0.0308873030    0.0205806790    0.0004864444    
0.0311099640    0.0202831880    0.0004841697    
0.0313326250    0.0204127200    0.0004803325    
0.0315552860    0.0199710400    0.0004812648    
0.0317779470    0.0199942260    0.0004819635    
0.0320006080    0.0201944850    0.0004733660    
0.0322232690    0.0200058670    0.0004731225    
0.0324459300    0.0201712160    0.0004715270    
0.0326685910    0.0203684350    0.0004730454    
0.0328912520    0.0202934380    0.0004737373    
0.0331139130    0.0200813260    0.0004651247    
0.0333365740    0.0204613450    0.0004710296    
0.0335592350    0.0198889430    0.0004599291    
0.0337818960    0.0199528550    0.0004603007    
0.0340045570    0.0202705900    0.0004632143    
0.0342272170    0.0194808820    0.0004523105    
0.0344498780    0.0200377410    0.0004605465    
0.0346725390    0.0195675380    0.0004466822    
0.0348952000    0.0203697560    0.0004536705    
0.0351178610    0.0206076310    0.0004584003    
0.0353405220    0.0201575960    0.0004513020    
0.0355631830    0.0196650920    0.0004440759    
0.0357858440    0.0195547960    0.0004428289    
0.0360085050    0.0201876710    0.0004512972    
0.0362311660    0.0193855130    0.0004369832    
0.0364538270    0.0201999560    0.0004424881    
0.0366764880    0.0200061120    0.0004400403    
0.0368991490    0.0197378430    0.0004348767    
0.0371218100    0.0200823520    0.0004374005    
0.0373444710    0.0196751490    0.0004376580    
0.0375671320    0.0205206360    0.0004463118    
0.0377897930    0.0198311690    0.0004273919    
0.0380124540    0.0199315760    0.0004311609    
0.0382351150    0.0199502430    0.0004313629    
0.0384577760    0.0203538350    0.0004315004    
0.0386804370    0.0200991110    0.0004320642    
0.0389030980    0.0196586290    0.0004240675    
0.0391257590    0.0203672210    0.0004287123    
0.0393484200    0.0188499970    0.0004110472    
0.0395710810    0.0198894500    0.0004227972    
0.0397937420    0.0190176710    0.0004134276    
0.0400164030    0.0195804570    0.0004212069    
0.0402390640    0.0198122650    0.0004180510    
0.0404617250    0.0200586480    0.0004181608    
0.0406843860    0.0203654480    0.0004172757    
0.0409070470    0.0196834090    0.0004145024    
0.0411297080    0.0201347990    0.0004151726    
0.0413523690    0.0204882770    0.0004198805    
0.0415750300    0.0202689690    0.0004211748    
0.0417976910    0.0196825420    0.0004043031    
0.0420203520    0.0199980800    0.0004090622    
0.0422430130    0.0199390150    0.0004100040    
0.0424656740    0.0205156730    0.0004104777    
0.0426883350    0.0199318410    0.0004066030    
0.0429109960    0.0200232000    0.0004088070    
0.0431336570    0.0196820050    0.0003995986    
0.0433563180    0.0197671860    0.0004039170    
0.0435789790    0.0199425840    0.0003993312    
0.0438016400    0.0193437250    0.0003954292    
0.0440243010    0.0204184390    0.0004021435    
0.0442469620    0.0197741520    0.0003981194    
0.0444696230    0.0198315380    0.0003972669    
0.0446922840    0.0199749880    0.0003975171    
0.0449149450    0.0196524120    0.0003890232    
0.0451376060    0.0194384280    0.0003916778    
0.0453602670    0.0202848730    0.0003959202    
0.0455829280    0.0206774410    0.0003992707    
0.0458055890    0.0194373200    0.0003893699    
0.0460282500    0.0197631150    0.0003878851    
0.0462509110    0.0200217820    0.0003879870    
0.0464735720    0.0204282740    0.0003921270    
0.0466962330    0.0201510940    0.0003912281    
0.0469188940    0.0194327990    0.0003831029    
0.0471415550    0.0194803160    0.0003855410    
0.0473642160    0.0201626100    0.0003867426    
0.0475868770    0.0189124910    0.0003727006    
0.0478095380    0.0204873760    0.0003862107    
0.0480321990    0.0199703170    0.0003821414    
0.0482548600    0.0201228780    0.0003819270    
0.0484775210    0.0199847330    0.0003843929    
0.0487001820    0.0198131070    0.0003771360    
0.0489228430    0.0194762980    0.0003737159    
0.0491455040    0.0197665140    0.0003738860    
0.0493681650    0.0195537500    0.0003750640    
0.0495908260    0.0194228550    0.0003675171    
0.0498134870    0.0194329590    0.0003711122    
0.0500361480    0.0199647380    0.0003751604    
0.0502588090    0.0196034930    0.0003661806    
0.0504814700    0.0195928900    0.0003708673    
0.0507041310    0.0195273030    0.0003658441    
0.0509267920    0.0194127690    0.0003662786    
0.0511494530    0.0184591990    0.0003547878    
0.0513721140    0.0192923550    0.0003659004    
0.0515947750    0.0198179690    0.0003659343    
0.0518174360    0.0191393350    0.0003574481    
0.0520400970    0.0193225170    0.0003566643    
0.0522627580    0.0201143520    0.0003669916    
0.0524854190    0.0196329510    0.0003655213    
0.0527080800    0.0193990900    0.0003661509    
0.0529307410    0.0201398180    0.0003748281    
0.0531534020    0.0199241880    0.0003714588    
0.0533760630    0.0199515610    0.0003728775    
0.0535987240    0.0201592150    0.0003730630    
0.0538213850    0.0195057530    0.0003712184    
0.0540440460    0.0202942880    0.0003768555    
0.0542667070    0.0191418200    0.0003685210    
0.0544893680    0.0195741620    0.0003728581    
0.0547120290    0.0197972640    0.0003724081    
0.0549346900    0.0193833090    0.0003686879    
0.0551573510    0.0196628810    0.0003757086    
0.0553800120    0.0193229260    0.0003692803    
0.0556026730    0.0187133780    0.0003709439    
0.0558253340    0.0191850930    0.0003787351    
0.0560479950    0.0198729650    0.0003854652    
0.0562706560    0.0206401850    0.0003966334    
0.0564933170    0.0202247210    0.0003960306    
0.0567159780    0.0205526470    0.0003944417    
0.0569386390    0.0193282090    0.0003885116    
0.0571613000    0.0201123190    0.0003877805    
0.0573839610    0.0195517760    0.0003791640    
0.0576066220    0.0193718170    0.0003784598    
0.0578292830    0.0201692960    0.0003848934    
0.0580519440    0.0191786990    0.0003767779    
0.0582746050    0.0193474260    0.0003767629    
0.0584972660    0.0198403090    0.0003800714    
0.0587199270    0.0193566060    0.0003721736    
0.0589425880    0.0192439910    0.0003689189    
0.0591652490    0.0189845410    0.0003685797    
0.0593879100    0.0194509040    0.0003703087    
0.0596105710    0.0196561180    0.0003718644    
0.0598332320    0.0201939480    0.0003801393    
0.0600558930    0.0197677080    0.0003737081    
0.0602785540    0.0189927350    0.0003659222    
0.0605012150    0.0200711420    0.0003753747    
0.0607238760    0.0199318780    0.0003713442    
0.0609465370    0.0200642240    0.0003755081    
0.0611691980    0.0193876200    0.0003697074    
0.0613918590    0.0194287020    0.0003660584    
0.0616145200    0.0190283090    0.0003649183    
0.0618371810    0.0197199070    0.0003678421    
0.0620598420    0.0192792940    0.0003640844    
0.0622825030    0.0197884200    0.0003745014    
0.0625051640    0.0198014600    0.0003693634    
0.0627278250    0.0195347330    0.0003661118    
0.0629504860    0.0190698940    0.0003587889    
0.0631731470    0.0197799130    0.0003699281    
0.0633958080    0.0196863220    0.0003711758    
0.0636184690    0.0199075430    0.0003784540    
0.0638411300    0.0200225720    0.0003781210    
0.0640637910    0.0197983090    0.0003786421    
0.0642864520    0.0191431110    0.0003715183    
0.0645091130    0.0200377070    0.0003834310    
0.0647317740    0.0195965960    0.0003796051    
0.0649544350    0.0198176390    0.0003813200    
0.0651770960    0.0194496150    0.0003757021    
0.0653997570    0.0193581230    0.0003740045    
0.0656224180    0.0194133730    0.0003753523    
0.0658450790    0.0198040410    0.0003736612    
0.0660677400    0.0197809900    0.0003750330    
0.0662904010    0.0199138900    0.0003807829    
0.0665130620    0.0198281160    0.0003783137    
0.0667357230    0.0197169870    0.0003839596    
0.0669583840    0.0189688210    0.0003753444    
0.0671810450    0.0195605750    0.0003790496    
0.0674037060    0.0198263520    0.0003880812    
0.0676263670    0.0194547620    0.0003816127    
0.0678490280    0.0192175320    0.0003769593    
0.0680716890    0.0198973290    0.0003844222    
0.0682943500    0.0196818190    0.0003781471    
0.0685170110    0.0194891680    0.0003724574    
0.0687396720    0.0198672040    0.0003750532    
0.0689623330    0.0197414860    0.0003726799    
0.0691849940    0.0200231240    0.0003779294    
0.0694076550    0.0191823050    0.0003697117    
0.0696303160    0.0196091490    0.0003708431    
0.0698529770    0.0193245070    0.0003673701    
0.0700756380    0.0193487970    0.0003628821    
0.0702982990    0.0204888630    0.0003774866    
0.0705209600    0.0199747330    0.0003700294    
0.0707436210    0.0195064290    0.0003639867    
0.0709662820    0.0192231610    0.0003656417    
0.0711889430    0.0196630450    0.0003652596    
0.0714116040    0.0192256390    0.0003619114    
0.0716342650    0.0192725590    0.0003608815    
0.0718569260    0.0196270740    0.0003627188    
0.0720795870    0.0197253660    0.0003650968    
0.0723022480    0.0198194200    0.0003665239    
0.0725249090    0.0194666570    0.0003588972    
0.0727475700    0.0197198570    0.0003643090    
0.0729702310    0.0198635720    0.0003627180    
0.0731928920    0.0195886970    0.0003616392    
0.0734155530    0.0204415780    0.0003686910    
0.0736382140    0.0195695270    0.0003584259    
0.0738608750    0.0191715110    0.0003570541    
0.0740835360    0.0189441010    0.0003540490    
0.0743061970    0.0199001030    0.0003577628    
0.0745288580    0.0194252050    0.0003571027    
0.0747515190    0.0197920020    0.0003611703    
0.0749741800    0.0194402260    0.0003546329    
0.0751968410    0.0198124120    0.0003608226    
0.0754195020    0.0198796870    0.0003593171    
0.0756421630    0.0194729480    0.0003527152    
0.0758648240    0.0194832310    0.0003536565    
0.0760874850    0.0196889910    0.0003553483    
0.0763101460    0.0192159550    0.0003507169    
0.0765328070    0.0195720200    0.0003575730    
0.0767554680    0.0194233020    0.0003537948    
0.0769781290    0.0190669310    0.0003485198    
0.0772007900    0.0195521760    0.0003500962    
0.0774234510    0.0187798130    0.0003450633    
0.0776461120    0.0204844660    0.0003600421    
0.0778687730    0.0193309370    0.0003486024    
0.0780914340    0.0194933970    0.0003525655    
0.0783140950    0.0191391300    0.0003438044    
0.0785367560    0.0198377900    0.0003556668    
0.0787594170    0.0191644960    0.0003464469    
0.0789820780    0.0195203040    0.0003478566    
0.0792047390    0.0197230280    0.0003508014    
0.0794274000    0.0191605880    0.0003472284    
0.0796500610    0.0194979700    0.0003468533    
0.0798727220    0.0190986180    0.0003429660    
0.0800953830    0.0192744900    0.0003437492    
0.0803180440    0.0194631540    0.0003478337    
0.0805407050    0.0189926410    0.0003432841    
0.0807633660    0.0197315490    0.0003495733    
0.0809860270    0.0193770740    0.0003451398    
0.0812086880    0.0192067470    0.0003406501    
0.0814313490    0.0204371190    0.0003529943    
0.0816540100    0.0197433110    0.0003461609    
0.0818766710    0.0197787020    0.0003472621    
0.0820993320    0.0196702280    0.0003456774    
0.0823219930    0.0196980700    0.0003473487    
0.0825446540    0.0195879310    0.0003438597    
0.0827673150    0.0196889070    0.0003424287    
0.0829899760    0.0194349050    0.0003396071    
0.0832126370    0.0194297670    0.0003410831    
0.0834352980    0.0191462690    0.0003378286    
0.0836579590    0.0194053190    0.0003393493    
0.0838806200    0.0193716970    0.0003401161    
0.0841032810    0.0195683600    0.0003397162    
0.0843259420    0.0197586730    0.0003403129    
0.0845486030    0.0194539120    0.0003376784    
0.0847712640    0.0196633630    0.0003374224    
0.0849939250    0.0197202860    0.0003384989    
0.0852165860    0.0196787760    0.0003385854    
0.0854392470    0.0193421200    0.0003324979    
0.0856619080    0.0190422510    0.0003323402    
0.0858845690    0.0189229410    0.0003283136    
0.0861072300    0.0194334390    0.0003350095    
0.0863298910    0.0193865540    0.0003363573    
0.0865525520    0.0192596710    0.0003323598    
0.0867752130    0.0189557550    0.0003270665    
0.0869978740    0.0193871500    0.0003316103    
0.0872205350    0.0201468930    0.0003376153    
0.0874431960    0.0191002570    0.0003287290    
0.0876658570    0.0198173310    0.0003361284    
0.0878885180    0.0197423260    0.0003360670    
0.0881111790    0.0198286380    0.0003363686    
0.0883338400    0.0189032210    0.0003236170    
0.0885565010    0.0198633170    0.0003362320    
0.0887791620    0.0198117140    0.0003314405    
0.0890018230    0.0197230600    0.0003339057    
0.0892244840    0.0191151890    0.0003292787    
0.0894471450    0.0196683370    0.0003325982    
0.0896698060    0.0191183350    0.0003266779    
0.0898924670    0.0201861360    0.0003372328    
0.0901151280    0.0192948520    0.0003261425    
0.0903377890    0.0189128770    0.0003256005    
0.0905604500    0.0195839140    0.0003298058    
0.0907831110    0.0198126590    0.0003309011    
0.0910057720    0.0192363910    0.0003275495    
0.0912284330    0.0196811320    0.0003265706    
0.0914510940    0.0199840110    0.0003327435    
0.0916737550    0.0195486630    0.0003282825    
0.0918964160    0.0193058060    0.0003275937    
0.0921190770    0.0191165740    0.0003230368    
0.0923417380    0.0189847540    0.0003220532    
0.0925643990    0.0192616340    0.0003235993    
0.0927870600    0.0196885170    0.0003285072    
0.0930097210    0.0188965750    0.0003190915    
0.0932323820    0.0193394420    0.0003251819    
