# Diamond Light Source Ltd.
# Data extracted from: /dls/b21/data/2018/cm19678-3/processed/b21-386631_00643.dat
q(1/A)          Column          Error           
0.0035000000    2.0781018000    0.0245624100    
0.0037226610    1.8365446000    0.0226045890    
0.0039453220    1.6269667000    0.0193549400    
0.0041679830    1.2922969000    0.0141660400    
0.0043906440    0.9623884900    0.0116930510    
0.0046133050    0.7756182100    0.0100772140    
0.0048359660    0.5960400000    0.0083560659    
0.0050586270    0.4603966200    0.0072184118    
0.0052812880    0.4226956000    0.0065394845    
0.0055039490    0.3734735000    0.0058448060    
0.0057266100    0.3092120900    0.0051449669    
0.0059492710    0.2741989000    0.0048449270    
0.0061719320    0.2228164400    0.0042085809    
0.0063945930    0.2012973600    0.0040486836    
0.0066172539    0.1865347300    0.0036596549    
0.0068399149    0.1724284200    0.0034631443    
0.0070625759    0.1491500200    0.0031878687    
0.0072852369    0.1232994500    0.0028551026    
0.0075078979    0.1139076300    0.0027307264    
0.0077305589    0.0969474840    0.0024712531    
0.0079532199    0.0981386000    0.0024519330    
0.0081758809    0.0944813310    0.0024281922    
0.0083985419    0.0820282270    0.0021102363    
0.0086212029    0.0778481110    0.0020557652    
0.0088438639    0.0727564000    0.0019714359    
0.0090665249    0.0643317880    0.0017904513    
0.0092891859    0.0622133740    0.0018377712    
0.0095118469    0.0603472030    0.0017406238    
0.0097345079    0.0570653290    0.0016439129    
0.0099571689    0.0497849060    0.0015038081    
0.0101798300    0.0502391570    0.0015106532    
0.0104024910    0.0509374090    0.0015159675    
0.0106251520    0.0451516640    0.0014321238    
0.0108478130    0.0450183300    0.0013926155    
0.0110704740    0.0433442750    0.0013009789    
0.0112931350    0.0421852200    0.0012872360    
0.0115157960    0.0413841280    0.0012675211    
0.0117384570    0.0380419050    0.0012047992    
0.0119611180    0.0389513060    0.0012226130    
0.0121837790    0.0369852000    0.0011713330    
0.0124064400    0.0352265310    0.0010954930    
0.0126291010    0.0351143350    0.0010800577    
0.0128517620    0.0356571700    0.0010910917    
0.0130744230    0.0325974280    0.0010354914    
0.0132970840    0.0324748470    0.0010284887    
0.0135197450    0.0320577400    0.0010072289    
0.0137424060    0.0334176660    0.0010140543    
0.0139650670    0.0300040890    0.0009394645    
0.0141877280    0.0283345560    0.0009149705    
0.0144103890    0.0296487260    0.0009198103    
0.0146330500    0.0289916870    0.0009037864    
0.0148557110    0.0293916800    0.0009061843    
0.0150783720    0.0281659420    0.0008797562    
0.0153010330    0.0271369170    0.0008513608    
0.0155236940    0.0280556070    0.0008605043    
0.0157463550    0.0262253400    0.0008175483    
0.0159690160    0.0247367190    0.0007909931    
0.0161916770    0.0257592530    0.0008026286    
0.0164143380    0.0256940270    0.0008076848    
0.0166369990    0.0254695200    0.0007793547    
0.0168596600    0.0259598740    0.0007798888    
0.0170823210    0.0247754800    0.0007552939    
0.0173049820    0.0248150060    0.0007572028    
0.0175276430    0.0235007100    0.0007446485    
0.0177503040    0.0237070550    0.0007288443    
0.0179729650    0.0237004290    0.0007215152    
0.0181956260    0.0231385170    0.0006992435    
0.0184182870    0.0225650710    0.0006872699    
0.0186409480    0.0238267350    0.0007106919    
0.0188636090    0.0229837330    0.0006936165    
0.0190862700    0.0235170580    0.0007005208    
0.0193089310    0.0237766360    0.0007032784    
0.0195315920    0.0236039390    0.0006768894    
0.0197542530    0.0235170220    0.0006766263    
0.0199769140    0.0228356590    0.0006667523    
0.0201995750    0.0218997310    0.0006427213    
0.0204222360    0.0230448420    0.0006649703    
0.0206448970    0.0234183380    0.0006655731    
0.0208675580    0.0213206450    0.0006219872    
0.0210902190    0.0226034360    0.0006466047    
0.0213128800    0.0215442240    0.0006227071    
0.0215355410    0.0228263430    0.0006333325    
0.0217582020    0.0221058900    0.0006232577    
0.0219808630    0.0222231390    0.0006240879    
0.0222035240    0.0206003080    0.0005954244    
0.0224261850    0.0218412190    0.0006076390    
0.0226488460    0.0208816500    0.0005896795    
0.0228715070    0.0228989100    0.0006159717    
0.0230941680    0.0217224920    0.0005999406    
0.0233168290    0.0216476690    0.0006003983    
0.0235394900    0.0222799690    0.0006023814    
0.0237621510    0.0207880870    0.0005661996    
0.0239848120    0.0220264160    0.0005834940    
0.0242074730    0.0208538310    0.0005632058    
0.0244301340    0.0205660520    0.0005599445    
0.0246527950    0.0222531250    0.0005878519    
0.0248754560    0.0205666800    0.0005524368    
0.0250981170    0.0212845200    0.0005632481    
0.0253207780    0.0203832070    0.0005347363    
0.0255434390    0.0202331190    0.0005384501    
0.0257661000    0.0206238290    0.0005453826    
0.0259887610    0.0208230980    0.0005421873    
0.0262114220    0.0209314310    0.0005464921    
0.0264340830    0.0214624490    0.0005458515    
0.0266567440    0.0206221500    0.0005317531    
0.0268794050    0.0210389510    0.0005349078    
0.0271020660    0.0201674720    0.0005215919    
0.0273247270    0.0209522420    0.0005284504    
0.0275473880    0.0208158410    0.0005256794    
0.0277700490    0.0204392890    0.0005178239    
0.0279927100    0.0210767830    0.0005212492    
0.0282153710    0.0208917210    0.0005214788    
0.0284380320    0.0212935170    0.0005234177    
0.0286606930    0.0206649860    0.0005112215    
0.0288833540    0.0201088220    0.0005052532    
0.0291060150    0.0205014850    0.0005096782    
0.0293286760    0.0201558750    0.0004983219    
0.0295513370    0.0206715120    0.0004991605    
0.0297739980    0.0205871050    0.0005036247    
0.0299966590    0.0205802420    0.0004949405    
0.0302193200    0.0204738030    0.0005008530    
0.0304419810    0.0200573210    0.0004966449    
0.0306646420    0.0201372560    0.0004835882    
0.0308873030    0.0198830780    0.0004784510    
0.0311099640    0.0203683740    0.0004855121    
0.0313326250    0.0199874990    0.0004756233    
0.0315552860    0.0202534330    0.0004849818    
0.0317779470    0.0201258600    0.0004838730    
0.0320006080    0.0192550470    0.0004625357    
0.0322232690    0.0206602420    0.0004811217    
0.0324459300    0.0202977240    0.0004733218    
0.0326685910    0.0199558320    0.0004685449    
0.0328912520    0.0196341870    0.0004662926    
0.0331139130    0.0204535850    0.0004697321    
0.0333365740    0.0200111580    0.0004661327    
0.0335592350    0.0202032880    0.0004638616    
0.0337818960    0.0200966970    0.0004622679    
0.0340045570    0.0204144890    0.0004651686    
0.0342272170    0.0202747890    0.0004617457    
0.0344498780    0.0193651700    0.0004530562    
0.0346725390    0.0199002100    0.0004507666    
0.0348952000    0.0204477830    0.0004548446    
0.0351178610    0.0199512870    0.0004513450    
0.0353405220    0.0205085140    0.0004555199    
0.0355631830    0.0201133290    0.0004494108    
0.0357858440    0.0197719270    0.0004455805    
0.0360085050    0.0198208720    0.0004474796    
0.0362311660    0.0200724890    0.0004449580    
0.0364538270    0.0198292230    0.0004387039    
0.0366764880    0.0205467290    0.0004462464    
0.0368991490    0.0200714510    0.0004388316    
0.0371218100    0.0204623680    0.0004418168    
0.0373444710    0.0200525970    0.0004421336    
0.0375671320    0.0195665490    0.0004361063    
0.0377897930    0.0207064320    0.0004370158    
0.0380124540    0.0194540940    0.0004262519    
0.0382351150    0.0198276860    0.0004303255    
0.0384577760    0.0206194150    0.0004345989    
0.0386804370    0.0198099700    0.0004292339    
0.0389030980    0.0198041920    0.0004259212    
0.0391257590    0.0195181470    0.0004199636    
0.0393484200    0.0204101920    0.0004280080    
0.0395710810    0.0196102530    0.0004201018    
0.0397937420    0.0193132780    0.0004169089    
0.0400164030    0.0193890800    0.0004194256    
0.0402390640    0.0194591330    0.0004145875    
0.0404617250    0.0197452330    0.0004151605    
0.0406843860    0.0194254600    0.0004078064    
0.0409070470    0.0199371770    0.0004174467    
0.0411297080    0.0199218980    0.0004132498    
0.0413523690    0.0195335960    0.0004102574    
0.0415750300    0.0199895490    0.0004185433    
0.0417976910    0.0201331740    0.0004091804    
0.0420203520    0.0195222980    0.0004044390    
0.0422430130    0.0194677820    0.0004054029    
0.0424656740    0.0191534690    0.0003968832    
0.0426883350    0.0191945620    0.0003992806    
0.0429109960    0.0192729040    0.0004013447    
0.0431336570    0.0189448730    0.0003923082    
0.0433563180    0.0203888670    0.0004104956    
0.0435789790    0.0198093070    0.0003982625    
0.0438016400    0.0208267650    0.0004105839    
0.0440243010    0.0195973330    0.0003942399    
0.0442469620    0.0192630290    0.0003932049    
0.0444696230    0.0197148140    0.0003963628    
0.0446922840    0.0194790740    0.0003928159    
0.0449149450    0.0200413090    0.0003931180    
0.0451376060    0.0199782940    0.0003973469    
0.0453602670    0.0198014900    0.0003914378    
0.0455829280    0.0203887700    0.0003967408    
0.0458055890    0.0194713140    0.0003899726    
0.0460282500    0.0191493910    0.0003820719    
0.0462509110    0.0192281310    0.0003804754    
0.0464735720    0.0208326480    0.0003962556    
0.0466962330    0.0192275110    0.0003824147    
0.0469188940    0.0199732430    0.0003886551    
0.0471415550    0.0201101680    0.0003919880    
0.0473642160    0.0203457610    0.0003887567    
0.0475868770    0.0195778130    0.0003794549    
0.0478095380    0.0196911670    0.0003788865    
0.0480321990    0.0190746070    0.0003737246    
0.0482548600    0.0199902950    0.0003809230    
0.0484775210    0.0199228110    0.0003840553    
0.0487001820    0.0195594510    0.0003749664    
0.0489228430    0.0186121380    0.0003655769    
0.0491455040    0.0204021600    0.0003801058    
0.0493681650    0.0195728860    0.0003755001    
0.0495908260    0.0197623750    0.0003709650    
0.0498134870    0.0199630020    0.0003763925    
0.0500361480    0.0197304410    0.0003732037    
0.0502588090    0.0193764780    0.0003642993    
0.0504814700    0.0191693960    0.0003670843    
0.0507041310    0.0193751610    0.0003646615    
0.0509267920    0.0190444660    0.0003630317    
0.0511494530    0.0196107250    0.0003659329    
0.0513721140    0.0192697000    0.0003659317    
0.0515947750    0.0200070490    0.0003679234    
0.0518174360    0.0198335890    0.0003641183    
0.0520400970    0.0185640560    0.0003498296    
0.0522627580    0.0200073490    0.0003662606    
0.0524854190    0.0196048830    0.0003655058    
0.0527080800    0.0197297130    0.0003695066    
0.0529307410    0.0195801710    0.0003698324    
0.0531534020    0.0195418820    0.0003681255    
0.0533760630    0.0193922720    0.0003678616    
0.0535987240    0.0201034130    0.0003727972    
0.0538213850    0.0197937760    0.0003742009    
0.0540440460    0.0198521260    0.0003729784    
0.0542667070    0.0194588840    0.0003718107    
0.0544893680    0.0193729470    0.0003711865    
0.0547120290    0.0197046800    0.0003717864    
0.0549346900    0.0194655970    0.0003697184    
0.0551573510    0.0199337780    0.0003785425    
0.0553800120    0.0193560220    0.0003698453    
0.0556026730    0.0202111660    0.0003857627    
0.0558253340    0.0190162810    0.0003773191    
0.0560479950    0.0191435750    0.0003785800    
0.0562706560    0.0195613200    0.0003863882    
0.0564933170    0.0195453200    0.0003895841    
0.0567159780    0.0195115200    0.0003845801    
0.0569386390    0.0192213070    0.0003876966    
0.0571613000    0.0192335120    0.0003794692    
0.0573839610    0.0194823950    0.0003787454    
0.0576066220    0.0198717540    0.0003835703    
0.0578292830    0.0194683330    0.0003784006    
0.0580519440    0.0193157130    0.0003783760    
0.0582746050    0.0195938920    0.0003794104    
0.0584972660    0.0200274290    0.0003821166    
0.0587199270    0.0200347400    0.0003788917    
0.0589425880    0.0193619790    0.0003702972    
0.0591652490    0.0196980040    0.0003756945    
0.0593879100    0.0193076780    0.0003691912    
0.0596105710    0.0199362010    0.0003747565    
0.0598332320    0.0196622380    0.0003753539    
0.0600558930    0.0195821020    0.0003721999    
0.0602785540    0.0200137100    0.0003758816    
0.0605012150    0.0193530210    0.0003688465    
0.0607238760    0.0201042090    0.0003731971    
0.0609465370    0.0197534650    0.0003728396    
0.0611691980    0.0200632140    0.0003763470    
0.0613918590    0.0193719980    0.0003657699    
0.0616145200    0.0192221260    0.0003670190    
0.0618371810    0.0193067440    0.0003642134    
0.0620598420    0.0196357390    0.0003676821    
0.0622825030    0.0195453860    0.0003724451    
0.0625051640    0.0195038740    0.0003668242    
0.0627278250    0.0192724760    0.0003638908    
0.0629504860    0.0194065190    0.0003621855    
0.0631731470    0.0197095680    0.0003695183    
0.0633958080    0.0201963760    0.0003762066    
0.0636184690    0.0191418840    0.0003713547    
0.0638411300    0.0191700520    0.0003702328    
0.0640637910    0.0201222800    0.0003819845    
0.0642864520    0.0200280680    0.0003802645    
0.0645091130    0.0192712210    0.0003762791    
0.0647317740    0.0200942400    0.0003846536    
0.0649544350    0.0192271830    0.0003758493    
0.0651770960    0.0190979250    0.0003725405    
0.0653997570    0.0193624920    0.0003742986    
0.0656224180    0.0196575370    0.0003779597    
0.0658450790    0.0192094640    0.0003682570    
0.0660677400    0.0202063520    0.0003792990    
0.0662904010    0.0189928930    0.0003721236    
0.0665130620    0.0196235350    0.0003766104    
0.0667357230    0.0192194480    0.0003793394    
0.0669583840    0.0197827060    0.0003835702    
0.0671810450    0.0195280830    0.0003789896    
0.0674037060    0.0193966670    0.0003841112    
0.0676263670    0.0196533660    0.0003838138    
0.0678490280    0.0198949850    0.0003838043    
0.0680716890    0.0192101640    0.0003779800    
0.0682943500    0.0198683840    0.0003801909    
0.0685170110    0.0190663810    0.0003686433    
0.0687396720    0.0199861330    0.0003764274    
0.0689623330    0.0196624050    0.0003721831    
0.0691849940    0.0204429550    0.0003821280    
0.0694076550    0.0193508490    0.0003715825    
0.0696303160    0.0194108360    0.0003692115    
0.0698529770    0.0194344580    0.0003686618    
0.0700756380    0.0194430100    0.0003640094    
0.0702982990    0.0204816420    0.0003776741    
0.0705209600    0.0195486170    0.0003663077    
0.0707436210    0.0189070060    0.0003585918    
0.0709662820    0.0199385110    0.0003726336    
0.0711889430    0.0196827380    0.0003656885    
0.0714116040    0.0197222510    0.0003668026    
0.0716342650    0.0194135530    0.0003624430    
0.0718569260    0.0189353000    0.0003565091    
0.0720795870    0.0191294030    0.0003597812    
0.0723022480    0.0192488340    0.0003614526    
0.0725249090    0.0203939780    0.0003675933    
0.0727475700    0.0195038030    0.0003625518    
0.0729702310    0.0189021140    0.0003540690    
0.0731928920    0.0190133940    0.0003565290    
0.0734155530    0.0198365290    0.0003634381    
0.0736382140    0.0199574350    0.0003622045    
0.0738608750    0.0199364630    0.0003643529    
0.0740835360    0.0190226260    0.0003550209    
0.0743061970    0.0198882660    0.0003578972    
0.0745288580    0.0193724880    0.0003568579    
0.0747515190    0.0194094870    0.0003579040    
0.0749741800    0.0195052810    0.0003554650    
0.0751968410    0.0183651500    0.0003476279    
0.0754195020    0.0198674460    0.0003594483    
0.0756421630    0.0199469950    0.0003572230    
0.0758648240    0.0201715760    0.0003600919    
0.0760874850    0.0193751470    0.0003527421    
0.0763101460    0.0195687330    0.0003541598    
0.0765328070    0.0199450850    0.0003612079    
0.0767554680    0.0199269910    0.0003585941    
0.0769781290    0.0190543410    0.0003486393    
0.0772007900    0.0191893290    0.0003470660    
0.0774234510    0.0201701000    0.0003578487    
0.0776461120    0.0190609440    0.0003475405    
0.0778687730    0.0197220840    0.0003523486    
0.0780914340    0.0193153280    0.0003511878    
0.0783140950    0.0201358340    0.0003528803    
0.0785367560    0.0196601850    0.0003543095    
0.0787594170    0.0193282800    0.0003481584    
0.0789820780    0.0192672730    0.0003458274    
0.0792047390    0.0189248730    0.0003438613    
0.0794274000    0.0191548930    0.0003474105    
0.0796500610    0.0198702340    0.0003503846    
0.0798727220    0.0192415210    0.0003444785    
0.0800953830    0.0186620160    0.0003384712    
0.0803180440    0.0199562200    0.0003524492    
0.0805407050    0.0192605350    0.0003459294    
0.0807633660    0.0193674300    0.0003465660    
0.0809860270    0.0185659830    0.0003380666    
0.0812086880    0.0203518500    0.0003508940    
0.0814313490    0.0194328690    0.0003444440    
0.0816540100    0.0196483580    0.0003455600    
0.0818766710    0.0200251320    0.0003496540    
0.0820993320    0.0201407830    0.0003500231    
0.0823219930    0.0195038060    0.0003458644    
0.0825446540    0.0191972480    0.0003406424    
0.0827673150    0.0194232160    0.0003403394    
0.0829899760    0.0198592200    0.0003435255    
0.0832126370    0.0199835580    0.0003461427    
0.0834352980    0.0196376330    0.0003423664    
0.0836579590    0.0191224580    0.0003370937    
0.0838806200    0.0192363430    0.0003391540    
0.0841032810    0.0195238520    0.0003395581    
0.0843259420    0.0195798650    0.0003389976    
0.0845486030    0.0194566390    0.0003379295    
0.0847712640    0.0190984590    0.0003327642    
0.0849939250    0.0196712140    0.0003383051    
0.0852165860    0.0192444440    0.0003350535    
0.0854392470    0.0205071420    0.0003425956    
0.0856619080    0.0193176490    0.0003349601    
0.0858845690    0.0196271980    0.0003345923    
0.0861072300    0.0189680660    0.0003311968    
0.0863298910    0.0190971100    0.0003340617    
0.0865525520    0.0195957460    0.0003354728    
0.0867752130    0.0193485960    0.0003306607    
0.0869978740    0.0193621480    0.0003316195    
0.0872205350    0.0198794370    0.0003355926    
0.0874431960    0.0191089900    0.0003290255    
0.0876658570    0.0198896960    0.0003369683    
0.0878885180    0.0196142520    0.0003352007    
0.0881111790    0.0190439930    0.0003298681    
0.0883338400    0.0191394960    0.0003258524    
0.0885565010    0.0199413670    0.0003371188    
0.0887791620    0.0197273550    0.0003309568    
0.0890018230    0.0195288670    0.0003324815    
0.0892244840    0.0191182190    0.0003295265    
0.0894471450    0.0192217500    0.0003290219    
0.0896698060    0.0197868830    0.0003325644    
0.0898924670    0.0190173400    0.0003275446    
0.0901151280    0.0192656410    0.0003261150    
0.0903377890    0.0195838510    0.0003315489    
0.0905604500    0.0195880470    0.0003300627    
0.0907831110    0.0195792500    0.0003291677    
0.0910057720    0.0192958130    0.0003282759    
0.0912284330    0.0196479560    0.0003265150    
0.0914510940    0.0195615580    0.0003294293    
0.0916737550    0.0194204280    0.0003274243    
0.0918964160    0.0200331680    0.0003339325    
0.0921190770    0.0197053340    0.0003281944    
0.0923417380    0.0195136220    0.0003267280    
0.0925643990    0.0189391740    0.0003210952    
0.0927870600    0.0193308370    0.0003257287    
0.0930097210    0.0198284740    0.0003270850    
0.0932323820    0.0196830490    0.0003282789    
