# Diamond Light Source Ltd.
# Data extracted from: /dls/b21/data/2018/cm19678-3/processed/b21-386631_00639.dat
q(1/A)          Column          Error           
0.0035000000    2.0924760000    0.0246395420    
0.0037226610    1.8590358000    0.0227355030    
0.0039453220    1.6089260000    0.0192413430    
0.0041679830    1.2883889000    0.0141402020    
0.0043906440    0.9502889900    0.0116156970    
0.0046133050    0.7663688000    0.0100138300    
0.0048359660    0.5870056400    0.0082899157    
0.0050586270    0.4691584800    0.0072845076    
0.0052812880    0.4131305400    0.0064630590    
0.0055039490    0.3760749000    0.0058633011    
0.0057266100    0.3114151500    0.0051616559    
0.0059492710    0.2630773900    0.0047441779    
0.0061719320    0.2156073800    0.0041386499    
0.0063945930    0.1988934400    0.0040231836    
0.0066172539    0.1791714200    0.0035855804    
0.0068399149    0.1659954900    0.0033968716    
0.0070625759    0.1523937900    0.0032213449    
0.0072852369    0.1245441400    0.0028685843    
0.0075078979    0.1135750500    0.0027258883    
0.0077305589    0.0981462430    0.0024857109    
0.0079532199    0.0964857560    0.0024304411    
0.0081758809    0.0886224700    0.0023509685    
0.0083985419    0.0821941930    0.0021117126    
0.0086212029    0.0770401140    0.0020444323    
0.0088438639    0.0694546030    0.0019255836    
0.0090665249    0.0638435530    0.0017830891    
0.0092891859    0.0645075620    0.0018707670    
0.0095118469    0.0575500540    0.0016992764    
0.0097345079    0.0578343860    0.0016544381    
0.0099571689    0.0504348620    0.0015131215    
0.0101798300    0.0506164550    0.0015158432    
0.0104024910    0.0502293720    0.0015049260    
0.0106251520    0.0459860870    0.0014448466    
0.0108478130    0.0471860130    0.0014253057    
0.0110704740    0.0440197430    0.0013106688    
0.0112931350    0.0401570050    0.0012555196    
0.0115157960    0.0383321510    0.0012195082    
0.0117384570    0.0379419650    0.0012028411    
0.0119611180    0.0382367330    0.0012109695    
0.0121837790    0.0361094950    0.0011570228    
0.0124064400    0.0343193870    0.0010809591    
0.0126291010    0.0343952800    0.0010686094    
0.0128517620    0.0348675600    0.0010786074    
0.0130744230    0.0350426160    0.0010732921    
0.0132970840    0.0322918750    0.0010252681    
0.0135197450    0.0323856830    0.0010120526    
0.0137424060    0.0313057210    0.0009811826    
0.0139650670    0.0296032500    0.0009328776    
0.0141877280    0.0311220400    0.0009586228    
0.0144103890    0.0283184440    0.0008986586    
0.0146330500    0.0289173310    0.0009023458    
0.0148557110    0.0294292320    0.0009064808    
0.0150783720    0.0301805920    0.0009103930    
0.0153010330    0.0282945180    0.0008690592    
0.0155236940    0.0264028080    0.0008345130    
0.0157463550    0.0261326080    0.0008158477    
0.0159690160    0.0255302030    0.0008033292    
0.0161916770    0.0258681890    0.0008040737    
0.0164143380    0.0258556520    0.0008099690    
0.0166369990    0.0252630060    0.0007759471    
0.0168596600    0.0268803150    0.0007933474    
0.0170823210    0.0252202860    0.0007618066    
0.0173049820    0.0257462870    0.0007710405    
0.0175276430    0.0248065870    0.0007648198    
0.0177503040    0.0231100710    0.0007193851    
0.0179729650    0.0249149640    0.0007395411    
0.0181956260    0.0229762920    0.0006965712    
0.0184182870    0.0227811410    0.0006903376    
0.0186409480    0.0242567910    0.0007168538    
0.0188636090    0.0238062030    0.0007056982    
0.0190862700    0.0225222870    0.0006853314    
0.0193089310    0.0238449950    0.0007040695    
0.0195315920    0.0221343210    0.0006552747    
0.0197542530    0.0221794050    0.0006568973    
0.0199769140    0.0223156020    0.0006589112    
0.0201995750    0.0227155500    0.0006543796    
0.0204222360    0.0229729730    0.0006637259    
0.0206448970    0.0218725000    0.0006430308    
0.0208675580    0.0214524480    0.0006237126    
0.0210902190    0.0212768940    0.0006271488    
0.0213128800    0.0218006260    0.0006262066    
0.0215355410    0.0218813880    0.0006198917    
0.0217582020    0.0220043260    0.0006216308    
0.0219808630    0.0222968850    0.0006249280    
0.0222035240    0.0217054380    0.0006109967    
0.0224261850    0.0225540880    0.0006172835    
0.0226488460    0.0206855960    0.0005867221    
0.0228715070    0.0221063820    0.0006050302    
0.0230941680    0.0206988680    0.0005854524    
0.0233168290    0.0201198040    0.0005786429    
0.0235394900    0.0212081380    0.0005875304    
0.0237621510    0.0211450340    0.0005708623    
0.0239848120    0.0219972610    0.0005829262    
0.0242074730    0.0222241620    0.0005812349    
0.0244301340    0.0215283520    0.0005727165    
0.0246527950    0.0222082380    0.0005870759    
0.0248754560    0.0203759250    0.0005496977    
0.0250981170    0.0202285640    0.0005489277    
0.0253207780    0.0211416020    0.0005444239    
0.0255434390    0.0207360650    0.0005449317    
0.0257661000    0.0197606110    0.0005336809    
0.0259887610    0.0200341670    0.0005316516    
0.0262114220    0.0205191440    0.0005409148    
0.0264340830    0.0217959400    0.0005499048    
0.0266567440    0.0201708200    0.0005257383    
0.0268794050    0.0213248680    0.0005383626    
0.0271020660    0.0205863310    0.0005268166    
0.0273247270    0.0206328410    0.0005242438    
0.0275473880    0.0213203060    0.0005318455    
0.0277700490    0.0202823500    0.0005156715    
0.0279927100    0.0205998790    0.0005151580    
0.0282153710    0.0207616420    0.0005196911    
0.0284380320    0.0207530810    0.0005165719    
0.0286606930    0.0199696200    0.0005023903    
0.0288833540    0.0208067830    0.0005137869    
0.0291060150    0.0207926390    0.0005131248    
0.0293286760    0.0197370180    0.0004929635    
0.0295513370    0.0205261430    0.0004972474    
0.0297739980    0.0203526670    0.0005005931    
0.0299966590    0.0193184000    0.0004793780    
0.0302193200    0.0201182070    0.0004963300    
0.0304419810    0.0199342300    0.0004949645    
0.0306646420    0.0209835640    0.0004934919    
0.0308873030    0.0212514130    0.0004944864    
0.0311099640    0.0200781210    0.0004818903    
0.0313326250    0.0203143870    0.0004793476    
0.0315552860    0.0193703800    0.0004741437    
0.0317779470    0.0202761020    0.0004855246    
0.0320006080    0.0196761160    0.0004674202    
0.0322232690    0.0202554870    0.0004762373    
0.0324459300    0.0202189090    0.0004722549    
0.0326685910    0.0210208410    0.0004807354    
0.0328912520    0.0199982490    0.0004704494    
0.0331139130    0.0198694600    0.0004628320    
0.0333365740    0.0201072160    0.0004671047    
0.0335592350    0.0202545760    0.0004643054    
0.0337818960    0.0200629370    0.0004617358    
0.0340045570    0.0206454200    0.0004676466    
0.0342272170    0.0190220590    0.0004471140    
0.0344498780    0.0191200760    0.0004500399    
0.0346725390    0.0194286400    0.0004452551    
0.0348952000    0.0194947010    0.0004439797    
0.0351178610    0.0199388710    0.0004510641    
0.0353405220    0.0195553940    0.0004446705    
0.0355631830    0.0204420140    0.0004529270    
0.0357858440    0.0198700120    0.0004465453    
0.0360085050    0.0198085370    0.0004472011    
0.0362311660    0.0198037030    0.0004418312    
0.0364538270    0.0195452860    0.0004354161    
0.0366764880    0.0198753060    0.0004387581    
0.0368991490    0.0199343110    0.0004371938    
0.0371218100    0.0202398930    0.0004392717    
0.0373444710    0.0190853630    0.0004312044    
0.0375671320    0.0203994940    0.0004451534    
0.0377897930    0.0193662090    0.0004225047    
0.0380124540    0.0205060230    0.0004374883    
0.0382351150    0.0200486880    0.0004325824    
0.0384577760    0.0195446710    0.0004229893    
0.0386804370    0.0201880180    0.0004331754    
0.0389030980    0.0204509860    0.0004326858    
0.0391257590    0.0197227330    0.0004220275    
0.0393484200    0.0199579670    0.0004231081    
0.0395710810    0.0197689360    0.0004216668    
0.0397937420    0.0198498970    0.0004225296    
0.0400164030    0.0198303830    0.0004240399    
0.0402390640    0.0200826050    0.0004210458    
0.0404617250    0.0196108140    0.0004136161    
0.0406843860    0.0195417100    0.0004088975    
0.0409070470    0.0193482530    0.0004111070    
0.0411297080    0.0200037370    0.0004139689    
0.0413523690    0.0199950520    0.0004149459    
0.0415750300    0.0205288660    0.0004240198    
0.0417976910    0.0195305720    0.0004028849    
0.0420203520    0.0194431610    0.0004034928    
0.0422430130    0.0203584230    0.0004144436    
0.0424656740    0.0198483650    0.0004038929    
0.0426883350    0.0199462690    0.0004068973    
0.0429109960    0.0199708740    0.0004084203    
0.0431336570    0.0195095190    0.0003979877    
0.0433563180    0.0190959570    0.0003971435    
0.0435789790    0.0200770500    0.0004008202    
0.0438016400    0.0204093380    0.0004063220    
0.0440243010    0.0192601720    0.0003907122    
0.0442469620    0.0198686790    0.0003992142    
0.0444696230    0.0197742190    0.0003968359    
0.0446922840    0.0195857000    0.0003937669    
0.0449149450    0.0188189380    0.0003808222    
0.0451376060    0.0201080230    0.0003985109    
0.0453602670    0.0201603590    0.0003948460    
0.0455829280    0.0194579620    0.0003874582    
0.0458055890    0.0195996960    0.0003911344    
0.0460282500    0.0196631450    0.0003870428    
0.0462509110    0.0193215000    0.0003812794    
0.0464735720    0.0184243650    0.0003725326    
0.0466962330    0.0191243330    0.0003812685    
0.0469188940    0.0196131430    0.0003850158    
0.0471415550    0.0199296630    0.0003901034    
0.0473642160    0.0194348500    0.0003798362    
0.0475868770    0.0191540310    0.0003752088    
0.0478095380    0.0198974860    0.0003807478    
0.0480321990    0.0192164090    0.0003749945    
0.0482548600    0.0194047790    0.0003751862    
0.0484775210    0.0193998890    0.0003788636    
0.0487001820    0.0197627940    0.0003767932    
0.0489228430    0.0203013000    0.0003816870    
0.0491455040    0.0193703440    0.0003702541    
0.0493681650    0.0194383160    0.0003740906    
0.0495908260    0.0197013620    0.0003702766    
0.0498134870    0.0192129810    0.0003691393    
0.0500361480    0.0192031620    0.0003680685    
0.0502588090    0.0194534040    0.0003649081    
0.0504814700    0.0191925920    0.0003671920    
0.0507041310    0.0198432370    0.0003689252    
0.0509267920    0.0200354220    0.0003722410    
0.0511494530    0.0196394650    0.0003660870    
0.0513721140    0.0199174560    0.0003719155    
0.0515947750    0.0193792750    0.0003619924    
0.0518174360    0.0195874260    0.0003617390    
0.0520400970    0.0194155630    0.0003576514    
0.0522627580    0.0187954720    0.0003548843    
0.0524854190    0.0190614940    0.0003602927    
0.0527080800    0.0197450990    0.0003695356    
0.0529307410    0.0195121370    0.0003690744    
0.0531534020    0.0200148450    0.0003724377    
0.0533760630    0.0197777110    0.0003713838    
0.0535987240    0.0198560010    0.0003703807    
0.0538213850    0.0195976410    0.0003722264    
0.0540440460    0.0197977530    0.0003723514    
0.0542667070    0.0192053760    0.0003692659    
0.0544893680    0.0194390730    0.0003717037    
0.0547120290    0.0195311760    0.0003700308    
0.0549346900    0.0194745370    0.0003696882    
0.0551573510    0.0193394640    0.0003727408    
0.0553800120    0.0202409030    0.0003780871    
0.0556026730    0.0193008730    0.0003768581    
0.0558253340    0.0198274740    0.0003851629    
0.0560479950    0.0189446090    0.0003764903    
0.0562706560    0.0200906950    0.0003914597    
0.0564933170    0.0198590970    0.0003925766    
0.0567159780    0.0193554420    0.0003829197    
0.0569386390    0.0193812750    0.0003891854    
0.0571613000    0.0198201110    0.0003850925    
0.0573839610    0.0195659290    0.0003794384    
0.0576066220    0.0199333790    0.0003840450    
0.0578292830    0.0197796300    0.0003812952    
0.0580519440    0.0199185070    0.0003841151    
0.0582746050    0.0195963820    0.0003793164    
0.0584972660    0.0189657640    0.0003717348    
0.0587199270    0.0196713810    0.0003753233    
0.0589425880    0.0194702470    0.0003712156    
0.0591652490    0.0204519780    0.0003826980    
0.0593879100    0.0202480980    0.0003779578    
0.0596105710    0.0200927590    0.0003761080    
0.0598332320    0.0191773710    0.0003705815    
0.0600558930    0.0203971130    0.0003797482    
0.0602785540    0.0196837750    0.0003726544    
0.0605012150    0.0190037560    0.0003653893    
0.0607238760    0.0189216440    0.0003619420    
0.0609465370    0.0198185330    0.0003733370    
0.0611691980    0.0196838600    0.0003726560    
0.0613918590    0.0203607240    0.0003748713    
0.0616145200    0.0194342700    0.0003689239    
0.0618371810    0.0194183250    0.0003651506    
0.0620598420    0.0194515040    0.0003658392    
0.0622825030    0.0196183340    0.0003730234    
0.0625051640    0.0191676780    0.0003635357    
0.0627278250    0.0198990640    0.0003696438    
0.0629504860    0.0196781640    0.0003645980    
0.0631731470    0.0187487860    0.0003602872    
0.0633958080    0.0196025250    0.0003705191    
0.0636184690    0.0195043630    0.0003747376    
0.0638411300    0.0194868320    0.0003731631    
0.0640637910    0.0197039390    0.0003778753    
0.0642864520    0.0203908060    0.0003835733    
0.0645091130    0.0200522120    0.0003837085    
0.0647317740    0.0195960640    0.0003797373    
0.0649544350    0.0201623950    0.0003847617    
0.0651770960    0.0193910680    0.0003752719    
0.0653997570    0.0195818370    0.0003762956    
0.0656224180    0.0189335690    0.0003708190    
0.0658450790    0.0198818750    0.0003745302    
0.0660677400    0.0194537650    0.0003720527    
0.0662904010    0.0190757960    0.0003728188    
0.0665130620    0.0193151660    0.0003735234    
0.0667357230    0.0198734260    0.0003856193    
0.0669583840    0.0191683640    0.0003774500    
0.0671810450    0.0194791770    0.0003783970    
0.0674037060    0.0198102970    0.0003880644    
0.0676263670    0.0200006990    0.0003870700    
0.0678490280    0.0193276370    0.0003781744    
0.0680716890    0.0197853790    0.0003834779    
0.0682943500    0.0191580410    0.0003732165    
0.0685170110    0.0197169710    0.0003747634    
0.0687396720    0.0201366580    0.0003777247    
0.0689623330    0.0196220060    0.0003716849    
0.0691849940    0.0196806960    0.0003748194    
0.0694076550    0.0200233660    0.0003778666    
0.0696303160    0.0193496280    0.0003685142    
0.0698529770    0.0197648230    0.0003716663    
0.0700756380    0.0191721040    0.0003613521    
0.0702982990    0.0202601000    0.0003755091    
0.0705209600    0.0197285230    0.0003678749    
0.0707436210    0.0196292990    0.0003652634    
0.0709662820    0.0197173070    0.0003704455    
0.0711889430    0.0196229590    0.0003650191    
0.0714116040    0.0194372690    0.0003640296    
0.0716342650    0.0199289430    0.0003671083    
0.0718569260    0.0192991700    0.0003598062    
0.0720795870    0.0201453930    0.0003690970    
0.0723022480    0.0200372600    0.0003686660    
0.0725249090    0.0195668290    0.0003599496    
0.0727475700    0.0192222570    0.0003598134    
0.0729702310    0.0196459640    0.0003608563    
0.0731928920    0.0191819560    0.0003579944    
0.0734155530    0.0193650140    0.0003589809    
0.0736382140    0.0193866070    0.0003568759    
0.0738608750    0.0194316110    0.0003595981    
0.0740835360    0.0189180840    0.0003539338    
0.0743061970    0.0194639530    0.0003539486    
0.0745288580    0.0189662590    0.0003529867    
0.0747515190    0.0202350380    0.0003653224    
0.0749741800    0.0193895580    0.0003542987    
0.0751968410    0.0191494220    0.0003548624    
0.0754195020    0.0193221470    0.0003543708    
0.0756421630    0.0198195000    0.0003559687    
0.0758648240    0.0201204780    0.0003595236    
0.0760874850    0.0193695070    0.0003525810    
0.0763101460    0.0191017510    0.0003497996    
0.0765328070    0.0194227520    0.0003563358    
0.0767554680    0.0192051970    0.0003519301    
0.0769781290    0.0205980120    0.0003623738    
0.0772007900    0.0198799930    0.0003531467    
0.0774234510    0.0200750650    0.0003568936    
0.0776461120    0.0197330250    0.0003535045    
0.0778687730    0.0195022060    0.0003502700    
0.0780914340    0.0198712390    0.0003560948    
0.0783140950    0.0196288730    0.0003483013    
0.0785367560    0.0190481100    0.0003486420    
0.0787594170    0.0189151360    0.0003443102    
0.0789820780    0.0196150780    0.0003488262    
0.0792047390    0.0196561330    0.0003503327    
0.0794274000    0.0196215470    0.0003515074    
0.0796500610    0.0189995830    0.0003425156    
0.0798727220    0.0197842450    0.0003491941    
0.0800953830    0.0189939620    0.0003413619    
0.0803180440    0.0198629310    0.0003515150    
0.0805407050    0.0199439800    0.0003519039    
0.0807633660    0.0200371230    0.0003523973    
0.0809860270    0.0196248770    0.0003474654    
0.0812086880    0.0191360040    0.0003401452    
0.0814313490    0.0192987470    0.0003431465    
0.0816540100    0.0195146570    0.0003442751    
0.0818766710    0.0193049050    0.0003432017    
0.0820993320    0.0194352190    0.0003437305    
0.0823219930    0.0197061990    0.0003475461    
0.0825446540    0.0198135350    0.0003459593    
0.0827673150    0.0189581820    0.0003361359    
0.0829899760    0.0196568250    0.0003416641    
0.0832126370    0.0208159850    0.0003531686    
0.0834352980    0.0191124070    0.0003376519    
0.0836579590    0.0197697460    0.0003426448    
0.0838806200    0.0197143930    0.0003432355    
0.0841032810    0.0193818600    0.0003382158    
0.0843259420    0.0193154590    0.0003365962    
0.0845486030    0.0194269350    0.0003375663    
0.0847712640    0.0199151660    0.0003396989    
0.0849939250    0.0196880440    0.0003383445    
0.0852165860    0.0190867230    0.0003335739    
0.0854392470    0.0191387650    0.0003308651    
0.0856619080    0.0193346490    0.0003350032    
0.0858845690    0.0186003170    0.0003256206    
0.0861072300    0.0193954920    0.0003348034    
0.0863298910    0.0193772270    0.0003363980    
0.0865525520    0.0193597070    0.0003333424    
0.0867752130    0.0194495020    0.0003314186    
0.0869978740    0.0192479270    0.0003305370    
0.0872205350    0.0196349340    0.0003334187    
0.0874431960    0.0195840090    0.0003329863    
0.0876658570    0.0200142460    0.0003379165    
0.0878885180    0.0195963210    0.0003349431    
0.0881111790    0.0189521990    0.0003289698    
0.0883338400    0.0195489470    0.0003292170    
0.0885565010    0.0188809640    0.0003279309    
0.0887791620    0.0193876950    0.0003279931    
0.0890018230    0.0198617920    0.0003351992    
0.0892244840    0.0196001570    0.0003335502    
0.0894471450    0.0196938320    0.0003329341    
0.0896698060    0.0195064390    0.0003300965    
0.0898924670    0.0199019380    0.0003349716    
0.0901151280    0.0192040000    0.0003254915    
0.0903377890    0.0196614170    0.0003321015    
0.0905604500    0.0195647410    0.0003297636    
0.0907831110    0.0195338820    0.0003286837    
0.0910057720    0.0192726410    0.0003279767    
0.0912284330    0.0194784690    0.0003250025    
0.0914510940    0.0191280140    0.0003256569    
0.0916737550    0.0187408010    0.0003215440    
0.0918964160    0.0195534210    0.0003298072    
0.0921190770    0.0200426840    0.0003308888    
0.0923417380    0.0192445200    0.0003243663    
0.0925643990    0.0196237670    0.0003267453    
0.0927870600    0.0195766100    0.0003276908    
0.0930097210    0.0194656450    0.0003239778    
0.0932323820    0.0195340070    0.0003269319    
