# Diamond Light Source Ltd.
# Data extracted from: /dls/b21/data/2018/cm19678-3/processed/b21-386631_00638.dat
q(1/A)          Column          Error           
0.0035000000    2.0153163000    0.0241828290    
0.0037226610    1.8523669000    0.0226964170    
0.0039453220    1.6183771000    0.0192992440    
0.0041679830    1.2468328000    0.0139113510    
0.0043906440    0.9796867100    0.0117948970    
0.0046133050    0.7831056800    0.0101233580    
0.0048359660    0.5860413100    0.0082837348    
0.0050586270    0.4634607800    0.0072406909    
0.0052812880    0.4239126800    0.0065473533    
0.0055039490    0.3846349700    0.0059301068    
0.0057266100    0.3266079300    0.0052864684    
0.0059492710    0.2642298600    0.0047549204    
0.0061719320    0.2246980900    0.0042253206    
0.0063945930    0.1955866500    0.0039899030    
0.0066172539    0.1819258300    0.0036133113    
0.0068399149    0.1653950900    0.0033909813    
0.0070625759    0.1446531500    0.0031387060    
0.0072852369    0.1217216300    0.0028361092    
0.0075078979    0.1134614900    0.0027247330    
0.0077305589    0.1021279500    0.0025358245    
0.0079532199    0.0991334080    0.0024637499    
0.0081758809    0.0872637130    0.0023330542    
0.0083985419    0.0809587000    0.0020959413    
0.0086212029    0.0776487390    0.0020526485    
0.0088438639    0.0728289940    0.0019719556    
0.0090665249    0.0625582890    0.0017651842    
0.0092891859    0.0616957770    0.0018296803    
0.0095118469    0.0620752130    0.0017649539    
0.0097345079    0.0579378720    0.0016560438    
0.0099571689    0.0535753460    0.0015596386    
0.0101798300    0.0495799060    0.0015003562    
0.0104024910    0.0491547230    0.0014888536    
0.0106251520    0.0471281690    0.0014627897    
0.0108478130    0.0461597790    0.0014098286    
0.0110704740    0.0424652320    0.0012874164    
0.0112931350    0.0431468980    0.0013015196    
0.0115157960    0.0402393730    0.0012495736    
0.0117384570    0.0396639780    0.0012299278    
0.0119611180    0.0405823780    0.0012476554    
0.0121837790    0.0349655490    0.0011386349    
0.0124064400    0.0344948790    0.0010838019    
0.0126291010    0.0350314210    0.0010785283    
0.0128517620    0.0349729880    0.0010803192    
0.0130744230    0.0326807420    0.0010365702    
0.0132970840    0.0323293550    0.0010259411    
0.0135197450    0.0318528850    0.0010037696    
0.0137424060    0.0308183830    0.0009735898    
0.0139650670    0.0310190560    0.0009549977    
0.0141877280    0.0295911170    0.0009348189    
0.0144103890    0.0306901210    0.0009356049    
0.0146330500    0.0272038950    0.0008752710    
0.0148557110    0.0289310550    0.0008988442    
0.0150783720    0.0295534730    0.0009009535    
0.0153010330    0.0280585590    0.0008654939    
0.0155236940    0.0270927250    0.0008454102    
0.0157463550    0.0282764300    0.0008487174    
0.0159690160    0.0243205930    0.0007841274    
0.0161916770    0.0256221600    0.0008003018    
0.0164143380    0.0261133680    0.0008140577    
0.0166369990    0.0238843310    0.0007545347    
0.0168596600    0.0256900700    0.0007756432    
0.0170823210    0.0250400130    0.0007591369    
0.0173049820    0.0248957210    0.0007582551    
0.0175276430    0.0245037770    0.0007601954    
0.0177503040    0.0239870730    0.0007329638    
0.0179729650    0.0252919950    0.0007451725    
0.0181956260    0.0237612760    0.0007084244    
0.0184182870    0.0228473810    0.0006913932    
0.0186409480    0.0238791010    0.0007113053    
0.0188636090    0.0239981350    0.0007085913    
0.0190862700    0.0244237210    0.0007137290    
0.0193089310    0.0229753580    0.0006911641    
0.0195315920    0.0226809510    0.0006633672    
0.0197542530    0.0226692500    0.0006641623    
0.0199769140    0.0235448950    0.0006768681    
0.0201995750    0.0220779780    0.0006451799    
0.0204222360    0.0237052780    0.0006742731    
0.0206448970    0.0220460010    0.0006456253    
0.0208675580    0.0234507560    0.0006521651    
0.0210902190    0.0230180460    0.0006523547    
0.0213128800    0.0225235520    0.0006365532    
0.0215355410    0.0223765160    0.0006269137    
0.0217582020    0.0218671680    0.0006197376    
0.0219808630    0.0208638160    0.0006045578    
0.0222035240    0.0221559960    0.0006173527    
0.0224261850    0.0228278790    0.0006210662    
0.0226488460    0.0212047200    0.0005940840    
0.0228715070    0.0212651100    0.0005934513    
0.0230941680    0.0217122820    0.0005996587    
0.0233168290    0.0219370920    0.0006042565    
0.0235394900    0.0213253230    0.0005891963    
0.0237621510    0.0224738770    0.0005885715    
0.0239848120    0.0211972210    0.0005722712    
0.0242074730    0.0216802240    0.0005741217    
0.0244301340    0.0208459130    0.0005636089    
0.0246527950    0.0213268830    0.0005753525    
0.0248754560    0.0213431040    0.0005626356    
0.0250981170    0.0211404330    0.0005612065    
0.0253207780    0.0212289550    0.0005455891    
0.0255434390    0.0214410370    0.0005541596    
0.0257661000    0.0209601080    0.0005496817    
0.0259887610    0.0214906260    0.0005506798    
0.0262114220    0.0205935790    0.0005419363    
0.0264340830    0.0198843690    0.0005252774    
0.0266567440    0.0210510210    0.0005371277    
0.0268794050    0.0206348530    0.0005296214    
0.0271020660    0.0206838550    0.0005281032    
0.0273247270    0.0206226640    0.0005241545    
0.0275473880    0.0206468290    0.0005234179    
0.0277700490    0.0203247800    0.0005162499    
0.0279927100    0.0199974270    0.0005076078    
0.0282153710    0.0198800910    0.0005085770    
0.0284380320    0.0206405030    0.0005152082    
0.0286606930    0.0206426330    0.0005108248    
0.0288833540    0.0206576870    0.0005119818    
0.0291060150    0.0203652010    0.0005078619    
0.0293286760    0.0197400260    0.0004930387    
0.0295513370    0.0200232690    0.0004911560    
0.0297739980    0.0201587380    0.0004982405    
0.0299966590    0.0207847220    0.0004972763    
0.0302193200    0.0197661210    0.0004920052    
0.0304419810    0.0206993590    0.0005044125    
0.0306646420    0.0197099140    0.0004783171    
0.0308873030    0.0201844400    0.0004819499    
0.0311099640    0.0210644190    0.0004936220    
0.0313326250    0.0206003000    0.0004827459    
0.0315552860    0.0198608580    0.0004801457    
0.0317779470    0.0201745410    0.0004843440    
0.0320006080    0.0205342460    0.0004775406    
0.0322232690    0.0198330220    0.0004712806    
0.0324459300    0.0200234120    0.0004700021    
0.0326685910    0.0201333820    0.0004705140    
0.0328912520    0.0204883240    0.0004762152    
0.0331139130    0.0197970110    0.0004620227    
0.0333365740    0.0198932250    0.0004646479    
0.0335592350    0.0198105680    0.0004592231    
0.0337818960    0.0206824300    0.0004688459    
0.0340045570    0.0200552780    0.0004609495    
0.0342272170    0.0200340180    0.0004588879    
0.0344498780    0.0196209300    0.0004559310    
0.0346725390    0.0209930700    0.0004628698    
0.0348952000    0.0203067050    0.0004531663    
0.0351178610    0.0200031450    0.0004518250    
0.0353405220    0.0200741330    0.0004505641    
0.0355631830    0.0199633600    0.0004476270    
0.0357858440    0.0198429300    0.0004462749    
0.0360085050    0.0198822400    0.0004480665    
0.0362311660    0.0200039010    0.0004440927    
0.0364538270    0.0200236320    0.0004407456    
0.0366764880    0.0192874110    0.0004322533    
0.0368991490    0.0197167830    0.0004348350    
0.0371218100    0.0199759970    0.0004364319    
0.0373444710    0.0197898320    0.0004391240    
0.0375671320    0.0201111380    0.0004420297    
0.0377897930    0.0204570050    0.0004342736    
0.0380124540    0.0198930340    0.0004309326    
0.0382351150    0.0209759160    0.0004425062    
0.0384577760    0.0198589480    0.0004264091    
0.0386804370    0.0195961460    0.0004268108    
0.0389030980    0.0191356650    0.0004185722    
0.0391257590    0.0198160590    0.0004230571    
0.0393484200    0.0198802680    0.0004223158    
0.0395710810    0.0194751010    0.0004185533    
0.0397937420    0.0200058450    0.0004242184    
0.0400164030    0.0188539780    0.0004135002    
0.0402390640    0.0193705280    0.0004135454    
0.0404617250    0.0191426530    0.0004086804    
0.0406843860    0.0199383210    0.0004130576    
0.0409070470    0.0197181330    0.0004150496    
0.0411297080    0.0196640570    0.0004104703    
0.0413523690    0.0194555160    0.0004093404    
0.0415750300    0.0206809050    0.0004256195    
0.0417976910    0.0196831680    0.0004044866    
0.0420203520    0.0194126260    0.0004032065    
0.0422430130    0.0200915020    0.0004117491    
0.0424656740    0.0203692530    0.0004091895    
0.0426883350    0.0203311950    0.0004108360    
0.0429109960    0.0199822730    0.0004085679    
0.0431336570    0.0197317350    0.0004002784    
0.0433563180    0.0202718950    0.0004092202    
0.0435789790    0.0195358910    0.0003954115    
0.0438016400    0.0196195760    0.0003984132    
0.0440243010    0.0194929960    0.0003930966    
0.0442469620    0.0193823360    0.0003943280    
0.0444696230    0.0194028760    0.0003931221    
0.0446922840    0.0193432340    0.0003913518    
0.0449149450    0.0198700320    0.0003913426    
0.0451376060    0.0205376400    0.0004027763    
0.0453602670    0.0193977320    0.0003873354    
0.0455829280    0.0196615570    0.0003895096    
0.0458055890    0.0200398600    0.0003955321    
0.0460282500    0.0195213710    0.0003856743    
0.0462509110    0.0192190940    0.0003802966    
0.0464735720    0.0192784700    0.0003810987    
0.0466962330    0.0205108570    0.0003948779    
0.0469188940    0.0196539280    0.0003854453    
0.0471415550    0.0194515670    0.0003854252    
0.0473642160    0.0204772680    0.0003899194    
0.0475868770    0.0199802730    0.0003832452    
0.0478095380    0.0191353950    0.0003734135    
0.0480321990    0.0198414420    0.0003810733    
0.0482548600    0.0201405150    0.0003822617    
0.0484775210    0.0192770460    0.0003776910    
0.0487001820    0.0194281140    0.0003736176    
0.0489228430    0.0193426450    0.0003725945    
0.0491455040    0.0199395610    0.0003756835    
0.0493681650    0.0189444470    0.0003693359    
0.0495908260    0.0190013840    0.0003636670    
0.0498134870    0.0194358040    0.0003713019    
0.0500361480    0.0200739620    0.0003763500    
0.0502588090    0.0192236050    0.0003627741    
0.0504814700    0.0200246070    0.0003750953    
0.0507041310    0.0197159200    0.0003677678    
0.0509267920    0.0204050760    0.0003756879    
0.0511494530    0.0195196080    0.0003649960    
0.0513721140    0.0195801490    0.0003687809    
0.0515947750    0.0191793450    0.0003601477    
0.0518174360    0.0189489800    0.0003558219    
0.0520400970    0.0201499300    0.0003643802    
0.0522627580    0.0195623340    0.0003620792    
0.0524854190    0.0193572790    0.0003631050    
0.0527080800    0.0200662920    0.0003725575    
0.0529307410    0.0195360580    0.0003693287    
0.0531534020    0.0188187630    0.0003611654    
0.0533760630    0.0199899720    0.0003733998    
0.0535987240    0.0197484700    0.0003694046    
0.0538213850    0.0203642900    0.0003794661    
0.0540440460    0.0194855830    0.0003694323    
0.0542667070    0.0201030350    0.0003778259    
0.0544893680    0.0201955490    0.0003788960    
0.0547120290    0.0192887500    0.0003677552    
0.0549346900    0.0197301870    0.0003721352    
0.0551573510    0.0203483320    0.0003823686    
0.0553800120    0.0190573210    0.0003668942    
0.0556026730    0.0197159440    0.0003809178    
0.0558253340    0.0194338870    0.0003813500    
0.0560479950    0.0192692750    0.0003797316    
0.0562706560    0.0189494660    0.0003802079    
0.0564933170    0.0197534610    0.0003915609    
0.0567159780    0.0193735460    0.0003831279    
0.0569386390    0.0194467600    0.0003898720    
0.0571613000    0.0199578310    0.0003864576    
0.0573839610    0.0189507140    0.0003734539    
0.0576066220    0.0201510270    0.0003861654    
0.0578292830    0.0193856690    0.0003775076    
0.0580519440    0.0197659640    0.0003826706    
0.0582746050    0.0199738800    0.0003829817    
0.0584972660    0.0195516340    0.0003774616    
0.0587199270    0.0195526240    0.0003742172    
0.0589425880    0.0200324240    0.0003765653    
0.0591652490    0.0190799630    0.0003696668    
0.0593879100    0.0196655240    0.0003725092    
0.0596105710    0.0194973130    0.0003705214    
0.0598332320    0.0193665110    0.0003724329    
0.0600558930    0.0194951170    0.0003712850    
0.0602785540    0.0194398090    0.0003703661    
0.0605012150    0.0196530900    0.0003716076    
0.0607238760    0.0197485380    0.0003697943    
0.0609465370    0.0199974020    0.0003750465    
0.0611691980    0.0201666840    0.0003772275    
0.0613918590    0.0194526330    0.0003664442    
0.0616145200    0.0190239720    0.0003650365    
0.0618371810    0.0194350200    0.0003653354    
0.0620598420    0.0192342560    0.0003638182    
0.0622825030    0.0196851690    0.0003736867    
0.0625051640    0.0195222910    0.0003669111    
0.0627278250    0.0193320930    0.0003643675    
0.0629504860    0.0197081890    0.0003649039    
0.0631731470    0.0192640590    0.0003652324    
0.0633958080    0.0191782400    0.0003665152    
0.0636184690    0.0192697050    0.0003725049    
0.0638411300    0.0197899760    0.0003760831    
0.0640637910    0.0197431820    0.0003782802    
0.0642864520    0.0203001000    0.0003827483    
0.0645091130    0.0191813850    0.0003753128    
0.0647317740    0.0190470690    0.0003744088    
0.0649544350    0.0190125270    0.0003736576    
0.0651770960    0.0195175070    0.0003765221    
0.0653997570    0.0190930320    0.0003715976    
0.0656224180    0.0195756610    0.0003770831    
0.0658450790    0.0205834880    0.0003811104    
0.0660677400    0.0195278960    0.0003727893    
0.0662904010    0.0196835680    0.0003787403    
0.0665130620    0.0196432100    0.0003767106    
0.0667357230    0.0192029320    0.0003790873    
0.0669583840    0.0194686310    0.0003804238    
0.0671810450    0.0192762970    0.0003764500    
0.0674037060    0.0193495360    0.0003835541    
0.0676263670    0.0187675610    0.0003749764    
0.0678490280    0.0194711970    0.0003796053    
0.0680716890    0.0199816700    0.0003854048    
0.0682943500    0.0193645700    0.0003752514    
0.0685170110    0.0190075500    0.0003679876    
0.0687396720    0.0192964390    0.0003697885    
0.0689623330    0.0198221620    0.0003736043    
0.0691849940    0.0194480920    0.0003726263    
0.0694076550    0.0202332440    0.0003798707    
0.0696303160    0.0203633760    0.0003780732    
0.0698529770    0.0195721150    0.0003698782    
0.0700756380    0.0195019900    0.0003644754    
0.0702982990    0.0195810200    0.0003691904    
0.0705209600    0.0201568970    0.0003718757    
0.0707436210    0.0194623440    0.0003637345    
0.0709662820    0.0193722660    0.0003672179    
0.0711889430    0.0195716230    0.0003645691    
0.0714116040    0.0199175440    0.0003685276    
0.0716342650    0.0194585370    0.0003627774    
0.0718569260    0.0195503480    0.0003621677    
0.0720795870    0.0198373430    0.0003662920    
0.0723022480    0.0196943240    0.0003655254    
0.0725249090    0.0192916620    0.0003574369    
0.0727475700    0.0198516560    0.0003656846    
0.0729702310    0.0201328910    0.0003653287    
0.0731928920    0.0199266150    0.0003649049    
0.0734155530    0.0200401870    0.0003652131    
0.0736382140    0.0198166460    0.0003608398    
0.0738608750    0.0198938150    0.0003638774    
0.0740835360    0.0199541050    0.0003635237    
0.0743061970    0.0192995470    0.0003524774    
0.0745288580    0.0200664310    0.0003631078    
0.0747515190    0.0195256990    0.0003588895    
0.0749741800    0.0194961130    0.0003552979    
0.0751968410    0.0193693830    0.0003569219    
0.0754195020    0.0196761030    0.0003576291    
0.0756421630    0.0201358450    0.0003588257    
0.0758648240    0.0193782280    0.0003528567    
0.0760874850    0.0199052340    0.0003574509    
0.0763101460    0.0194890630    0.0003533551    
0.0765328070    0.0190857140    0.0003532575    
0.0767554680    0.0193242250    0.0003530459    
0.0769781290    0.0191920350    0.0003498145    
0.0772007900    0.0193120690    0.0003480924    
0.0774234510    0.0195387320    0.0003521207    
0.0776461120    0.0195016830    0.0003514530    
0.0778687730    0.0195680990    0.0003508879    
0.0780914340    0.0199125620    0.0003564920    
0.0783140950    0.0198605740    0.0003503777    
0.0785367560    0.0201040840    0.0003582028    
0.0787594170    0.0198645470    0.0003528723    
0.0789820780    0.0194505510    0.0003473867    
0.0792047390    0.0188785100    0.0003433592    
0.0794274000    0.0199835240    0.0003547619    
0.0796500610    0.0196818010    0.0003486373    
0.0798727220    0.0191030280    0.0003431559    
0.0800953830    0.0198497530    0.0003489940    
0.0803180440    0.0194179950    0.0003475822    
0.0805407050    0.0196737730    0.0003495386    
0.0807633660    0.0196930540    0.0003493852    
0.0809860270    0.0199539740    0.0003503934    
0.0812086880    0.0198161910    0.0003461641    
0.0814313490    0.0198325930    0.0003478867    
0.0816540100    0.0194447370    0.0003436839    
0.0818766710    0.0194420990    0.0003444453    
0.0820993320    0.0195050630    0.0003443739    
0.0823219930    0.0191329470    0.0003424798    
0.0825446540    0.0201186370    0.0003486394    
0.0827673150    0.0193962060    0.0003400228    
0.0829899760    0.0194994550    0.0003403197    
0.0832126370    0.0197224660    0.0003437932    
0.0834352980    0.0197238620    0.0003430367    
0.0836579590    0.0200934960    0.0003454654    
0.0838806200    0.0192332790    0.0003390473    
0.0841032810    0.0197566910    0.0003414966    
0.0843259420    0.0193888010    0.0003372603    
0.0845486030    0.0194826950    0.0003380762    
0.0847712640    0.0198080920    0.0003388103    
0.0849939250    0.0191443960    0.0003336658    
0.0852165860    0.0195560860    0.0003376762    
0.0854392470    0.0190158260    0.0003298258    
0.0856619080    0.0190124970    0.0003322259    
0.0858845690    0.0188597080    0.0003279082    
0.0861072300    0.0191556790    0.0003327525    
0.0863298910    0.0194210680    0.0003368040    
0.0865525520    0.0191043360    0.0003311618    
0.0867752130    0.0195089490    0.0003319500    
0.0869978740    0.0194154950    0.0003319980    
0.0872205350    0.0193887730    0.0003313473    
0.0874431960    0.0201702440    0.0003379591    
0.0876658570    0.0190358330    0.0003295785    
0.0878885180    0.0191011660    0.0003307096    
0.0881111790    0.0202743480    0.0003402771    
0.0883338400    0.0196184670    0.0003298270    
0.0885565010    0.0189522000    0.0003285740    
0.0887791620    0.0194516980    0.0003285591    
0.0890018230    0.0198931090    0.0003354890    
0.0892244840    0.0198586160    0.0003357678    
0.0894471450    0.0196292830    0.0003324134    
0.0896698060    0.0195820420    0.0003307608    
0.0898924670    0.0197696400    0.0003338818    
0.0901151280    0.0194331510    0.0003274527    
0.0903377890    0.0192324140    0.0003284834    
0.0905604500    0.0198012020    0.0003317757    
0.0907831110    0.0195257970    0.0003286408    
0.0910057720    0.0193090730    0.0003283115    
0.0912284330    0.0194488970    0.0003247804    
0.0914510940    0.0195911810    0.0003296012    
0.0916737550    0.0190526490    0.0003242329    
0.0918964160    0.0199236060    0.0003329399    
0.0921190770    0.0192043540    0.0003239194    
0.0923417380    0.0193786870    0.0003255198    
0.0925643990    0.0197736740    0.0003280159    
0.0927870600    0.0193272380    0.0003256218    
0.0930097210    0.0196304020    0.0003253707    
0.0932323820    0.0197832490    0.0003290360    
