# Diamond Light Source Ltd.
# Data extracted from: /dls/b21/data/2018/cm19678-3/processed/b21-386631_00635.dat
q(1/A)          Column          Error           
0.0035000000    2.0856043000    0.0245978790    
0.0037226610    1.8421775000    0.0226311050    
0.0039453220    1.6002596000    0.0191885380    
0.0041679830    1.3087494000    0.0142508140    
0.0043906440    0.9659570700    0.0117105060    
0.0046133050    0.7606699600    0.0099760531    
0.0048359660    0.5867156300    0.0082874730    
0.0050586270    0.4602924800    0.0072150057    
0.0052812880    0.4287615800    0.0065838772    
0.0055039490    0.3829858500    0.0059166478    
0.0057266100    0.3166037800    0.0052042308    
0.0059492710    0.2555243400    0.0046753558    
0.0061719320    0.2221799600    0.0042010577    
0.0063945930    0.1976539100    0.0040104366    
0.0066172539    0.1828135000    0.0036216674    
0.0068399149    0.1650066100    0.0033865772    
0.0070625759    0.1450939400    0.0031430954    
0.0072852369    0.1270427500    0.0028970783    
0.0075078979    0.1165080100    0.0027607292    
0.0077305589    0.1013472800    0.0025258011    
0.0079532199    0.0971499460    0.0024386760    
0.0081758809    0.0891129150    0.0023573525    
0.0083985419    0.0835425780    0.0021288620    
0.0086212029    0.0783347410    0.0020614406    
0.0088438639    0.0726508190    0.0019692980    
0.0090665249    0.0665762120    0.0018207628    
0.0092891859    0.0632537060    0.0018524082    
0.0095118469    0.0592001730    0.0017233837    
0.0097345079    0.0567877700    0.0016393217    
0.0099571689    0.0552415690    0.0015835097    
0.0101798300    0.0501123280    0.0015082038    
0.0104024910    0.0471588160    0.0014581327    
0.0106251520    0.0461178840    0.0014468467    
0.0108478130    0.0435223700    0.0013687904    
0.0110704740    0.0440935940    0.0013117053    
0.0112931350    0.0432932160    0.0013035632    
0.0115157960    0.0393759400    0.0012359415    
0.0117384570    0.0369851270    0.0011875209    
0.0119611180    0.0372360410    0.0011949614    
0.0121837790    0.0366250350    0.0011651976    
0.0124064400    0.0357119140    0.0011026188    
0.0126291010    0.0353547160    0.0010833594    
0.0128517620    0.0348308770    0.0010779886    
0.0130744230    0.0321796010    0.0010284645    
0.0132970840    0.0304985950    0.0009963457    
0.0135197450    0.0318449980    0.0010035211    
0.0137424060    0.0329632000    0.0010067739    
0.0139650670    0.0303646920    0.0009447540    
0.0141877280    0.0311190770    0.0009585315    
0.0144103890    0.0297985460    0.0009218005    
0.0146330500    0.0283796440    0.0008938748    
0.0148557110    0.0277792200    0.0008806605    
0.0150783720    0.0287772960    0.0008889337    
0.0153010330    0.0279181590    0.0008632189    
0.0155236940    0.0259783120    0.0008277378    
0.0157463550    0.0277600690    0.0008408283    
0.0159690160    0.0261343720    0.0008127403    
0.0161916770    0.0260156720    0.0008063242    
0.0164143380    0.0265382110    0.0008205514    
0.0166369990    0.0262614920    0.0007910949    
0.0168596600    0.0248408520    0.0007626211    
0.0170823210    0.0252869120    0.0007627759    
0.0173049820    0.0247048470    0.0007552492    
0.0175276430    0.0243798180    0.0007581763    
0.0177503040    0.0243617860    0.0007385751    
0.0179729650    0.0246930980    0.0007362059    
0.0181956260    0.0226573660    0.0006916869    
0.0184182870    0.0223187910    0.0006832639    
0.0186409480    0.0232800660    0.0007022397    
0.0188636090    0.0236365980    0.0007031464    
0.0190862700    0.0213524310    0.0006672635    
0.0193089310    0.0234893450    0.0006987659    
0.0195315920    0.0227141300    0.0006637700    
0.0197542530    0.0233056110    0.0006733364    
0.0199769140    0.0240059550    0.0006833787    
0.0201995750    0.0220159630    0.0006441934    
0.0204222360    0.0225106020    0.0006569814    
0.0206448970    0.0221350550    0.0006468479    
0.0208675580    0.0227921890    0.0006428630    
0.0210902190    0.0230308300    0.0006524550    
0.0213128800    0.0222302050    0.0006323161    
0.0215355410    0.0224587730    0.0006279871    
0.0217582020    0.0231084880    0.0006370061    
0.0219808630    0.0219970310    0.0006206821    
0.0222035240    0.0218065570    0.0006123891    
0.0224261850    0.0210315860    0.0005960564    
0.0226488460    0.0214657100    0.0005976548    
0.0228715070    0.0212598440    0.0005933044    
0.0230941680    0.0222036320    0.0006063308    
0.0233168290    0.0209498930    0.0005904307    
0.0235394900    0.0210921950    0.0005858943    
0.0237621510    0.0212971240    0.0005728843    
0.0239848120    0.0214236630    0.0005752485    
0.0242074730    0.0213708600    0.0005699403    
0.0244301340    0.0219833360    0.0005787093    
0.0246527950    0.0203284570    0.0005616539    
0.0248754560    0.0211598810    0.0005601460    
0.0250981170    0.0209713600    0.0005588886    
0.0253207780    0.0211816440    0.0005449133    
0.0255434390    0.0212352600    0.0005514257    
0.0257661000    0.0215169820    0.0005568670    
0.0259887610    0.0209210150    0.0005432656    
0.0262114220    0.0201037100    0.0005353855    
0.0264340830    0.0202401330    0.0005298900    
0.0266567440    0.0210869130    0.0005375188    
0.0268794050    0.0212412970    0.0005372811    
0.0271020660    0.0206922130    0.0005281445    
0.0273247270    0.0213234550    0.0005329199    
0.0275473880    0.0213315420    0.0005319603    
0.0277700490    0.0206343760    0.0005201026    
0.0279927100    0.0208169080    0.0005178399    
0.0282153710    0.0207986880    0.0005201298    
0.0284380320    0.0194911250    0.0005005959    
0.0286606930    0.0201067340    0.0005040881    
0.0288833540    0.0207540590    0.0005131111    
0.0291060150    0.0205754090    0.0005104131    
0.0293286760    0.0207200480    0.0005050667    
0.0295513370    0.0200424000    0.0004913298    
0.0297739980    0.0198090280    0.0004938387    
0.0299966590    0.0207438920    0.0004967261    
0.0302193200    0.0204713570    0.0005006434    
0.0304419810    0.0200920860    0.0004968967    
0.0306646420    0.0206798400    0.0004898841    
0.0308873030    0.0206971590    0.0004879723    
0.0311099640    0.0200415150    0.0004814279    
0.0313326250    0.0210136620    0.0004875048    
0.0315552860    0.0203201350    0.0004856054    
0.0317779470    0.0191232870    0.0004714977    
0.0320006080    0.0200628420    0.0004719689    
0.0322232690    0.0205110660    0.0004792096    
0.0324459300    0.0200294830    0.0004700151    
0.0326685910    0.0194688100    0.0004626261    
0.0328912520    0.0207156380    0.0004787903    
0.0331139130    0.0197597690    0.0004615307    
0.0333365740    0.0199751000    0.0004655454    
0.0335592350    0.0193373940    0.0004536495    
0.0337818960    0.0197210090    0.0004577624    
0.0340045570    0.0195524970    0.0004550786    
0.0342272170    0.0201551580    0.0004602162    
0.0344498780    0.0199126420    0.0004592508    
0.0346725390    0.0196920720    0.0004482422    
0.0348952000    0.0212621640    0.0004636474    
0.0351178610    0.0202634740    0.0004546993    
0.0353405220    0.0199175070    0.0004487473    
0.0355631830    0.0202995860    0.0004513248    
0.0357858440    0.0200587730    0.0004486400    
0.0360085050    0.0197662700    0.0004467025    
0.0362311660    0.0206494800    0.0004511460    
0.0364538270    0.0205618170    0.0004465741    
0.0366764880    0.0193020050    0.0004323632    
0.0368991490    0.0199036510    0.0004368367    
0.0371218100    0.0202189010    0.0004390229    
0.0373444710    0.0200674340    0.0004421384    
0.0375671320    0.0201061580    0.0004419203    
0.0377897930    0.0199818860    0.0004291478    
0.0380124540    0.0202240880    0.0004344497    
0.0382351150    0.0196828010    0.0004285965    
0.0384577760    0.0197624950    0.0004253197    
0.0386804370    0.0193682430    0.0004242691    
0.0389030980    0.0199730540    0.0004275797    
0.0391257590    0.0199556280    0.0004244918    
0.0393484200    0.0197856550    0.0004212575    
0.0395710810    0.0196951080    0.0004208587    
0.0397937420    0.0196951220    0.0004208590    
0.0400164030    0.0198194280    0.0004239026    
0.0402390640    0.0201954390    0.0004222069    
0.0404617250    0.0196961750    0.0004144956    
0.0406843860    0.0195227390    0.0004086796    
0.0409070470    0.0207875650    0.0004261035    
0.0411297080    0.0197876800    0.0004117076    
0.0413523690    0.0192009990    0.0004066038    
0.0415750300    0.0207283280    0.0004260545    
0.0417976910    0.0198195660    0.0004058354    
0.0420203520    0.0194580550    0.0004036281    
0.0422430130    0.0199431130    0.0004101750    
0.0424656740    0.0193616130    0.0003988907    
0.0426883350    0.0194297840    0.0004015756    
0.0429109960    0.0198771040    0.0004074409    
0.0431336570    0.0192965930    0.0003957911    
0.0433563180    0.0196474720    0.0004028186    
0.0435789790    0.0197310840    0.0003973328    
0.0438016400    0.0193477960    0.0003955951    
0.0440243010    0.0194881700    0.0003929993    
0.0442469620    0.0199149100    0.0003996594    
0.0444696230    0.0200590080    0.0003996643    
0.0446922840    0.0200271240    0.0003981606    
0.0449149450    0.0199113450    0.0003917007    
0.0451376060    0.0193795720    0.0003912073    
0.0453602670    0.0200965800    0.0003942022    
0.0455829280    0.0199112690    0.0003919268    
0.0458055890    0.0197851450    0.0003929617    
0.0460282500    0.0193870360    0.0003842975    
0.0462509110    0.0196732520    0.0003847161    
0.0464735720    0.0196804100    0.0003850033    
0.0466962330    0.0196849390    0.0003867980    
0.0469188940    0.0191956220    0.0003808775    
0.0471415550    0.0196834400    0.0003876676    
0.0473642160    0.0198857930    0.0003841993    
0.0475868770    0.0192771440    0.0003763947    
0.0478095380    0.0194584860    0.0003765062    
0.0480321990    0.0198292120    0.0003809086    
0.0482548600    0.0193376500    0.0003745188    
0.0484775210    0.0189985400    0.0003749063    
0.0487001820    0.0195813330    0.0003750415    
0.0489228430    0.0197109790    0.0003760788    
0.0491455040    0.0202884500    0.0003789091    
0.0493681650    0.0197100150    0.0003766780    
0.0495908260    0.0190940980    0.0003645080    
0.0498134870    0.0187431060    0.0003645801    
0.0500361480    0.0200830990    0.0003763891    
0.0502588090    0.0198279890    0.0003683871    
0.0504814700    0.0196965240    0.0003719637    
0.0507041310    0.0201294000    0.0003715581    
0.0509267920    0.0194872090    0.0003670956    
0.0511494530    0.0197672380    0.0003672584    
0.0513721140    0.0191656010    0.0003648110    
0.0515947750    0.0195058920    0.0003631557    
0.0518174360    0.0194720030    0.0003606545    
0.0520400970    0.0193017250    0.0003565844    
0.0522627580    0.0197785920    0.0003640300    
0.0524854190    0.0197270060    0.0003665109    
0.0527080800    0.0200129160    0.0003720156    
0.0529307410    0.0198872220    0.0003725872    
0.0531534020    0.0196733850    0.0003692295    
0.0533760630    0.0199989680    0.0003734376    
0.0535987240    0.0199370090    0.0003711178    
0.0538213850    0.0201542410    0.0003774573    
0.0540440460    0.0200549570    0.0003747445    
0.0542667070    0.0191964480    0.0003691625    
0.0544893680    0.0190676670    0.0003681181    
0.0547120290    0.0198447580    0.0003729717    
0.0549346900    0.0188551700    0.0003637447    
0.0551573510    0.0195387570    0.0003746386    
0.0553800120    0.0190949730    0.0003672110    
0.0556026730    0.0203438170    0.0003868877    
0.0558253340    0.0192719660    0.0003797109    
0.0560479950    0.0189802120    0.0003768260    
0.0562706560    0.0193947500    0.0003846015    
0.0564933170    0.0191200300    0.0003851840    
0.0567159780    0.0199368590    0.0003886098    
0.0569386390    0.0194106870    0.0003894620    
0.0571613000    0.0195339310    0.0003822841    
0.0573839610    0.0200643880    0.0003842230    
0.0576066220    0.0200202630    0.0003848628    
0.0578292830    0.0200129340    0.0003835190    
0.0580519440    0.0190870600    0.0003759948    
0.0582746050    0.0195651500    0.0003789960    
0.0584972660    0.0189858150    0.0003719136    
0.0587199270    0.0190966790    0.0003697825    
0.0589425880    0.0191711660    0.0003683359    
0.0591652490    0.0194046160    0.0003727524    
0.0593879100    0.0194490220    0.0003704072    
0.0596105710    0.0201612420    0.0003767305    
0.0598332320    0.0196409710    0.0003750162    
0.0600558930    0.0195963300    0.0003722015    
0.0602785540    0.0196395740    0.0003722181    
0.0605012150    0.0196903730    0.0003719139    
0.0607238760    0.0195705800    0.0003680788    
0.0609465370    0.0199854180    0.0003748877    
0.0611691980    0.0190329740    0.0003664255    
0.0613918590    0.0193650010    0.0003655726    
0.0616145200    0.0195584680    0.0003700832    
0.0618371810    0.0191693070    0.0003627845    
0.0620598420    0.0195666110    0.0003669026    
0.0622825030    0.0194746270    0.0003716369    
0.0625051640    0.0202275580    0.0003734336    
0.0627278250    0.0197735850    0.0003684590    
0.0629504860    0.0195276880    0.0003631841    
0.0631731470    0.0198892660    0.0003710658    
0.0633958080    0.0193415570    0.0003680269    
0.0636184690    0.0203520060    0.0003827757    
0.0638411300    0.0197136230    0.0003753104    
0.0640637910    0.0203759470    0.0003842467    
0.0642864520    0.0198044710    0.0003780002    
0.0645091130    0.0192206860    0.0003756506    
0.0647317740    0.0194691130    0.0003784872    
0.0649544350    0.0194336410    0.0003777263    
0.0651770960    0.0199048150    0.0003801926    
0.0653997570    0.0197245810    0.0003776466    
0.0656224180    0.0192803380    0.0003741816    
0.0658450790    0.0190898620    0.0003669770    
0.0660677400    0.0197863090    0.0003752013    
0.0662904010    0.0191978370    0.0003739917    
0.0665130620    0.0196455690    0.0003766866    
0.0667357230    0.0192804760    0.0003798049    
0.0669583840    0.0201549650    0.0003870234    
0.0671810450    0.0197566190    0.0003810641    
0.0674037060    0.0190863080    0.0003808891    
0.0676263670    0.0196767160    0.0003839040    
0.0678490280    0.0199399020    0.0003840994    
0.0680716890    0.0197537680    0.0003831532    
0.0682943500    0.0187054830    0.0003687644    
0.0685170110    0.0203347520    0.0003805711    
0.0687396720    0.0194262710    0.0003709844    
0.0689623330    0.0200706900    0.0003758925    
0.0691849940    0.0195432050    0.0003734901    
0.0694076550    0.0195651300    0.0003735001    
0.0696303160    0.0200776260    0.0003753647    
0.0698529770    0.0199446370    0.0003733354    
0.0700756380    0.0200760140    0.0003697548    
0.0702982990    0.0197431920    0.0003706702    
0.0705209600    0.0189104170    0.0003601494    
0.0707436210    0.0197701500    0.0003665541    
0.0709662820    0.0191238970    0.0003648111    
0.0711889430    0.0192952040    0.0003619406    
0.0714116040    0.0202875500    0.0003718888    
0.0716342650    0.0194334330    0.0003624984    
0.0718569260    0.0203235710    0.0003692145    
0.0720795870    0.0195011010    0.0003631295    
0.0723022480    0.0196894480    0.0003654349    
0.0725249090    0.0199556030    0.0003634907    
0.0727475700    0.0199544940    0.0003665852    
0.0729702310    0.0196573490    0.0003609436    
0.0731928920    0.0191667680    0.0003578357    
0.0734155530    0.0199819930    0.0003646373    
0.0736382140    0.0199890990    0.0003623617    
0.0738608750    0.0197691160    0.0003626903    
0.0740835360    0.0196777020    0.0003609524    
0.0743061970    0.0196937920    0.0003560153    
0.0745288580    0.0193717260    0.0003567228    
0.0747515190    0.0201078090    0.0003641548    
0.0749741800    0.0190187310    0.0003508776    
0.0751968410    0.0194763690    0.0003578619    
0.0754195020    0.0194437800    0.0003554675    
0.0756421630    0.0194979740    0.0003530527    
0.0758648240    0.0196946080    0.0003556815    
0.0760874850    0.0194895930    0.0003536555    
0.0763101460    0.0192344390    0.0003509957    
0.0765328070    0.0198392590    0.0003601191    
0.0767554680    0.0189776740    0.0003498226    
0.0769781290    0.0196080010    0.0003535413    
0.0772007900    0.0201603710    0.0003556113    
0.0774234510    0.0196227130    0.0003528329    
0.0776461120    0.0191485830    0.0003482136    
0.0778687730    0.0195003490    0.0003502366    
0.0780914340    0.0195949790    0.0003535940    
0.0783140950    0.0193921720    0.0003461784    
0.0785367560    0.0196269370    0.0003538827    
0.0787594170    0.0201165690    0.0003550597    
0.0789820780    0.0197744830    0.0003502241    
0.0792047390    0.0196043140    0.0003498540    
0.0794274000    0.0197330150    0.0003524877    
0.0796500610    0.0194731820    0.0003467417    
0.0798727220    0.0194865500    0.0003465405    
0.0800953830    0.0194706390    0.0003456024    
0.0803180440    0.0200663060    0.0003532932    
0.0805407050    0.0197371960    0.0003500581    
0.0807633660    0.0201963400    0.0003537777    
0.0809860270    0.0199551840    0.0003503606    
0.0812086880    0.0197085100    0.0003451795    
0.0814313490    0.0193884220    0.0003439264    
0.0816540100    0.0189237100    0.0003390061    
0.0818766710    0.0193762770    0.0003438192    
0.0820993320    0.0198467150    0.0003473338    
0.0823219930    0.0193427190    0.0003443095    
0.0825446540    0.0191170330    0.0003398080    
0.0827673150    0.0202316570    0.0003472255    
0.0829899760    0.0198687230    0.0003434844    
0.0832126370    0.0201190040    0.0003471891    
0.0834352980    0.0194207470    0.0003403484    
0.0836579590    0.0195481550    0.0003407029    
0.0838806200    0.0200292070    0.0003459487    
0.0841032810    0.0194390280    0.0003386981    
0.0843259420    0.0197065780    0.0003399708    
0.0845486030    0.0200057260    0.0003425417    
0.0847712640    0.0196931050    0.0003377836    
0.0849939250    0.0192036090    0.0003341401    
0.0852165860    0.0192889280    0.0003353202    
0.0854392470    0.0197946680    0.0003364708    
0.0856619080    0.0195765720    0.0003370765    
0.0858845690    0.0191058310    0.0003300000    
0.0861072300    0.0192433960    0.0003334722    
0.0863298910    0.0192936300    0.0003356556    
0.0865525520    0.0198227280    0.0003372891    
0.0867752130    0.0196509350    0.0003331145    
0.0869978740    0.0188771770    0.0003273226    
0.0872205350    0.0196274040    0.0003333388    
0.0874431960    0.0195425160    0.0003326175    
0.0876658570    0.0194646830    0.0003332290    
0.0878885180    0.0189132570    0.0003290382    
0.0881111790    0.0198525220    0.0003366769    
0.0883338400    0.0193142500    0.0003272192    
0.0885565010    0.0188393000    0.0003275533    
0.0887791620    0.0197353940    0.0003309054    
0.0890018230    0.0196562680    0.0003334446    
0.0892244840    0.0196380210    0.0003338564    
0.0894471450    0.0202378610    0.0003374852    
0.0896698060    0.0196833180    0.0003315739    
0.0898924670    0.0197252830    0.0003334658    
0.0901151280    0.0196931210    0.0003295949    
0.0903377890    0.0189808550    0.0003262876    
0.0905604500    0.0187236750    0.0003225823    
0.0907831110    0.0196426230    0.0003295816    
0.0910057720    0.0196837920    0.0003314408    
0.0912284330    0.0195145700    0.0003252880    
0.0914510940    0.0197360130    0.0003307763    
0.0916737550    0.0198698670    0.0003310725    
0.0918964160    0.0198185510    0.0003320198    
0.0921190770    0.0200462380    0.0003309024    
0.0923417380    0.0195597550    0.0003269966    
0.0925643990    0.0197470180    0.0003277542    
0.0927870600    0.0196954090    0.0003286679    
0.0930097210    0.0196039740    0.0003251114    
0.0932323820    0.0191218080    0.0003234487    
