# Diamond Light Source Ltd.
# Data extracted from: /dls/b21/data/2018/cm19678-3/processed/b21-386631_00651.dat
q(1/A)          Column          Error           
0.0035000000    2.0604533000    0.0244616970    
0.0037226610    1.8769148000    0.0228552390    
0.0039453220    1.6325405000    0.0193910850    
0.0041679830    1.2666031000    0.0140266900    
0.0043906440    0.9626882300    0.0116966920    
0.0046133050    0.7728475000    0.0100607650    
0.0048359660    0.5882572200    0.0083026247    
0.0050586270    0.4460490800    0.0071061527    
0.0052812880    0.4363884900    0.0066455957    
0.0055039490    0.3780732700    0.0058816044    
0.0057266100    0.3141038700    0.0051863118    
0.0059492710    0.2682899500    0.0047931851    
0.0061719320    0.2115149200    0.0041010984    
0.0063945930    0.1949250000    0.0039847052    
0.0066172539    0.1832172100    0.0036275301    
0.0068399149    0.1682379100    0.0034213359    
0.0070625759    0.1506959300    0.0032048459    
0.0072852369    0.1268429000    0.0028962887    
0.0075078979    0.1145979500    0.0027394150    
0.0077305589    0.0972297330    0.0024752332    
0.0079532199    0.0968823040    0.0024365679    
0.0081758809    0.0908277100    0.0023811506    
0.0083985419    0.0820537750    0.0021108936    
0.0086212029    0.0761889240    0.0020340565    
0.0088438639    0.0724584480    0.0019677014    
0.0090665249    0.0619591930    0.0017573982    
0.0092891859    0.0645678360    0.0018725150    
0.0095118469    0.0591104660    0.0017229638    
0.0097345079    0.0596885550    0.0016815345    
0.0099571689    0.0557528330    0.0015916393    
0.0101798300    0.0501639270    0.0015097568    
0.0104024910    0.0497347280    0.0014981971    
0.0106251520    0.0438934520    0.0014122487    
0.0108478130    0.0440843020    0.0013783076    
0.0110704740    0.0422250040    0.0012842715    
0.0112931350    0.0410589250    0.0012701337    
0.0115157960    0.0401543300    0.0012487403    
0.0117384570    0.0364888540    0.0011801339    
0.0119611180    0.0377734210    0.0012041727    
0.0121837790    0.0378873130    0.0011857167    
0.0124064400    0.0360553950    0.0011084789    
0.0126291010    0.0361554350    0.0010961226    
0.0128517620    0.0334974540    0.0010576971    
0.0130744230    0.0329695210    0.0010415468    
0.0132970840    0.0311490700    0.0010074329    
0.0135197450    0.0341253770    0.0010393650    
0.0137424060    0.0320737140    0.0009936087    
0.0139650670    0.0328088030    0.0009825461    
0.0141877280    0.0289049280    0.0009242777    
0.0144103890    0.0303144890    0.0009302250    
0.0146330500    0.0300153190    0.0009197465    
0.0148557110    0.0270532390    0.0008695240    
0.0150783720    0.0285595400    0.0008860198    
0.0153010330    0.0278133160    0.0008620400    
0.0155236940    0.0275099220    0.0008522274    
0.0157463550    0.0267178980    0.0008253186    
0.0159690160    0.0270721200    0.0008276189    
0.0161916770    0.0270931640    0.0008232761    
0.0164143380    0.0268449070    0.0008257040    
0.0166369990    0.0253581770    0.0007777704    
0.0168596600    0.0262257640    0.0007839946    
0.0170823210    0.0246450000    0.0007534196    
0.0173049820    0.0250307460    0.0007606057    
0.0175276430    0.0252074050    0.0007713341    
0.0177503040    0.0247455010    0.0007447521    
0.0179729650    0.0241033070    0.0007277351    
0.0181956260    0.0224270440    0.0006885165    
0.0184182870    0.0244565970    0.0007156070    
0.0186409480    0.0244702990    0.0007203381    
0.0188636090    0.0234306080    0.0007004361    
0.0190862700    0.0230234200    0.0006932376    
0.0193089310    0.0224314930    0.0006832015    
0.0195315920    0.0221550020    0.0006558869    
0.0197542530    0.0228232900    0.0006666754    
0.0199769140    0.0228817190    0.0006675284    
0.0201995750    0.0237934210    0.0006700379    
0.0204222360    0.0219771550    0.0006494844    
0.0206448970    0.0227255120    0.0006557559    
0.0208675580    0.0220896230    0.0006332031    
0.0210902190    0.0221108990    0.0006396206    
0.0213128800    0.0230992890    0.0006448895    
0.0215355410    0.0220951880    0.0006232038    
0.0217582020    0.0217963760    0.0006189755    
0.0219808630    0.0212833540    0.0006108446    
0.0222035240    0.0218634420    0.0006135030    
0.0224261850    0.0209686900    0.0005954708    
0.0226488460    0.0228370480    0.0006167671    
0.0228715070    0.0210496910    0.0005906686    
0.0230941680    0.0206021870    0.0005843563    
0.0233168290    0.0217210410    0.0006015086    
0.0235394900    0.0213582870    0.0005898819    
0.0237621510    0.0221674960    0.0005847743    
0.0239848120    0.0209045540    0.0005685289    
0.0242074730    0.0212863570    0.0005691051    
0.0244301340    0.0207859600    0.0005630178    
0.0246527950    0.0213280230    0.0005755928    
0.0248754560    0.0219980610    0.0005714264    
0.0250981170    0.0206947580    0.0005554764    
0.0253207780    0.0213437810    0.0005472764    
0.0255434390    0.0213287950    0.0005529232    
0.0257661000    0.0220873540    0.0005644898    
0.0259887610    0.0207024870    0.0005406990    
0.0262114220    0.0207524060    0.0005442347    
0.0264340830    0.0203581820    0.0005317065    
0.0266567440    0.0210126150    0.0005368472    
0.0268794050    0.0207326100    0.0005310819    
0.0271020660    0.0202952010    0.0005233225    
0.0273247270    0.0208521070    0.0005272682    
0.0275473880    0.0210082380    0.0005281854    
0.0277700490    0.0202488100    0.0005154856    
0.0279927100    0.0202451720    0.0005109420    
0.0282153710    0.0212237450    0.0005256882    
0.0284380320    0.0203606260    0.0005119033    
0.0286606930    0.0208232320    0.0005132550    
0.0288833540    0.0199246010    0.0005030118    
0.0291060150    0.0198234300    0.0005012570    
0.0293286760    0.0209878640    0.0005085819    
0.0295513370    0.0202559510    0.0004941946    
0.0297739980    0.0209878870    0.0005085825    
0.0299966590    0.0210391050    0.0005005057    
0.0302193200    0.0199654170    0.0004946726    
0.0304419810    0.0198298420    0.0004938974    
0.0306646420    0.0197020890    0.0004784090    
0.0308873030    0.0209948700    0.0004917222    
0.0311099640    0.0206872850    0.0004893744    
0.0313326250    0.0202088320    0.0004783239    
0.0315552860    0.0204223760    0.0004870761    
0.0317779470    0.0195270010    0.0004766939    
0.0320006080    0.0199279000    0.0004706211    
0.0322232690    0.0204537330    0.0004787857    
0.0324459300    0.0208119230    0.0004793542    
0.0326685910    0.0202371580    0.0004719094    
0.0328912520    0.0196292240    0.0004663063    
0.0331139130    0.0201685950    0.0004665208    
0.0333365740    0.0207233760    0.0004744291    
0.0335592350    0.0194212250    0.0004548658    
0.0337818960    0.0201774110    0.0004632674    
0.0340045570    0.0202087930    0.0004628912    
0.0342272170    0.0206492770    0.0004660631    
0.0344498780    0.0204208720    0.0004653140    
0.0346725390    0.0205192270    0.0004577950    
0.0348952000    0.0199379900    0.0004492088    
0.0351178610    0.0199268600    0.0004511389    
0.0353405220    0.0198266860    0.0004479535    
0.0355631830    0.0198282960    0.0004462845    
0.0357858440    0.0196675930    0.0004444725    
0.0360085050    0.0200695780    0.0004503484    
0.0362311660    0.0201576740    0.0004459706    
0.0364538270    0.0201266680    0.0004420508    
0.0366764880    0.0199132670    0.0004393820    
0.0368991490    0.0209510640    0.0004484141    
0.0371218100    0.0197721350    0.0004343689    
0.0373444710    0.0201563580    0.0004433450    
0.0375671320    0.0193879040    0.0004341785    
0.0377897930    0.0199563300    0.0004290940    
0.0380124540    0.0200954340    0.0004332885    
0.0382351150    0.0198058340    0.0004301552    
0.0384577760    0.0198194960    0.0004261518    
0.0386804370    0.0198068370    0.0004292668    
0.0389030980    0.0199478050    0.0004275293    
0.0391257590    0.0195151870    0.0004199972    
0.0393484200    0.0203177880    0.0004271045    
0.0395710810    0.0197063860    0.0004211959    
0.0397937420    0.0193192930    0.0004170387    
0.0400164030    0.0200032010    0.0004260825    
0.0402390640    0.0197921170    0.0004181848    
0.0404617250    0.0200046060    0.0004179434    
0.0406843860    0.0201166230    0.0004150626    
0.0409070470    0.0200745360    0.0004189475    
0.0411297080    0.0198337790    0.0004123990    
0.0413523690    0.0192724850    0.0004075696    
0.0415750300    0.0194785670    0.0004132235    
0.0417976910    0.0197734240    0.0004055714    
0.0420203520    0.0203329810    0.0004128152    
0.0422430130    0.0199467580    0.0004104236    
0.0424656740    0.0199820810    0.0004054403    
0.0426883350    0.0200313730    0.0004079549    
0.0429109960    0.0195129960    0.0004038997    
0.0431336570    0.0204622850    0.0004077803    
0.0433563180    0.0196842370    0.0004034028    
0.0435789790    0.0200317330    0.0004005546    
0.0438016400    0.0194648810    0.0003969945    
0.0440243010    0.0196272370    0.0003946020    
0.0442469620    0.0191084530    0.0003916851    
0.0444696230    0.0194260170    0.0003935102    
0.0446922840    0.0201903770    0.0003999859    
0.0449149450    0.0195924510    0.0003887513    
0.0451376060    0.0200398540    0.0003980206    
0.0453602670    0.0192658300    0.0003861671    
0.0455829280    0.0193525830    0.0003865880    
0.0458055890    0.0190320470    0.0003856087    
0.0460282500    0.0195976370    0.0003865780    
0.0462509110    0.0196558550    0.0003847438    
0.0464735720    0.0197157530    0.0003855472    
0.0466962330    0.0201312660    0.0003913598    
0.0469188940    0.0205014560    0.0003938221    
0.0471415550    0.0201470030    0.0003924079    
0.0473642160    0.0199211300    0.0003847384    
0.0475868770    0.0195103420    0.0003788594    
0.0478095380    0.0196170810    0.0003782320    
0.0480321990    0.0189413810    0.0003724752    
0.0482548600    0.0198948680    0.0003800719    
0.0484775210    0.0201141610    0.0003859553    
0.0487001820    0.0193929690    0.0003734254    
0.0489228430    0.0196594470    0.0003757802    
0.0491455040    0.0197142990    0.0003737014    
0.0493681650    0.0198528140    0.0003782346    
0.0495908260    0.0196849420    0.0003702952    
0.0498134870    0.0196000760    0.0003730135    
0.0500361480    0.0196800950    0.0003727852    
0.0502588090    0.0199511760    0.0003697199    
0.0504814700    0.0191120810    0.0003665922    
0.0507041310    0.0192576170    0.0003636102    
0.0509267920    0.0198118590    0.0003703313    
0.0511494530    0.0197329490    0.0003671286    
0.0513721140    0.0198317980    0.0003712882    
0.0515947750    0.0189574560    0.0003581983    
0.0518174360    0.0192112060    0.0003584155    
0.0520400970    0.0190446350    0.0003543840    
0.0522627580    0.0197318880    0.0003637871    
0.0524854190    0.0201426740    0.0003705428    
0.0527080800    0.0197981600    0.0003702046    
0.0529307410    0.0192438760    0.0003666997    
0.0531534020    0.0196104000    0.0003688277    
0.0533760630    0.0193634110    0.0003676450    
0.0535987240    0.0195841120    0.0003680080    
0.0538213850    0.0200900760    0.0003770499    
0.0540440460    0.0200055110    0.0003744749    
0.0542667070    0.0192801740    0.0003701571    
0.0544893680    0.0191868980    0.0003694573    
0.0547120290    0.0194792560    0.0003697112    
0.0549346900    0.0197245390    0.0003722274    
0.0551573510    0.0207165880    0.0003859638    
0.0553800120    0.0198003290    0.0003741243    
0.0556026730    0.0205341640    0.0003888935    
0.0558253340    0.0199733140    0.0003867574    
0.0560479950    0.0193667200    0.0003808393    
0.0562706560    0.0198422570    0.0003892135    
0.0564933170    0.0195125690    0.0003893181    
0.0567159780    0.0189034070    0.0003785985    
0.0569386390    0.0202441970    0.0003979407    
0.0571613000    0.0195315770    0.0003824578    
0.0573839610    0.0191864870    0.0003759167    
0.0576066220    0.0198557250    0.0003834753    
0.0578292830    0.0197392540    0.0003810837    
0.0580519440    0.0192698290    0.0003779851    
0.0582746050    0.0193574750    0.0003771732    
0.0584972660    0.0190928790    0.0003731527    
0.0587199270    0.0184210730    0.0003633694    
0.0589425880    0.0194175980    0.0003708865    
0.0591652490    0.0207076230    0.0003852623    
0.0593879100    0.0196455900    0.0003724659    
0.0596105710    0.0202877030    0.0003781047    
0.0598332320    0.0192382960    0.0003713431    
0.0600558930    0.0195740480    0.0003721813    
0.0602785540    0.0193632050    0.0003697801    
0.0605012150    0.0197879990    0.0003730266    
0.0607238760    0.0197016090    0.0003694990    
0.0609465370    0.0191331100    0.0003669956    
0.0611691980    0.0196316350    0.0003723352    
0.0613918590    0.0185835670    0.0003583051    
0.0616145200    0.0192281120    0.0003671333    
0.0618371810    0.0194089770    0.0003652332    
0.0620598420    0.0192286320    0.0003639072    
0.0622825030    0.0197786510    0.0003747193    
0.0625051640    0.0195927630    0.0003677164    
0.0627278250    0.0199932590    0.0003706907    
0.0629504860    0.0199737760    0.0003674980    
0.0631731470    0.0197988660    0.0003704121    
0.0633958080    0.0192142640    0.0003670027    
0.0636184690    0.0191766720    0.0003717499    
0.0638411300    0.0189614450    0.0003682702    
0.0640637910    0.0197731240    0.0003787149    
0.0642864520    0.0192615330    0.0003729747    
0.0645091130    0.0194315590    0.0003779000    
0.0647317740    0.0190840570    0.0003749186    
0.0649544350    0.0195785900    0.0003793275    
0.0651770960    0.0196563450    0.0003780066    
0.0653997570    0.0188039690    0.0003689181    
0.0656224180    0.0197000060    0.0003784267    
0.0658450790    0.0192154470    0.0003683717    
0.0660677400    0.0198850260    0.0003763297    
0.0662904010    0.0193342960    0.0003755117    
0.0665130620    0.0192464530    0.0003730325    
0.0667357230    0.0188135140    0.0003753705    
0.0669583840    0.0191862740    0.0003778026    
0.0671810450    0.0191957200    0.0003758092    
0.0674037060    0.0197907620    0.0003880542    
0.0676263670    0.0199069180    0.0003863419    
0.0678490280    0.0203455700    0.0003881866    
0.0680716890    0.0200940050    0.0003866377    
0.0682943500    0.0197071920    0.0003787045    
0.0685170110    0.0195143690    0.0003730071    
0.0687396720    0.0191200410    0.0003682382    
0.0689623330    0.0193232190    0.0003690165    
0.0691849940    0.0193418290    0.0003717521    
0.0694076550    0.0192855010    0.0003710123    
0.0696303160    0.0201334240    0.0003760794    
0.0698529770    0.0192236500    0.0003667140    
0.0700756380    0.0192922730    0.0003626521    
0.0702982990    0.0190808190    0.0003645868    
0.0705209600    0.0198362160    0.0003690499    
0.0707436210    0.0189877290    0.0003594124    
0.0709662820    0.0193734790    0.0003673729    
0.0711889430    0.0195869240    0.0003648541    
0.0714116040    0.0199262920    0.0003687526    
0.0716342650    0.0192639180    0.0003610997    
0.0718569260    0.0193104870    0.0003600798    
0.0720795870    0.0197580880    0.0003657025    
0.0723022480    0.0196078800    0.0003648649    
0.0725249090    0.0196779010    0.0003611384    
0.0727475700    0.0197930200    0.0003652869    
0.0729702310    0.0193591390    0.0003583797    
0.0731928920    0.0196412560    0.0003624243    
0.0734155530    0.0202023940    0.0003668315    
0.0736382140    0.0200622860    0.0003632113    
0.0738608750    0.0199293500    0.0003643446    
0.0740835360    0.0194858720    0.0003593736    
0.0743061970    0.0197269550    0.0003564983    
0.0745288580    0.0190168590    0.0003536223    
0.0747515190    0.0197918270    0.0003614682    
0.0749741800    0.0187596730    0.0003486591    
0.0751968410    0.0194635120    0.0003579279    
0.0754195020    0.0199842230    0.0003605593    
0.0756421630    0.0193772640    0.0003521393    
0.0758648240    0.0192776350    0.0003520772    
0.0760874850    0.0200749720    0.0003591120    
0.0763101460    0.0196004740    0.0003545021    
0.0765328070    0.0196110320    0.0003582260    
0.0767554680    0.0197653660    0.0003571924    
0.0769781290    0.0195133310    0.0003528683    
0.0772007900    0.0200241510    0.0003545903    
0.0774234510    0.0195349550    0.0003522242    
0.0776461120    0.0193838160    0.0003505263    
0.0778687730    0.0193693020    0.0003492375    
0.0780914340    0.0192319220    0.0003504833    
0.0783140950    0.0196534000    0.0003486816    
0.0785367560    0.0198770870    0.0003563140    
0.0787594170    0.0191210080    0.0003463405    
0.0789820780    0.0196954970    0.0003497038    
0.0792047390    0.0189932660    0.0003445358    
0.0794274000    0.0197092130    0.0003524564    
0.0796500610    0.0196415640    0.0003484168    
0.0798727220    0.0195868130    0.0003476097    
0.0800953830    0.0192204940    0.0003435519    
0.0803180440    0.0197880920    0.0003510160    
0.0805407050    0.0196642940    0.0003495909    
0.0807633660    0.0195533630    0.0003482799    
0.0809860270    0.0198279460    0.0003494216    
0.0812086880    0.0199708750    0.0003476483    
0.0814313490    0.0195183140    0.0003452542    
0.0816540100    0.0190161470    0.0003400080    
0.0818766710    0.0195855490    0.0003458488    
0.0820993320    0.0193986150    0.0003435671    
0.0823219930    0.0194669340    0.0003455911    
0.0825446540    0.0193302010    0.0003418732    
0.0827673150    0.0197812240    0.0003435152    
0.0829899760    0.0201091160    0.0003457339    
0.0832126370    0.0188922330    0.0003366108    
0.0834352980    0.0194347730    0.0003406465    
0.0836579590    0.0190689710    0.0003366744    
0.0838806200    0.0195174810    0.0003416766    
0.0841032810    0.0197898590    0.0003419167    
0.0843259420    0.0195742210    0.0003390016    
0.0845486030    0.0199910990    0.0003425927    
0.0847712640    0.0198351780    0.0003391744    
0.0849939250    0.0194096220    0.0003361005    
0.0852165860    0.0190520390    0.0003334263    
0.0854392470    0.0201299390    0.0003394830    
0.0856619080    0.0195270110    0.0003368228    
0.0858845690    0.0195591360    0.0003340637    
0.0861072300    0.0193210580    0.0003343164    
0.0863298910    0.0193544150    0.0003363570    
0.0865525520    0.0194639710    0.0003343950    
0.0867752130    0.0197955280    0.0003345099    
0.0869978740    0.0192602300    0.0003307970    
0.0872205350    0.0193585940    0.0003312187    
0.0874431960    0.0191999470    0.0003298590    
0.0876658570    0.0192220350    0.0003313159    
0.0878885180    0.0193109280    0.0003326505    
0.0881111790    0.0191070800    0.0003304655    
0.0883338400    0.0196060580    0.0003298515    
0.0885565010    0.0190867360    0.0003298671    
0.0887791620    0.0191614330    0.0003262259    
0.0890018230    0.0203106850    0.0003391243    
0.0892244840    0.0189878160    0.0003284519    
0.0894471450    0.0197404020    0.0003334832    
0.0896698060    0.0197650890    0.0003324330    
0.0898924670    0.0195706540    0.0003323271    
0.0901151280    0.0191888120    0.0003255148    
0.0903377890    0.0193316720    0.0003294586    
0.0905604500    0.0190489390    0.0003255397    
0.0907831110    0.0191701700    0.0003257615    
0.0910057720    0.0193576890    0.0003288531    
0.0912284330    0.0194858140    0.0003252156    
0.0914510940    0.0194733090    0.0003287366    
0.0916737550    0.0194651300    0.0003278519    
0.0918964160    0.0190761350    0.0003259093    
0.0921190770    0.0195146300    0.0003266533    
0.0923417380    0.0193993090    0.0003258203    
0.0925643990    0.0189341820    0.0003211029    
0.0927870600    0.0198145140    0.0003298299    
0.0930097210    0.0194244640    0.0003237860    
0.0932323820    0.0194920140    0.0003267328    
