# Diamond Light Source Ltd.
# Data extracted from: /dls/b21/data/2018/cm19678-3/processed/b21-386631_00645.dat
q(1/A)          Column          Error           
0.0035000000    2.1030390000    0.0247074610    
0.0037226610    1.8604663000    0.0227495950    
0.0039453220    1.6108336000    0.0192572720    
0.0041679830    1.2888394000    0.0141459980    
0.0043906440    0.9639463900    0.0117016190    
0.0046133050    0.7694782100    0.0100364830    
0.0048359660    0.5862275000    0.0082863666    
0.0050586270    0.4453896000    0.0070992509    
0.0052812880    0.4282959300    0.0065821613    
0.0055039490    0.3776235700    0.0058767424    
0.0057266100    0.3136158300    0.0051810794    
0.0059492710    0.2667104400    0.0047779466    
0.0061719320    0.2268359600    0.0042460481    
0.0063945930    0.1997197200    0.0040324796    
0.0066172539    0.1834194000    0.0036286895    
0.0068399149    0.1680903500    0.0034190421    
0.0070625759    0.1451759900    0.0031448727    
0.0072852369    0.1230823500    0.0028523705    
0.0075078979    0.1131702700    0.0027216662    
0.0077305589    0.1020344300    0.0025350657    
0.0079532199    0.0981848920    0.0024523243    
0.0081758809    0.0912223590    0.0023857647    
0.0083985419    0.0823956780    0.0021147963    
0.0086212029    0.0774562920    0.0020504289    
0.0088438639    0.0695406710    0.0019272293    
0.0090665249    0.0671619150    0.0018292713    
0.0092891859    0.0621496120    0.0018366892    
0.0095118469    0.0595850340    0.0017294652    
0.0097345079    0.0569619310    0.0016422977    
0.0099571689    0.0543644610    0.0015713322    
0.0101798300    0.0507310890    0.0015179155    
0.0104024910    0.0501627680    0.0015042815    
0.0106251520    0.0449631120    0.0014290215    
0.0108478130    0.0467774680    0.0014194556    
0.0110704740    0.0420882940    0.0012818935    
0.0112931350    0.0422966080    0.0012888361    
0.0115157960    0.0407955810    0.0012583799    
0.0117384570    0.0385702140    0.0012130438    
0.0119611180    0.0380628630    0.0012084971    
0.0121837790    0.0362377460    0.0011593482    
0.0124064400    0.0359364850    0.0011063929    
0.0126291010    0.0372680020    0.0011126016    
0.0128517620    0.0322801760    0.0010380605    
0.0130744230    0.0320333560    0.0010264149    
0.0132970840    0.0332189520    0.0010401257    
0.0135197450    0.0316098730    0.0010000921    
0.0137424060    0.0298744080    0.0009587154    
0.0139650670    0.0315877250    0.0009638650    
0.0141877280    0.0293346460    0.0009309068    
0.0144103890    0.0293303610    0.0009147888    
0.0146330500    0.0301422520    0.0009214755    
0.0148557110    0.0298062190    0.0009124828    
0.0150783720    0.0272824560    0.0008657826    
0.0153010330    0.0290822820    0.0008812813    
0.0155236940    0.0264416120    0.0008353223    
0.0157463550    0.0274954610    0.0008370478    
0.0159690160    0.0276412200    0.0008360786    
0.0161916770    0.0259303620    0.0008052286    
0.0164143380    0.0260455080    0.0008131284    
0.0166369990    0.0247264670    0.0007678435    
0.0168596600    0.0258387870    0.0007780086    
0.0170823210    0.0255774750    0.0007673626    
0.0173049820    0.0240719690    0.0007457234    
0.0175276430    0.0252193070    0.0007713372    
0.0177503040    0.0243755620    0.0007389928    
0.0179729650    0.0238725110    0.0007240746    
0.0181956260    0.0246350670    0.0007214471    
0.0184182870    0.0244871140    0.0007158873    
0.0186409480    0.0234415940    0.0007048709    
0.0188636090    0.0240476180    0.0007094341    
0.0190862700    0.0232422450    0.0006963627    
0.0193089310    0.0234194320    0.0006979224    
0.0195315920    0.0234644840    0.0006748354    
0.0197542530    0.0223260870    0.0006592208    
0.0199769140    0.0224428830    0.0006609430    
0.0201995750    0.0220849920    0.0006453849    
0.0204222360    0.0227727380    0.0006609824    
0.0206448970    0.0224880130    0.0006521690    
0.0208675580    0.0222608030    0.0006355044    
0.0210902190    0.0228034280    0.0006494094    
0.0213128800    0.0225666990    0.0006372638    
0.0215355410    0.0219443860    0.0006209294    
0.0217582020    0.0214173070    0.0006134272    
0.0219808630    0.0219218530    0.0006197957    
0.0222035240    0.0223523150    0.0006201803    
0.0224261850    0.0216350620    0.0006047184    
0.0226488460    0.0220439310    0.0006058220    
0.0228715070    0.0212718660    0.0005936399    
0.0230941680    0.0216529130    0.0005989334    
0.0233168290    0.0215111740    0.0005984569    
0.0235394900    0.0210389860    0.0005853202    
0.0237621510    0.0208774330    0.0005673718    
0.0239848120    0.0215748700    0.0005774382    
0.0242074730    0.0202879430    0.0005554693    
0.0244301340    0.0214317730    0.0005715648    
0.0246527950    0.0210541790    0.0005717530    
0.0248754560    0.0208009310    0.0005555316    
0.0250981170    0.0213706920    0.0005643441    
0.0253207780    0.0211375160    0.0005444993    
0.0255434390    0.0218203560    0.0005591288    
0.0257661000    0.0208802470    0.0005487207    
0.0259887610    0.0214409920    0.0005501308    
0.0262114220    0.0209995700    0.0005473391    
0.0264340830    0.0200294910    0.0005272745    
0.0266567440    0.0201803040    0.0005259855    
0.0268794050    0.0219467950    0.0005462851    
0.0271020660    0.0204881080    0.0005256818    
0.0273247270    0.0208024580    0.0005265180    
0.0275473880    0.0205073810    0.0005217302    
0.0277700490    0.0211313710    0.0005264776    
0.0279927100    0.0212153500    0.0005229200    
0.0282153710    0.0205501550    0.0005171589    
0.0284380320    0.0208142960    0.0005174548    
0.0286606930    0.0200295890    0.0005032623    
0.0288833540    0.0211465860    0.0005180871    
0.0291060150    0.0212204910    0.0005184991    
0.0293286760    0.0203991700    0.0005012823    
0.0295513370    0.0205237420    0.0004973352    
0.0297739980    0.0197709550    0.0004935034    
0.0299966590    0.0204342910    0.0004931448    
0.0302193200    0.0199071570    0.0004938358    
0.0304419810    0.0217141820    0.0005167115    
0.0306646420    0.0197393980    0.0004787507    
0.0308873030    0.0202714320    0.0004830641    
0.0311099640    0.0210711110    0.0004937788    
0.0313326250    0.0200636660    0.0004764923    
0.0315552860    0.0194723790    0.0004755021    
0.0317779470    0.0196807890    0.0004784564    
0.0320006080    0.0203408060    0.0004753615    
0.0322232690    0.0204330460    0.0004784325    
0.0324459300    0.0200959880    0.0004709279    
0.0326685910    0.0205357540    0.0004752679    
0.0328912520    0.0207494960    0.0004793169    
0.0331139130    0.0200405950    0.0004649302    
0.0333365740    0.0202903710    0.0004693376    
0.0335592350    0.0200724260    0.0004623216    
0.0337818960    0.0207634210    0.0004698376    
0.0340045570    0.0198496940    0.0004586537    
0.0342272170    0.0203978710    0.0004631098    
0.0344498780    0.0201994460    0.0004626771    
0.0346725390    0.0205607560    0.0004581517    
0.0348952000    0.0199590920    0.0004493422    
0.0351178610    0.0208262140    0.0004611001    
0.0353405220    0.0196758660    0.0004461430    
0.0355631830    0.0191464170    0.0004384420    
0.0357858440    0.0192167090    0.0004392462    
0.0360085050    0.0204138000    0.0004540887    
0.0362311660    0.0204047420    0.0004485913    
0.0364538270    0.0201658560    0.0004423784    
0.0366764880    0.0201947440    0.0004423739    
0.0368991490    0.0196463030    0.0004341261    
0.0371218100    0.0195435900    0.0004317510    
0.0373444710    0.0200885290    0.0004424958    
0.0375671320    0.0202924620    0.0004440885    
0.0377897930    0.0205003920    0.0004348029    
0.0380124540    0.0199740590    0.0004318779    
0.0382351150    0.0204970020    0.0004374950    
0.0384577760    0.0193890040    0.0004214005    
0.0386804370    0.0199464360    0.0004306770    
0.0389030980    0.0200118240    0.0004281155    
0.0391257590    0.0201747120    0.0004269362    
0.0393484200    0.0204160550    0.0004280368    
0.0395710810    0.0197692330    0.0004217691    
0.0397937420    0.0201561740    0.0004258769    
0.0400164030    0.0197036320    0.0004227819    
0.0402390640    0.0199860670    0.0004201313    
0.0404617250    0.0195502130    0.0004130736    
0.0406843860    0.0199532150    0.0004132775    
0.0409070470    0.0205721000    0.0004240093    
0.0411297080    0.0202274160    0.0004163748    
0.0413523690    0.0197976890    0.0004129899    
0.0415750300    0.0199602160    0.0004182042    
0.0417976910    0.0198058290    0.0004058094    
0.0420203520    0.0199717010    0.0004090364    
0.0422430130    0.0201063260    0.0004119664    
0.0424656740    0.0199399240    0.0004049185    
0.0426883350    0.0200885200    0.0004084416    
0.0429109960    0.0197045020    0.0004057827    
0.0431336570    0.0204609180    0.0004076721    
0.0433563180    0.0199891170    0.0004064206    
0.0435789790    0.0199664030    0.0003998081    
0.0438016400    0.0193263640    0.0003954877    
0.0440243010    0.0200780590    0.0003990156    
0.0442469620    0.0198298710    0.0003989179    
0.0444696230    0.0196879060    0.0003960620    
0.0446922840    0.0196424320    0.0003944295    
0.0449149450    0.0187429760    0.0003801422    
0.0451376060    0.0195485620    0.0003930203    
0.0453602670    0.0201311550    0.0003946527    
0.0455829280    0.0195057060    0.0003880244    
0.0458055890    0.0194058720    0.0003892871    
0.0460282500    0.0197181230    0.0003876746    
0.0462509110    0.0201059160    0.0003890334    
0.0464735720    0.0196764670    0.0003850735    
0.0466962330    0.0200078610    0.0003900679    
0.0469188940    0.0194030780    0.0003830384    
0.0471415550    0.0197327680    0.0003882628    
0.0473642160    0.0196668000    0.0003821859    
0.0475868770    0.0199057330    0.0003825904    
0.0478095380    0.0191997880    0.0003741007    
0.0480321990    0.0192620510    0.0003755278    
0.0482548600    0.0198058090    0.0003791323    
0.0484775210    0.0204009280    0.0003886067    
0.0487001820    0.0193696010    0.0003731138    
0.0489228430    0.0201672550    0.0003805143    
0.0491455040    0.0190325050    0.0003670974    
0.0493681650    0.0197139580    0.0003768222    
0.0495908260    0.0194182040    0.0003676925    
0.0498134870    0.0195484130    0.0003724352    
0.0500361480    0.0202285600    0.0003778565    
0.0502588090    0.0194967920    0.0003654007    
0.0504814700    0.0204105030    0.0003787524    
0.0507041310    0.0192555490    0.0003635064    
0.0509267920    0.0193667640    0.0003660628    
0.0511494530    0.0191776220    0.0003618419    
0.0513721140    0.0192945540    0.0003661397    
0.0515947750    0.0200648840    0.0003684267    
0.0518174360    0.0195832690    0.0003617857    
0.0520400970    0.0196817550    0.0003601794    
0.0522627580    0.0199372610    0.0003655906    
0.0524854190    0.0202559730    0.0003714973    
0.0527080800    0.0196713520    0.0003689315    
0.0529307410    0.0191581250    0.0003657970    
0.0531534020    0.0199618530    0.0003720318    
0.0533760630    0.0196823540    0.0003705745    
0.0535987240    0.0194989970    0.0003671223    
0.0538213850    0.0207314920    0.0003829329    
0.0540440460    0.0196038760    0.0003706108    
0.0542667070    0.0194772280    0.0003719576    
0.0544893680    0.0191068920    0.0003686007    
0.0547120290    0.0193720300    0.0003686067    
0.0549346900    0.0192941230    0.0003680584    
0.0551573510    0.0197869900    0.0003771175    
0.0553800120    0.0196145030    0.0003722782    
0.0556026730    0.0199872320    0.0003835904    
0.0558253340    0.0201362200    0.0003882414    
0.0560479950    0.0197020760    0.0003840334    
0.0562706560    0.0196117550    0.0003868565    
0.0564933170    0.0203420470    0.0003974148    
0.0567159780    0.0192660150    0.0003821238    
0.0569386390    0.0197187740    0.0003926516    
0.0571613000    0.0197021750    0.0003840354    
0.0573839610    0.0194058070    0.0003779715    
0.0576066220    0.0194689820    0.0003796342    
0.0578292830    0.0192153390    0.0003759052    
0.0580519440    0.0197870660    0.0003829356    
0.0582746050    0.0191722020    0.0003752768    
0.0584972660    0.0192225270    0.0003743307    
0.0587199270    0.0194442050    0.0003732375    
0.0589425880    0.0198405250    0.0003748168    
0.0591652490    0.0196018640    0.0003747480    
0.0593879100    0.0197352970    0.0003732288    
0.0596105710    0.0199965540    0.0003752947    
0.0598332320    0.0193798280    0.0003726201    
0.0600558930    0.0199115660    0.0003752893    
0.0602785540    0.0196012700    0.0003719600    
0.0605012150    0.0192868120    0.0003681870    
0.0607238760    0.0194154060    0.0003667203    
0.0609465370    0.0204048160    0.0003789079    
0.0611691980    0.0199613370    0.0003753617    
0.0613918590    0.0193621400    0.0003656490    
0.0616145200    0.0198147600    0.0003726054    
0.0618371810    0.0197022430    0.0003678969    
0.0620598420    0.0195294880    0.0003666580    
0.0622825030    0.0198262470    0.0003750829    
0.0625051640    0.0200458490    0.0003718576    
0.0627278250    0.0195855440    0.0003668065    
0.0629504860    0.0194711460    0.0003627604    
0.0631731470    0.0196580770    0.0003690072    
0.0633958080    0.0191913400    0.0003666986    
0.0636184690    0.0199097110    0.0003787006    
0.0638411300    0.0197605170    0.0003758628    
0.0640637910    0.0192491930    0.0003735771    
0.0642864520    0.0196424180    0.0003765570    
0.0645091130    0.0190405610    0.0003739919    
0.0647317740    0.0197672450    0.0003814819    
0.0649544350    0.0191581400    0.0003751453    
0.0651770960    0.0197489530    0.0003788082    
0.0653997570    0.0201408670    0.0003817188    
0.0656224180    0.0200033090    0.0003812402    
0.0658450790    0.0192912400    0.0003690119    
0.0660677400    0.0195127440    0.0003727038    
0.0662904010    0.0197262700    0.0003792111    
0.0665130620    0.0198879330    0.0003791102    
0.0667357230    0.0194560700    0.0003816383    
0.0669583840    0.0191104530    0.0003769680    
0.0671810450    0.0194515650    0.0003782176    
0.0674037060    0.0187320430    0.0003774444    
0.0676263670    0.0191932110    0.0003792651    
0.0678490280    0.0193219190    0.0003782074    
0.0680716890    0.0193633930    0.0003794556    
0.0682943500    0.0192834340    0.0003745239    
0.0685170110    0.0191632460    0.0003695504    
0.0687396720    0.0194585220    0.0003713972    
0.0689623330    0.0192438200    0.0003681721    
0.0691849940    0.0200970330    0.0003788523    
0.0694076550    0.0194477780    0.0003724835    
0.0696303160    0.0194851160    0.0003698891    
0.0698529770    0.0194384880    0.0003686719    
0.0700756380    0.0197739270    0.0003670661    
0.0702982990    0.0190510820    0.0003642182    
0.0705209600    0.0193672010    0.0003645762    
0.0707436210    0.0194209270    0.0003634050    
0.0709662820    0.0194062730    0.0003675984    
0.0711889430    0.0195302880    0.0003642418    
0.0714116040    0.0193372740    0.0003631773    
0.0716342650    0.0191467340    0.0003599163    
0.0718569260    0.0194156230    0.0003609750    
0.0720795870    0.0201954590    0.0003696422    
0.0723022480    0.0202502700    0.0003707075    
0.0725249090    0.0189334320    0.0003541590    
0.0727475700    0.0194671380    0.0003621832    
0.0729702310    0.0194164750    0.0003588268    
0.0731928920    0.0202136920    0.0003675824    
0.0734155530    0.0197469540    0.0003625889    
0.0736382140    0.0193037070    0.0003561957    
0.0738608750    0.0195539300    0.0003608129    
0.0740835360    0.0195960820    0.0003603049    
0.0743061970    0.0196405330    0.0003556340    
0.0745288580    0.0194549790    0.0003575896    
0.0747515190    0.0205216940    0.0003679875    
0.0749741800    0.0192820890    0.0003533985    
0.0751968410    0.0194281700    0.0003575199    
0.0754195020    0.0196563450    0.0003575063    
0.0756421630    0.0189013420    0.0003477074    
0.0758648240    0.0195836280    0.0003547782    
0.0760874850    0.0198858740    0.0003573338    
0.0763101460    0.0196811070    0.0003551482    
0.0765328070    0.0197131270    0.0003590739    
0.0767554680    0.0188851730    0.0003490677    
0.0769781290    0.0201676060    0.0003586521    
0.0772007900    0.0191048130    0.0003462745    
0.0774234510    0.0194433740    0.0003513162    
0.0776461120    0.0197676460    0.0003538976    
0.0778687730    0.0200652470    0.0003553738    
0.0780914340    0.0198550450    0.0003560334    
0.0783140950    0.0198297840    0.0003501616    
0.0785367560    0.0200274760    0.0003575765    
0.0787594170    0.0195071750    0.0003497393    
0.0789820780    0.0193822560    0.0003468313    
0.0792047390    0.0201901180    0.0003551429    
0.0794274000    0.0193976740    0.0003495786    
0.0796500610    0.0192741550    0.0003450627    
0.0798727220    0.0201943510    0.0003528777    
0.0800953830    0.0195062000    0.0003460156    
0.0803180440    0.0194054930    0.0003475255    
0.0805407050    0.0196116900    0.0003490420    
0.0807633660    0.0192156640    0.0003451792    
0.0809860270    0.0199910880    0.0003507748    
0.0812086880    0.0197861930    0.0003459569    
0.0814313490    0.0196313480    0.0003461721    
0.0816540100    0.0193476140    0.0003428790    
0.0818766710    0.0196069880    0.0003459578    
0.0820993320    0.0196268190    0.0003455019    
0.0823219930    0.0197767890    0.0003482498    
0.0825446540    0.0190915820    0.0003396778    
0.0827673150    0.0189372830    0.0003360295    
0.0829899760    0.0199928450    0.0003446530    
0.0832126370    0.0193690470    0.0003407531    
0.0834352980    0.0195331840    0.0003414287    
0.0836579590    0.0199335190    0.0003441420    
0.0838806200    0.0194964720    0.0003414135    
0.0841032810    0.0194677340    0.0003390439    
0.0843259420    0.0192717250    0.0003362939    
0.0845486030    0.0191661240    0.0003353715    
0.0847712640    0.0192404750    0.0003339736    
0.0849939250    0.0196623980    0.0003382035    
0.0852165860    0.0200930590    0.0003423351    
0.0854392470    0.0196685190    0.0003354918    
0.0856619080    0.0199128440    0.0003400553    
0.0858845690    0.0189740580    0.0003289530    
0.0861072300    0.0193814830    0.0003347611    
0.0863298910    0.0193804960    0.0003365055    
0.0865525520    0.0191046630    0.0003312173    
0.0867752130    0.0193738970    0.0003308516    
0.0869978740    0.0197851110    0.0003351964    
0.0872205350    0.0192873090    0.0003305317    
0.0874431960    0.0197688140    0.0003346323    
0.0876658570    0.0192873250    0.0003318012    
0.0878885180    0.0189697720    0.0003296226    
0.0881111790    0.0192981710    0.0003320369    
0.0883338400    0.0194638420    0.0003285768    
0.0885565010    0.0198756460    0.0003365371    
0.0887791620    0.0191358930    0.0003259328    
0.0890018230    0.0194523150    0.0003318039    
0.0892244840    0.0192345630    0.0003305025    
0.0894471450    0.0194722180    0.0003311334    
0.0896698060    0.0198118100    0.0003327484    
0.0898924670    0.0194149230    0.0003309255    
0.0901151280    0.0201458090    0.0003334558    
0.0903377890    0.0196313760    0.0003319257    
0.0905604500    0.0194182380    0.0003286039    
0.0907831110    0.0199746520    0.0003324495    
0.0910057720    0.0197619310    0.0003321919    
0.0912284330    0.0192326400    0.0003230210    
0.0914510940    0.0197360790    0.0003308704    
0.0916737550    0.0190145470    0.0003239600    
0.0918964160    0.0190060680    0.0003252347    
0.0921190770    0.0193580180    0.0003252645    
0.0923417380    0.0197075600    0.0003283226    
0.0925643990    0.0195459060    0.0003261731    
0.0927870600    0.0196187410    0.0003281203    
0.0930097210    0.0192158530    0.0003219680    
0.0932323820    0.0190833520    0.0003232146    
