# Diamond Light Source Ltd.
# Data extracted from: /dls/b21/data/2018/cm19678-3/processed/b21-386631_00647.dat
q(1/A)          Column          Error           
0.0035000000    2.0859803000    0.0246091620    
0.0037226610    1.8471524000    0.0226699930    
0.0039453220    1.5820976000    0.0190863680    
0.0041679830    1.2434053000    0.0138956160    
0.0043906440    0.9483416100    0.0116075130    
0.0046133050    0.7719669900    0.0100535630    
0.0048359660    0.5782448300    0.0082304615    
0.0050586270    0.4523698300    0.0071552788    
0.0052812880    0.4271553300    0.0065739548    
0.0055039490    0.3850061300    0.0059344187    
0.0057266100    0.3195766300    0.0052305339    
0.0059492710    0.2721495400    0.0048268337    
0.0061719320    0.2268748700    0.0042467766    
0.0063945930    0.1947866000    0.0039827083    
0.0066172539    0.1908463400    0.0037017437    
0.0068399149    0.1645717800    0.0033833584    
0.0070625759    0.1430205000    0.0031217065    
0.0072852369    0.1307065300    0.0029396386    
0.0075078979    0.1098509500    0.0026816855    
0.0077305589    0.0981462430    0.0024865085    
0.0079532199    0.0988756120    0.0024611462    
0.0081758809    0.0919244800    0.0023951340    
0.0083985419    0.0830612760    0.0021235030    
0.0086212029    0.0782839070    0.0020615310    
0.0088438639    0.0685376260    0.0019134439    
0.0090665249    0.0631370520    0.0017737646    
0.0092891859    0.0616173900    0.0018289649    
0.0095118469    0.0585911250    0.0017151275    
0.0097345079    0.0560245440    0.0016288683    
0.0099571689    0.0536469870    0.0015610629    
0.0101798300    0.0500584170    0.0015079478    
0.0104024910    0.0499006660    0.0015004751    
0.0106251520    0.0461064540    0.0014472005    
0.0108478130    0.0444160630    0.0013832820    
0.0110704740    0.0432670040    0.0012998312    
0.0112931350    0.0413218810    0.0012740082    
0.0115157960    0.0427048890    0.0012876008    
0.0117384570    0.0407517860    0.0012469844    
0.0119611180    0.0385682870    0.0012165986    
0.0121837790    0.0383585040    0.0011928927    
0.0124064400    0.0371009920    0.0011242725    
0.0126291010    0.0352146700    0.0010816100    
0.0128517620    0.0329534640    0.0010489203    
0.0130744230    0.0323677930    0.0010318475    
0.0132970840    0.0331269320    0.0010387732    
0.0135197450    0.0322482350    0.0010102267    
0.0137424060    0.0311411830    0.0009789147    
0.0139650670    0.0320638060    0.0009711847    
0.0141877280    0.0306988180    0.0009523879    
0.0144103890    0.0295066120    0.0009176120    
0.0146330500    0.0289640660    0.0009033644    
0.0148557110    0.0293922420    0.0009062017    
0.0150783720    0.0289084270    0.0008912850    
0.0153010330    0.0291674020    0.0008826457    
0.0155236940    0.0295869590    0.0008836851    
0.0157463550    0.0282647800    0.0008487501    
0.0159690160    0.0254707080    0.0008026501    
0.0161916770    0.0261098780    0.0008080804    
0.0164143380    0.0259484170    0.0008116811    
0.0166369990    0.0243729850    0.0007624007    
0.0168596600    0.0260540900    0.0007813102    
0.0170823210    0.0244996420    0.0007510847    
0.0173049820    0.0242609440    0.0007487090    
0.0175276430    0.0257427350    0.0007793675    
0.0177503040    0.0246262310    0.0007428465    
0.0179729650    0.0251725770    0.0007435931    
0.0181956260    0.0237517720    0.0007084560    
0.0184182870    0.0236958710    0.0007042867    
0.0186409480    0.0242511620    0.0007170006    
0.0188636090    0.0240308110    0.0007092470    
0.0190862700    0.0235592430    0.0007011555    
0.0193089310    0.0227993800    0.0006886805    
0.0195315920    0.0217020630    0.0006490529    
0.0197542530    0.0231086410    0.0006707320    
0.0199769140    0.0229723730    0.0006687516    
0.0201995750    0.0230130770    0.0006588625    
0.0204222360    0.0218939780    0.0006481595    
0.0206448970    0.0220378720    0.0006456642    
0.0208675580    0.0226093890    0.0006405157    
0.0210902190    0.0221044370    0.0006394337    
0.0213128800    0.0220486040    0.0006299601    
0.0215355410    0.0211573850    0.0006097457    
0.0217582020    0.0222117480    0.0006247542    
0.0219808630    0.0215926110    0.0006151766    
0.0222035240    0.0219603140    0.0006147708    
0.0224261850    0.0225009430    0.0006167536    
0.0226488460    0.0209986150    0.0005913344    
0.0228715070    0.0211263880    0.0005916572    
0.0230941680    0.0209441300    0.0005890997    
0.0233168290    0.0219977830    0.0006052398    
0.0235394900    0.0214986270    0.0005917302    
0.0237621510    0.0214978840    0.0005757903    
0.0239848120    0.0212075930    0.0005725512    
0.0242074730    0.0216604100    0.0005739997    
0.0244301340    0.0207951310    0.0005630597    
0.0246527950    0.0206074400    0.0005657031    
0.0248754560    0.0214129050    0.0005636927    
0.0250981170    0.0212849270    0.0005632589    
0.0253207780    0.0206501410    0.0005382315    
0.0255434390    0.0213225610    0.0005527617    
0.0257661000    0.0200761670    0.0005380978    
0.0259887610    0.0203999670    0.0005366554    
0.0262114220    0.0212029320    0.0005500302    
0.0264340830    0.0207964830    0.0005373212    
0.0266567440    0.0209379160    0.0005358138    
0.0268794050    0.0205905500    0.0005291819    
0.0271020660    0.0203567210    0.0005240385    
0.0273247270    0.0201262660    0.0005179344    
0.0275473880    0.0203781430    0.0005201282    
0.0277700490    0.0198886740    0.0005108063    
0.0279927100    0.0209611650    0.0005198226    
0.0282153710    0.0218423540    0.0005332163    
0.0284380320    0.0204962060    0.0005135297    
0.0286606930    0.0200077310    0.0005030308    
0.0288833540    0.0207566620    0.0005133324    
0.0291060150    0.0206919440    0.0005120451    
0.0293286760    0.0207476420    0.0005055891    
0.0295513370    0.0214674440    0.0005086844    
0.0297739980    0.0215238540    0.0005149601    
0.0299966590    0.0208425060    0.0004980889    
0.0302193200    0.0209152900    0.0005062291    
0.0304419810    0.0200454070    0.0004965021    
0.0306646420    0.0203815220    0.0004865170    
0.0308873030    0.0199985910    0.0004798434    
0.0311099640    0.0205192150    0.0004873112    
0.0313326250    0.0206782890    0.0004837771    
0.0315552860    0.0207880380    0.0004913455    
0.0317779470    0.0206613940    0.0004902732    
0.0320006080    0.0202887410    0.0004747934    
0.0322232690    0.0197306840    0.0004701782    
0.0324459300    0.0204967880    0.0004756416    
0.0326685910    0.0199782160    0.0004688121    
0.0328912520    0.0204762010    0.0004761907    
0.0331139130    0.0201303370    0.0004660100    
0.0333365740    0.0198486690    0.0004642408    
0.0335592350    0.0192238440    0.0004524823    
0.0337818960    0.0196079460    0.0004566165    
0.0340045570    0.0205950730    0.0004672259    
0.0342272170    0.0202541450    0.0004615149    
0.0344498780    0.0194185380    0.0004536843    
0.0346725390    0.0207480760    0.0004602735    
0.0348952000    0.0198916920    0.0004486214    
0.0351178610    0.0203703070    0.0004560644    
0.0353405220    0.0199726600    0.0004495338    
0.0355631830    0.0202040900    0.0004504279    
0.0357858440    0.0204049390    0.0004526614    
0.0360085050    0.0200132000    0.0004496497    
0.0362311660    0.0208422510    0.0004534139    
0.0364538270    0.0197616590    0.0004379601    
0.0366764880    0.0199171390    0.0004393605    
0.0368991490    0.0198895390    0.0004368427    
0.0371218100    0.0202910430    0.0004399675    
0.0373444710    0.0195265530    0.0004362999    
0.0375671320    0.0201598600    0.0004426731    
0.0377897930    0.0202825450    0.0004325236    
0.0380124540    0.0196505980    0.0004284034    
0.0382351150    0.0192770260    0.0004243119    
0.0384577760    0.0202991990    0.0004312152    
0.0386804370    0.0203032830    0.0004345496    
0.0389030980    0.0194015170    0.0004215729    
0.0391257590    0.0199613010    0.0004247085    
0.0393484200    0.0204734120    0.0004286744    
0.0395710810    0.0203036150    0.0004274682    
0.0397937420    0.0199976350    0.0004242351    
0.0400164030    0.0194892560    0.0004205117    
0.0402390640    0.0195655040    0.0004157231    
0.0404617250    0.0195884840    0.0004135132    
0.0406843860    0.0201535510    0.0004153827    
0.0409070470    0.0193694120    0.0004114637    
0.0411297080    0.0196222450    0.0004101340    
0.0413523690    0.0201802190    0.0004169965    
0.0415750300    0.0196919670    0.0004154202    
0.0417976910    0.0203830460    0.0004117157    
0.0420203520    0.0191288660    0.0004003467    
0.0422430130    0.0196876570    0.0004076897    
0.0424656740    0.0194910220    0.0004003690    
0.0426883350    0.0188460820    0.0003956433    
0.0429109960    0.0198750400    0.0004075699    
0.0431336570    0.0196276540    0.0003993190    
0.0433563180    0.0202404910    0.0004090031    
0.0435789790    0.0198096860    0.0003982701    
0.0438016400    0.0193134910    0.0003953899    
0.0440243010    0.0194708110    0.0003929690    
0.0442469620    0.0194239260    0.0003948474    
0.0444696230    0.0201136380    0.0004003556    
0.0446922840    0.0199547480    0.0003975870    
0.0449149450    0.0207125760    0.0003996512    
0.0451376060    0.0195914310    0.0003934847    
0.0453602670    0.0197863930    0.0003912923    
0.0455829280    0.0190998800    0.0003839996    
0.0458055890    0.0206198360    0.0004013130    
0.0460282500    0.0197138830    0.0003876662    
0.0462509110    0.0198006860    0.0003861023    
0.0464735720    0.0200717810    0.0003889559    
0.0466962330    0.0196918430    0.0003870084    
0.0469188940    0.0191190170    0.0003802568    
0.0471415550    0.0194916490    0.0003859165    
0.0473642160    0.0194101830    0.0003797169    
0.0475868770    0.0192692900    0.0003764567    
0.0478095380    0.0194290870    0.0003763603    
0.0480321990    0.0190603270    0.0003735883    
0.0482548600    0.0201431120    0.0003823799    
0.0484775210    0.0199602100    0.0003844193    
0.0487001820    0.0192650970    0.0003721378    
0.0489228430    0.0197829550    0.0003769037    
0.0491455040    0.0193261230    0.0003699499    
0.0493681650    0.0202648440    0.0003820836    
0.0495908260    0.0193727900    0.0003672938    
0.0498134870    0.0201337070    0.0003780020    
0.0500361480    0.0202108520    0.0003777235    
0.0502588090    0.0196302750    0.0003666809    
0.0504814700    0.0199641090    0.0003746198    
0.0507041310    0.0194441660    0.0003653138    
0.0509267920    0.0190309890    0.0003629067    
0.0511494530    0.0195428160    0.0003653022    
0.0513721140    0.0197704090    0.0003706590    
0.0515947750    0.0203051410    0.0003706577    
0.0518174360    0.0198874470    0.0003646159    
0.0520400970    0.0195862440    0.0003593353    
0.0522627580    0.0189751610    0.0003566911    
0.0524854190    0.0195439280    0.0003649407    
0.0527080800    0.0193010250    0.0003654737    
0.0529307410    0.0195037040    0.0003691130    
0.0531534020    0.0191747120    0.0003646542    
0.0533760630    0.0198811230    0.0003724729    
0.0535987240    0.0198825720    0.0003707474    
0.0538213850    0.0192140540    0.0003686839    
0.0540440460    0.0199926570    0.0003742998    
0.0542667070    0.0200773490    0.0003776768    
0.0544893680    0.0200631900    0.0003777447    
0.0547120290    0.0190666940    0.0003657217    
0.0549346900    0.0198521990    0.0003733754    
0.0551573510    0.0202001390    0.0003810669    
0.0553800120    0.0192009190    0.0003683640    
0.0556026730    0.0201158330    0.0003848555    
0.0558253340    0.0192262770    0.0003794003    
0.0560479950    0.0205290130    0.0003920436    
0.0562706560    0.0195922230    0.0003866970    
0.0564933170    0.0194835700    0.0003889719    
0.0567159780    0.0187462750    0.0003769666    
0.0569386390    0.0196830570    0.0003923295    
0.0571613000    0.0200873880    0.0003878047    
0.0573839610    0.0194238630    0.0003781797    
0.0576066220    0.0192872240    0.0003778904    
0.0578292830    0.0205131170    0.0003884252    
0.0580519440    0.0199387040    0.0003844331    
0.0582746050    0.0205273270    0.0003883463    
0.0584972660    0.0187737950    0.0003699674    
0.0587199270    0.0193902160    0.0003727509    
0.0589425880    0.0188311950    0.0003651899    
0.0591652490    0.0193329320    0.0003722003    
0.0593879100    0.0198728160    0.0003745590    
0.0596105710    0.0193659590    0.0003693615    
0.0598332320    0.0194046500    0.0003728906    
0.0600558930    0.0194692830    0.0003711297    
0.0602785540    0.0198799600    0.0003746271    
0.0605012150    0.0190300140    0.0003657590    
0.0607238760    0.0196612120    0.0003690660    
0.0609465370    0.0197819920    0.0003731123    
0.0611691980    0.0193646890    0.0003697410    
0.0613918590    0.0191237390    0.0003634221    
0.0616145200    0.0198111520    0.0003726034    
0.0618371810    0.0199598450    0.0003703259    
0.0620598420    0.0186584400    0.0003584187    
0.0622825030    0.0192973570    0.0003700780    
0.0625051640    0.0188971100    0.0003610766    
0.0627278250    0.0197125810    0.0003680258    
0.0629504860    0.0195826400    0.0003638287    
0.0631731470    0.0198000080    0.0003703687    
0.0633958080    0.0197132170    0.0003716829    
0.0636184690    0.0196969930    0.0003767044    
0.0638411300    0.0196208980    0.0003745647    
0.0640637910    0.0197165860    0.0003781178    
0.0642864520    0.0196241270    0.0003764139    
0.0645091130    0.0193964910    0.0003775037    
0.0647317740    0.0187692180    0.0003717588    
0.0649544350    0.0191540800    0.0003751377    
0.0651770960    0.0194398500    0.0003758642    
0.0653997570    0.0198693640    0.0003791698    
0.0656224180    0.0189602560    0.0003711993    
0.0658450790    0.0193792680    0.0003698845    
0.0660677400    0.0197795340    0.0003752753    
0.0662904010    0.0197004910    0.0003789958    
0.0665130620    0.0198985730    0.0003792441    
0.0667357230    0.0192273030    0.0003794206    
0.0669583840    0.0197161490    0.0003829281    
0.0671810450    0.0192710190    0.0003764905    
0.0674037060    0.0194807110    0.0003849462    
0.0676263670    0.0192264870    0.0003796263    
0.0678490280    0.0195177460    0.0003801517    
0.0680716890    0.0196270200    0.0003820627    
0.0682943500    0.0196941580    0.0003785239    
0.0685170110    0.0192591940    0.0003705062    
0.0687396720    0.0188663060    0.0003657332    
0.0689623330    0.0197332310    0.0003728564    
0.0691849940    0.0185575870    0.0003640843    
0.0694076550    0.0195081980    0.0003730937    
0.0696303160    0.0197061680    0.0003720132    
0.0698529770    0.0194138490    0.0003684698    
0.0700756380    0.0194638270    0.0003642077    
0.0702982990    0.0193677440    0.0003672642    
0.0705209600    0.0198441480    0.0003690697    
0.0707436210    0.0199955610    0.0003687737    
0.0709662820    0.0193956740    0.0003675296    
0.0711889430    0.0197442630    0.0003662631    
0.0714116040    0.0192314380    0.0003622132    
0.0716342650    0.0192988890    0.0003613745    
0.0718569260    0.0197478620    0.0003640816    
0.0720795870    0.0198808840    0.0003667835    
0.0723022480    0.0195071250    0.0003638730    
0.0725249090    0.0194004900    0.0003585314    
0.0727475700    0.0195243940    0.0003627466    
0.0729702310    0.0192473620    0.0003572914    
0.0731928920    0.0191742110    0.0003580370    
0.0734155530    0.0200166990    0.0003650883    
0.0736382140    0.0198263430    0.0003610164    
0.0738608750    0.0200633640    0.0003655141    
0.0740835360    0.0190561190    0.0003553367    
0.0743061970    0.0198500030    0.0003575561    
0.0745288580    0.0196686770    0.0003595790    
0.0747515190    0.0197332460    0.0003608801    
0.0749741800    0.0198101260    0.0003582354    
0.0751968410    0.0196354910    0.0003594532    
0.0754195020    0.0193865760    0.0003550750    
0.0756421630    0.0197746440    0.0003556798    
0.0758648240    0.0193812830    0.0003529709    
0.0760874850    0.0190608340    0.0003498726    
0.0763101460    0.0192357980    0.0003511375    
0.0765328070    0.0198669670    0.0003605032    
0.0767554680    0.0199144660    0.0003584848    
0.0769781290    0.0196479710    0.0003540319    
0.0772007900    0.0194910060    0.0003497868    
0.0774234510    0.0193895700    0.0003508598    
0.0776461120    0.0193971620    0.0003505957    
0.0778687730    0.0195210180    0.0003505513    
0.0780914340    0.0200244710    0.0003575798    
0.0783140950    0.0201052980    0.0003526160    
0.0785367560    0.0196030920    0.0003537980    
0.0787594170    0.0200435970    0.0003545457    
0.0789820780    0.0199566580    0.0003519632    
0.0792047390    0.0201373500    0.0003547090    
0.0794274000    0.0194073030    0.0003496953    
0.0796500610    0.0196111100    0.0003480957    
0.0798727220    0.0194762450    0.0003465765    
0.0800953830    0.0192087390    0.0003433967    
0.0803180440    0.0189793130    0.0003437176    
0.0805407050    0.0198697960    0.0003513615    
0.0807633660    0.0199383540    0.0003516404    
0.0809860270    0.0200868570    0.0003516442    
0.0812086880    0.0191966870    0.0003407934    
0.0814313490    0.0201964060    0.0003511489    
0.0816540100    0.0189498150    0.0003393649    
0.0818766710    0.0193844540    0.0003440184    
0.0820993320    0.0190218760    0.0003401648    
0.0823219930    0.0193999110    0.0003449452    
0.0825446540    0.0188953860    0.0003379569    
0.0827673150    0.0192625690    0.0003389323    
0.0829899760    0.0194198600    0.0003397075    
0.0832126370    0.0201458260    0.0003475485    
0.0834352980    0.0188978530    0.0003358590    
0.0836579590    0.0190931110    0.0003368382    
0.0838806200    0.0196134320    0.0003424654    
0.0841032810    0.0195596600    0.0003398726    
0.0843259420    0.0197739290    0.0003406767    
0.0845486030    0.0196507010    0.0003396138    
0.0847712640    0.0202120530    0.0003423314    
0.0849939250    0.0196192260    0.0003378610    
0.0852165860    0.0196881600    0.0003388974    
0.0854392470    0.0191853910    0.0003313742    
0.0856619080    0.0191902380    0.0003338569    
0.0858845690    0.0193309640    0.0003320609    
0.0861072300    0.0200787750    0.0003407590    
0.0863298910    0.0190215060    0.0003334029    
0.0865525520    0.0193319300    0.0003332101    
0.0867752130    0.0195128440    0.0003320644    
0.0869978740    0.0195329130    0.0003330818    
0.0872205350    0.0193302760    0.0003309280    
0.0874431960    0.0190300400    0.0003283482    
0.0876658570    0.0191593280    0.0003307267    
0.0878885180    0.0199583410    0.0003381313    
0.0881111790    0.0197071680    0.0003355657    
0.0883338400    0.0204158530    0.0003365454    
0.0885565010    0.0189899700    0.0003289817    
0.0887791620    0.0192668820    0.0003270745    
0.0890018230    0.0195292400    0.0003324879    
0.0892244840    0.0196184170    0.0003338127    
0.0894471450    0.0187546590    0.0003250028    
0.0896698060    0.0191444540    0.0003271242    
0.0898924670    0.0198357300    0.0003345213    
0.0901151280    0.0193101720    0.0003264948    
0.0903377890    0.0196908760    0.0003324568    
0.0905604500    0.0195105570    0.0003294124    
0.0907831110    0.0192863180    0.0003266991    
0.0910057720    0.0197876620    0.0003324367    
0.0912284330    0.0196700370    0.0003267015    
0.0914510940    0.0194010420    0.0003280781    
0.0916737550    0.0196747380    0.0003295643    
0.0918964160    0.0193655800    0.0003283245    
0.0921190770    0.0196838460    0.0003280185    
0.0923417380    0.0191912240    0.0003240208    
0.0925643990    0.0191518500    0.0003228961    
0.0927870600    0.0200392490    0.0003316466    
0.0930097210    0.0198288530    0.0003270912    
0.0932323820    0.0194206150    0.0003260862    
