# Diamond Light Source Ltd.
# Data extracted from: /dls/b21/data/2018/cm19678-3/processed/b21-386631_00653.dat
q(1/A)          Column          Error           
0.0035000000    2.0804784000    0.0245802000    
0.0037226610    1.8195716000    0.0225033250    
0.0039453220    1.6465799000    0.0194742240    
0.0041679830    1.3068266000    0.0142476270    
0.0043906440    0.9591292800    0.0116750150    
0.0046133050    0.7672109800    0.0100239780    
0.0048359660    0.5864957600    0.0082901586    
0.0050586270    0.4605371000    0.0072206143    
0.0052812880    0.4154367900    0.0064840801    
0.0055039490    0.3847502500    0.0059332945    
0.0057266100    0.3127317500    0.0051749552    
0.0059492710    0.2628933700    0.0047447184    
0.0061719320    0.2207374800    0.0041895401    
0.0063945930    0.2059203000    0.0040955349    
0.0066172539    0.1780449200    0.0035759490    
0.0068399149    0.1637839300    0.0033757327    
0.0070625759    0.1454468900    0.0031485257    
0.0072852369    0.1253210400    0.0028788524    
0.0075078979    0.1109956000    0.0026960063    
0.0077305589    0.0980482860    0.0024856227    
0.0079532199    0.0945530990    0.0024070926    
0.0081758809    0.0862701720    0.0023206340    
0.0083985419    0.0859631400    0.0021605873    
0.0086212029    0.0740162840    0.0020048383    
0.0088438639    0.0685572270    0.0019139911    
0.0090665249    0.0658468020    0.0018116875    
0.0092891859    0.0623409640    0.0018399354    
0.0095118469    0.0611691520    0.0017527049    
0.0097345079    0.0594986910    0.0016788527    
0.0099571689    0.0550709090    0.0015818705    
0.0101798300    0.0507088660    0.0015179302    
0.0104024910    0.0495087580    0.0014947850    
0.0106251520    0.0451200020    0.0014318400    
0.0108478130    0.0461955740    0.0014109219    
0.0110704740    0.0437481080    0.0013072248    
0.0112931350    0.0416873140    0.0012798121    
0.0115157960    0.0408530830    0.0012595545    
0.0117384570    0.0409161130    0.0012496747    
0.0119611180    0.0373125340    0.0011968001    
0.0121837790    0.0359203590    0.0011545241    
0.0124064400    0.0346920220    0.0010873159    
0.0126291010    0.0371189020    0.0011106278    
0.0128517620    0.0359686230    0.0010960137    
0.0130744230    0.0328706020    0.0010399798    
0.0132970840    0.0333644830    0.0010426401    
0.0135197450    0.0319092420    0.0010050466    
0.0137424060    0.0323813180    0.0009983588    
0.0139650670    0.0311019590    0.0009566438    
0.0141877280    0.0299982790    0.0009415932    
0.0144103890    0.0289156150    0.0009085058    
0.0146330500    0.0290287170    0.0009045014    
0.0148557110    0.0284224900    0.0008912543    
0.0150783720    0.0283944350    0.0008834522    
0.0153010330    0.0267978670    0.0008461547    
0.0155236940    0.0272193380    0.0008477118    
0.0157463550    0.0260803780    0.0008154101    
0.0159690160    0.0281598870    0.0008440794    
0.0161916770    0.0263675110    0.0008121735    
0.0164143380    0.0253209110    0.0008019213    
0.0166369990    0.0242129690    0.0007600025    
0.0168596600    0.0252178220    0.0007687789    
0.0170823210    0.0256122120    0.0007680592    
0.0173049820    0.0253772720    0.0007658501    
0.0175276430    0.0252780520    0.0007724117    
0.0177503040    0.0245884450    0.0007423825    
0.0179729650    0.0243668170    0.0007317000    
0.0181956260    0.0231878520    0.0007000954    
0.0184182870    0.0229069760    0.0006925627    
0.0186409480    0.0233887080    0.0007042364    
0.0188636090    0.0227813590    0.0006906614    
0.0190862700    0.0235033610    0.0007004236    
0.0193089310    0.0229515580    0.0006910738    
0.0195315920    0.0237082270    0.0006784865    
0.0197542530    0.0226478820    0.0006641065    
0.0199769140    0.0229205220    0.0006680920    
0.0201995750    0.0231140020    0.0006604001    
0.0204222360    0.0235317210    0.0006720606    
0.0206448970    0.0224226160    0.0006513690    
0.0208675580    0.0224343470    0.0006381227    
0.0210902190    0.0224068030    0.0006438843    
0.0213128800    0.0212267260    0.0006181959    
0.0215355410    0.0228157300    0.0006332818    
0.0217582020    0.0216907720    0.0006174722    
0.0219808630    0.0215637230    0.0006148529    
0.0222035240    0.0217600120    0.0006120482    
0.0224261850    0.0216280520    0.0006047587    
0.0226488460    0.0213044490    0.0005957102    
0.0228715070    0.0213313240    0.0005946050    
0.0230941680    0.0208009500    0.0005871665    
0.0233168290    0.0216209600    0.0006001193    
0.0235394900    0.0208368240    0.0005826346    
0.0237621510    0.0211646570    0.0005713920    
0.0239848120    0.0200230960    0.0005564118    
0.0242074730    0.0210275620    0.0005656332    
0.0244301340    0.0212890800    0.0005697892    
0.0246527950    0.0210482800    0.0005718037    
0.0248754560    0.0207956060    0.0005555876    
0.0250981170    0.0199640530    0.0005455800    
0.0253207780    0.0211612220    0.0005449292    
0.0255434390    0.0205976370    0.0005433617    
0.0257661000    0.0215101480    0.0005570633    
0.0259887610    0.0210130330    0.0005447375    
0.0262114220    0.0212232680    0.0005503726    
0.0264340830    0.0210940530    0.0005412291    
0.0266567440    0.0205050000    0.0005303214    
0.0268794050    0.0208957270    0.0005331653    
0.0271020660    0.0206864000    0.0005283404    
0.0273247270    0.0207186510    0.0005255765    
0.0275473880    0.0214463270    0.0005336625    
0.0277700490    0.0200124680    0.0005124668    
0.0279927100    0.0212508480    0.0005234771    
0.0282153710    0.0205595590    0.0005173956    
0.0284380320    0.0205535480    0.0005143211    
0.0286606930    0.0199375490    0.0005022196    
0.0288833540    0.0204578270    0.0005096966    
0.0291060150    0.0207865850    0.0005132881    
0.0293286760    0.0195088540    0.0004903332    
0.0295513370    0.0201714240    0.0004931608    
0.0297739980    0.0212835300    0.0005121504    
0.0299966590    0.0202293230    0.0004907775    
0.0302193200    0.0205658430    0.0005020541    
0.0304419810    0.0198174150    0.0004937411    
0.0306646420    0.0208752530    0.0004924450    
0.0308873030    0.0207183390    0.0004884716    
0.0311099640    0.0205829660    0.0004881374    
0.0313326250    0.0192803490    0.0004672051    
0.0315552860    0.0208869170    0.0004925831    
0.0317779470    0.0205742070    0.0004893076    
0.0320006080    0.0207724540    0.0004804887    
0.0322232690    0.0205656780    0.0004800926    
0.0324459300    0.0207234650    0.0004783329    
0.0326685910    0.0203470730    0.0004731878    
0.0328912520    0.0203602060    0.0004749079    
0.0331139130    0.0213446910    0.0004799287    
0.0333365740    0.0205820480    0.0004728071    
0.0335592350    0.0204118660    0.0004663210    
0.0337818960    0.0193582800    0.0004537651    
0.0340045570    0.0197951610    0.0004581280    
0.0342272170    0.0208805690    0.0004686645    
0.0344498780    0.0203677290    0.0004647067    
0.0346725390    0.0199777770    0.0004517132    
0.0348952000    0.0203123310    0.0004534048    
0.0351178610    0.0202229290    0.0004544765    
0.0353405220    0.0206969450    0.0004576775    
0.0355631830    0.0198482600    0.0004465077    
0.0357858440    0.0196674690    0.0004444697    
0.0360085050    0.0195136500    0.0004440659    
0.0362311660    0.0203844790    0.0004484711    
0.0364538270    0.0199906160    0.0004405528    
0.0366764880    0.0205626930    0.0004464879    
0.0368991490    0.0195881130    0.0004335819    
0.0371218100    0.0201727940    0.0004387464    
0.0373444710    0.0202829990    0.0004447342    
0.0375671320    0.0202142410    0.0004433331    
0.0377897930    0.0192826930    0.0004217883    
0.0380124540    0.0203195220    0.0004356963    
0.0382351150    0.0200953200    0.0004332861    
0.0384577760    0.0201583980    0.0004297785    
0.0386804370    0.0198532280    0.0004297679    
0.0389030980    0.0203966620    0.0004323112    
0.0391257590    0.0193614010    0.0004183378    
0.0393484200    0.0196981640    0.0004205401    
0.0395710810    0.0202013930    0.0004264517    
0.0397937420    0.0206785350    0.0004314587    
0.0400164030    0.0201301360    0.0004274309    
0.0402390640    0.0191734920    0.0004115962    
0.0404617250    0.0200306750    0.0004182143    
0.0406843860    0.0194998980    0.0004086494    
0.0409070470    0.0188416160    0.0004058771    
0.0411297080    0.0194906590    0.0004088150    
0.0413523690    0.0198929400    0.0004140770    
0.0415750300    0.0198904540    0.0004175682    
0.0417976910    0.0197816180    0.0004056541    
0.0420203520    0.0198970280    0.0004083644    
0.0422430130    0.0200057450    0.0004110288    
0.0424656740    0.0192991620    0.0003984506    
0.0426883350    0.0190674870    0.0003980174    
0.0429109960    0.0194459900    0.0004032044    
0.0431336570    0.0209741150    0.0004128475    
0.0433563180    0.0198246540    0.0004048378    
0.0435789790    0.0194549270    0.0003947443    
0.0438016400    0.0199343730    0.0004017525    
0.0440243010    0.0197064460    0.0003953962    
0.0442469620    0.0199914910    0.0004006319    
0.0444696230    0.0199041670    0.0003983224    
0.0446922840    0.0194929410    0.0003930156    
0.0449149450    0.0201862670    0.0003945973    
0.0451376060    0.0191543420    0.0003891263    
0.0453602670    0.0200320020    0.0003937696    
0.0455829280    0.0199702570    0.0003927077    
0.0458055890    0.0194303780    0.0003896219    
0.0460282500    0.0200092890    0.0003906157    
0.0462509110    0.0197536320    0.0003856984    
0.0464735720    0.0197759440    0.0003861340    
0.0466962330    0.0198344210    0.0003884624    
0.0469188940    0.0197675150    0.0003867073    
0.0471415550    0.0195354380    0.0003864050    
0.0473642160    0.0198912820    0.0003844489    
0.0475868770    0.0195543590    0.0003792854    
0.0478095380    0.0192012820    0.0003742009    
0.0480321990    0.0196517410    0.0003793942    
0.0482548600    0.0200980460    0.0003820065    
0.0484775210    0.0199066730    0.0003839583    
0.0487001820    0.0199752790    0.0003789891    
0.0489228430    0.0197598820    0.0003767377    
0.0491455040    0.0191049690    0.0003678797    
0.0493681650    0.0195284160    0.0003751305    
0.0495908260    0.0197962670    0.0003713396    
0.0498134870    0.0198910050    0.0003757705    
0.0500361480    0.0196799700    0.0003727829    
0.0502588090    0.0195605240    0.0003660812    
0.0504814700    0.0199416920    0.0003744630    
0.0507041310    0.0195870350    0.0003667058    
0.0509267920    0.0193894710    0.0003663611    
0.0511494530    0.0191863980    0.0003620075    
0.0513721140    0.0192408230    0.0003657132    
0.0515947750    0.0192618980    0.0003610619    
0.0518174360    0.0196256640    0.0003622599    
0.0520400970    0.0200732340    0.0003638271    
0.0522627580    0.0197652970    0.0003640938    
0.0524854190    0.0192973090    0.0003626827    
0.0527080800    0.0190504170    0.0003631452    
0.0529307410    0.0197189090    0.0003711969    
0.0531534020    0.0193674880    0.0003665351    
0.0533760630    0.0195517560    0.0003694275    
0.0535987240    0.0200334790    0.0003722049    
0.0538213850    0.0196370580    0.0003727734    
0.0540440460    0.0193044250    0.0003678535    
0.0542667070    0.0193013710    0.0003703593    
0.0544893680    0.0197630200    0.0003749619    
0.0547120290    0.0199843550    0.0003744727    
0.0549346900    0.0198859740    0.0003737463    
0.0551573510    0.0192279790    0.0003718373    
0.0553800120    0.0198002040    0.0003741219    
0.0556026730    0.0194439920    0.0003784282    
0.0558253340    0.0196886050    0.0003839898    
0.0560479950    0.0195463330    0.0003826001    
0.0562706560    0.0196970750    0.0003877858    
0.0564933170    0.0184560390    0.0003786302    
0.0567159780    0.0199648430    0.0003890814    
0.0569386390    0.0191411270    0.0003869461    
0.0571613000    0.0189847530    0.0003770648    
0.0573839610    0.0193557660    0.0003775702    
0.0576066220    0.0197593210    0.0003825420    
0.0578292830    0.0199451290    0.0003830647    
0.0580519440    0.0195811060    0.0003810246    
0.0582746050    0.0195484270    0.0003790277    
0.0584972660    0.0189687800    0.0003719368    
0.0587199270    0.0196036250    0.0003748502    
0.0589425880    0.0192545410    0.0003693248    
0.0591652490    0.0195893310    0.0003747139    
0.0593879100    0.0192782610    0.0003689661    
0.0596105710    0.0203650890    0.0003788239    
0.0598332320    0.0190876520    0.0003698852    
0.0600558930    0.0198569890    0.0003748604    
0.0602785540    0.0196173020    0.0003721972    
0.0605012150    0.0195839480    0.0003710972    
0.0607238760    0.0193827120    0.0003664952    
0.0609465370    0.0192808160    0.0003684083    
0.0611691980    0.0197727440    0.0003736697    
0.0613918590    0.0197095100    0.0003689988    
0.0616145200    0.0198098070    0.0003726440    
0.0618371810    0.0201648650    0.0003722762    
0.0620598420    0.0198758890    0.0003699801    
0.0622825030    0.0198708160    0.0003755902    
0.0625051640    0.0187989960    0.0003601895    
0.0627278250    0.0191615170    0.0003628971    
0.0629504860    0.0195544330    0.0003636186    
0.0631731470    0.0187523250    0.0003604884    
0.0633958080    0.0193192900    0.0003680032    
0.0636184690    0.0196954200    0.0003767432    
0.0638411300    0.0195335270    0.0003737832    
0.0640637910    0.0194901130    0.0003759937    
0.0642864520    0.0201497330    0.0003814760    
0.0645091130    0.0196960090    0.0003804616    
0.0647317740    0.0184357740    0.0003684945    
0.0649544350    0.0195784660    0.0003793251    
0.0651770960    0.0198379530    0.0003797476    
0.0653997570    0.0197520040    0.0003781024    
0.0656224180    0.0188639090    0.0003703079    
0.0658450790    0.0201545530    0.0003772647    
0.0660677400    0.0195359170    0.0003730104    
0.0662904010    0.0190205680    0.0003724515    
0.0665130620    0.0196729030    0.0003771414    
0.0667357230    0.0190305880    0.0003775286    
0.0669583840    0.0196622730    0.0003824592    
0.0671810450    0.0192691730    0.0003765263    
0.0674037060    0.0207721800    0.0003975582    
0.0676263670    0.0194269290    0.0003816546    
0.0678490280    0.0195973920    0.0003809810    
0.0680716890    0.0196251940    0.0003820996    
0.0682943500    0.0197943960    0.0003795402    
0.0685170110    0.0197281390    0.0003750434    
0.0687396720    0.0198503920    0.0003752042    
0.0689623330    0.0190482610    0.0003663805    
0.0691849940    0.0198204270    0.0003763221    
0.0694076550    0.0202275220    0.0003799643    
0.0696303160    0.0192973360    0.0003681866    
0.0698529770    0.0204477340    0.0003782081    
0.0700756380    0.0192307980    0.0003620727    
0.0702982990    0.0193872160    0.0003675013    
0.0705209600    0.0196713050    0.0003675114    
0.0707436210    0.0196134990    0.0003652858    
0.0709662820    0.0196171770    0.0003696751    
0.0711889430    0.0195324290    0.0003643451    
0.0714116040    0.0188411450    0.0003585701    
0.0716342650    0.0196157700    0.0003643814    
0.0718569260    0.0201295110    0.0003676355    
0.0720795870    0.0191487770    0.0003600183    
0.0723022480    0.0191324980    0.0003604136    
0.0725249090    0.0191343010    0.0003561141    
0.0727475700    0.0195973920    0.0003634760    
0.0729702310    0.0194386290    0.0003591136    
0.0731928920    0.0197882560    0.0003637768    
0.0734155530    0.0188501190    0.0003543406    
0.0736382140    0.0190495170    0.0003539238    
0.0738608750    0.0189567420    0.0003553418    
0.0740835360    0.0190880800    0.0003556854    
0.0743061970    0.0193660520    0.0003532211    
0.0745288580    0.0195164870    0.0003582364    
0.0747515190    0.0191975550    0.0003559990    
0.0749741800    0.0199713110    0.0003597413    
0.0751968410    0.0198780640    0.0003617184    
0.0754195020    0.0197108770    0.0003580838    
0.0756421630    0.0195563230    0.0003537615    
0.0758648240    0.0193289540    0.0003525444    
0.0760874850    0.0194003310    0.0003530252    
0.0763101460    0.0192605340    0.0003514134    
0.0765328070    0.0191724920    0.0003541969    
0.0767554680    0.0197975160    0.0003574817    
0.0769781290    0.0204512200    0.0003612478    
0.0772007900    0.0200805360    0.0003550881    
0.0774234510    0.0193887650    0.0003509027    
0.0776461120    0.0191555010    0.0003484547    
0.0778687730    0.0193188040    0.0003487808    
0.0780914340    0.0192254130    0.0003504229    
0.0783140950    0.0197089500    0.0003491730    
0.0785367560    0.0198450250    0.0003560254    
0.0787594170    0.0194784630    0.0003495617    
0.0789820780    0.0194470070    0.0003474897    
0.0792047390    0.0189556470    0.0003441933    
0.0794274000    0.0199801120    0.0003548692    
0.0796500610    0.0196661620    0.0003486338    
0.0798727220    0.0198026050    0.0003495182    
0.0800953830    0.0201414770    0.0003516855    
0.0803180440    0.0196572090    0.0003498522    
0.0805407050    0.0194528610    0.0003477053    
0.0807633660    0.0188460480    0.0003419215    
0.0809860270    0.0185593330    0.0003380576    
0.0812086880    0.0195834370    0.0003442585    
0.0814313490    0.0194876550    0.0003449818    
0.0816540100    0.0199643970    0.0003483811    
0.0818766710    0.0196892460    0.0003467620    
0.0820993320    0.0193193890    0.0003428637    
0.0823219930    0.0189944050    0.0003413699    
0.0825446540    0.0200374980    0.0003480705    
0.0827673150    0.0197989940    0.0003436683    
0.0829899760    0.0198831120    0.0003437845    
0.0832126370    0.0200616250    0.0003468710    
0.0834352980    0.0198943950    0.0003446500    
0.0836579590    0.0193006730    0.0003387126    
0.0838806200    0.0202889600    0.0003483629    
0.0841032810    0.0197306600    0.0003414038    
0.0843259420    0.0192629310    0.0003362941    
0.0845486030    0.0193745100    0.0003372669    
0.0847712640    0.0191390850    0.0003331687    
0.0849939250    0.0198750940    0.0003401056    
0.0852165860    0.0198571760    0.0003403976    
0.0854392470    0.0197862990    0.0003365718    
0.0856619080    0.0196256550    0.0003376714    
0.0858845690    0.0188857440    0.0003282616    
0.0861072300    0.0190201310    0.0003317016    
0.0863298910    0.0198745370    0.0003408455    
0.0865525520    0.0197510940    0.0003368513    
0.0867752130    0.0191510060    0.0003290182    
0.0869978740    0.0196691720    0.0003342894    
0.0872205350    0.0195398160    0.0003327644    
0.0874431960    0.0189788120    0.0003279529    
0.0876658570    0.0193018620    0.0003320021    
0.0878885180    0.0196546180    0.0003355966    
0.0881111790    0.0194327430    0.0003332688    
0.0883338400    0.0195060460    0.0003290081    
0.0885565010    0.0193374550    0.0003320255    
0.0887791620    0.0194945520    0.0003290483    
0.0890018230    0.0191894270    0.0003296296    
0.0892244840    0.0190161030    0.0003286954    
0.0894471450    0.0194698620    0.0003311891    
0.0896698060    0.0197146430    0.0003320074    
0.0898924670    0.0199034780    0.0003351400    
0.0901151280    0.0200280230    0.0003325556    
0.0903377890    0.0194831470    0.0003307458    
0.0905604500    0.0193381110    0.0003280002    
0.0907831110    0.0193859400    0.0003275886    
0.0910057720    0.0195363370    0.0003303660    
0.0912284330    0.0194205570    0.0003246695    
0.0914510940    0.0196563180    0.0003302767    
0.0916737550    0.0190674240    0.0003244843    
0.0918964160    0.0198332640    0.0003323129    
0.0921190770    0.0198972510    0.0003298390    
0.0923417380    0.0193116300    0.0003250821    
0.0925643990    0.0195003950    0.0003258677    
0.0927870600    0.0191884980    0.0003245767    
0.0930097210    0.0189763770    0.0003200287    
0.0932323820    0.0192399580    0.0003246124    
