# Diamond Light Source Ltd.
# Data extracted from: /dls/b21/data/2018/cm19678-3/processed/b21-386631_00652.dat
q(1/A)          Column          Error           
0.0035000000    2.1050237000    0.0247273660    
0.0037226610    1.8733995000    0.0228361490    
0.0039453220    1.6416268000    0.0194469510    
0.0041679830    1.2726094000    0.0140613380    
0.0043906440    0.9607519400    0.0116861120    
0.0046133050    0.7697298500    0.0100414730    
0.0048359660    0.5852123300    0.0082819515    
0.0050586270    0.4684468200    0.0072831212    
0.0052812880    0.4251402100    0.0065600558    
0.0055039490    0.3765028700    0.0058699736    
0.0057266100    0.3177651200    0.0052169811    
0.0059492710    0.2674023700    0.0047857368    
0.0061719320    0.2213405200    0.0041956990    
0.0063945930    0.2012380700    0.0040491296    
0.0066172539    0.1855532500    0.0036509539    
0.0068399149    0.1634007400    0.0033721351    
0.0070625759    0.1516809900    0.0032156305    
0.0072852369    0.1236275300    0.0028596346    
0.0075078979    0.1125253300    0.0027148056    
0.0077305589    0.0978167510    0.0024829466    
0.0079532199    0.0979439730    0.0024501311    
0.0081758809    0.0942178010    0.0024254278    
0.0083985419    0.0844060290    0.0021411543    
0.0086212029    0.0765303180    0.0020388159    
0.0088438639    0.0717783880    0.0019586449    
0.0090665249    0.0621712250    0.0017605818    
0.0092891859    0.0611047890    0.0018217928    
0.0095118469    0.0579671670    0.0017063934    
0.0097345079    0.0569051900    0.0016420273    
0.0099571689    0.0533100070    0.0015565380    
0.0101798300    0.0494469720    0.0014990815    
0.0104024910    0.0492483020    0.0014910043    
0.0106251520    0.0440387260    0.0014147277    
0.0108478130    0.0445673920    0.0013859800    
0.0110704740    0.0420773190    0.0012821540    
0.0112931350    0.0410279800    0.0012697841    
0.0115157960    0.0430367990    0.0012929153    
0.0117384570    0.0384432550    0.0012114498    
0.0119611180    0.0374355480    0.0011988970    
0.0121837790    0.0345917330    0.0011330899    
0.0124064400    0.0346993000    0.0010875440    
0.0126291010    0.0345008980    0.0010708576    
0.0128517620    0.0342725620    0.0010699732    
0.0130744230    0.0328445870    0.0010396772    
0.0132970840    0.0336321970    0.0010469246    
0.0135197450    0.0307127560    0.0009861272    
0.0137424060    0.0309411140    0.0009760069    
0.0139650670    0.0287540110    0.0009199223    
0.0141877280    0.0290881760    0.0009272972    
0.0144103890    0.0278367610    0.0008914898    
0.0146330500    0.0303315070    0.0009246723    
0.0148557110    0.0285402650    0.0008931926    
0.0150783720    0.0275206120    0.0008698434    
0.0153010330    0.0278991450    0.0008634569    
0.0155236940    0.0264328550    0.0008354626    
0.0157463550    0.0262643450    0.0008183667    
0.0159690160    0.0267992600    0.0008235213    
0.0161916770    0.0260477590    0.0008073187    
0.0164143380    0.0266471490    0.0008227407    
0.0166369990    0.0256019370    0.0007815791    
0.0168596600    0.0257857100    0.0007774684    
0.0170823210    0.0248112770    0.0007560339    
0.0173049820    0.0240186860    0.0007451462    
0.0175276430    0.0249056390    0.0007667812    
0.0177503040    0.0237192640    0.0007292197    
0.0179729650    0.0236467040    0.0007208825    
0.0181956260    0.0237001240    0.0007078607    
0.0184182870    0.0228698960    0.0006920745    
0.0186409480    0.0235208690    0.0007062974    
0.0188636090    0.0234353750    0.0007005786    
0.0190862700    0.0221512410    0.0006800493    
0.0193089310    0.0238721310    0.0007048707    
0.0195315920    0.0228586710    0.0006662891    
0.0197542530    0.0228084560    0.0006665265    
0.0199769140    0.0228668970    0.0006673800    
0.0201995750    0.0230433610    0.0006594593    
0.0204222360    0.0222120010    0.0006530118    
0.0206448970    0.0235818060    0.0006680640    
0.0208675580    0.0224572080    0.0006385147    
0.0210902190    0.0223374770    0.0006429549    
0.0213128800    0.0231219960    0.0006452720    
0.0215355410    0.0210448060    0.0006082720    
0.0217582020    0.0225040620    0.0006290077    
0.0219808630    0.0216559230    0.0006162305    
0.0222035240    0.0218506710    0.0006133862    
0.0224261850    0.0215311070    0.0006034651    
0.0226488460    0.0228750160    0.0006173424    
0.0228715070    0.0210042400    0.0005900906    
0.0230941680    0.0222310160    0.0006070786    
0.0233168290    0.0215755140    0.0005995512    
0.0235394900    0.0216070560    0.0005933676    
0.0237621510    0.0218325600    0.0005803987    
0.0239848120    0.0211253180    0.0005715812    
0.0242074730    0.0217928990    0.0005758952    
0.0244301340    0.0210037340    0.0005660171    
0.0246527950    0.0199340280    0.0005565212    
0.0248754560    0.0217056060    0.0005676730    
0.0250981170    0.0204007120    0.0005515721    
0.0253207780    0.0203937040    0.0005350117    
0.0255434390    0.0207309890    0.0005451749    
0.0257661000    0.0211827780    0.0005528660    
0.0259887610    0.0209185690    0.0005435687    
0.0262114220    0.0222555590    0.0005636577    
0.0264340830    0.0207651260    0.0005370491    
0.0266567440    0.0204132720    0.0005291894    
0.0268794050    0.0203422300    0.0005261117    
0.0271020660    0.0202858330    0.0005232550    
0.0273247270    0.0209897020    0.0005290588    
0.0275473880    0.0208531250    0.0005262854    
0.0277700490    0.0205154430    0.0005189212    
0.0279927100    0.0206233220    0.0005157442    
0.0282153710    0.0212150400    0.0005256338    
0.0284380320    0.0203004040    0.0005111976    
0.0286606930    0.0211311500    0.0005170885    
0.0288833540    0.0201572820    0.0005059918    
0.0291060150    0.0197767530    0.0005007174    
0.0293286760    0.0205853580    0.0005037328    
0.0295513370    0.0213936710    0.0005079354    
0.0297739980    0.0204497880    0.0005020715    
0.0299966590    0.0208766590    0.0004986204    
0.0302193200    0.0197120460    0.0004915737    
0.0304419810    0.0201414740    0.0004978138    
0.0306646420    0.0194272380    0.0004751086    
0.0308873030    0.0208724330    0.0004903362    
0.0311099640    0.0201588650    0.0004831330    
0.0313326250    0.0208244270    0.0004856039    
0.0315552860    0.0205427230    0.0004885589    
0.0317779470    0.0206018020    0.0004896870    
0.0320006080    0.0202321020    0.0004742478    
0.0322232690    0.0202449080    0.0004763838    
0.0324459300    0.0210480610    0.0004821150    
0.0326685910    0.0202082550    0.0004716203    
0.0328912520    0.0208076660    0.0004801485    
0.0331139130    0.0192013000    0.0004552424    
0.0333365740    0.0214771750    0.0004830297    
0.0335592350    0.0202350030    0.0004643450    
0.0337818960    0.0203517350    0.0004653117    
0.0340045570    0.0194811670    0.0004545278    
0.0342272170    0.0195171690    0.0004531530    
0.0344498780    0.0200432500    0.0004610386    
0.0346725390    0.0200841260    0.0004529614    
0.0348952000    0.0200129060    0.0004500977    
0.0351178610    0.0207686060    0.0004606156    
0.0353405220    0.0204785840    0.0004553045    
0.0355631830    0.0212288320    0.0004618239    
0.0357858440    0.0201036060    0.0004494180    
0.0360085050    0.0197198960    0.0004464532    
0.0362311660    0.0199841390    0.0004440920    
0.0364538270    0.0195092630    0.0004352621    
0.0366764880    0.0200142870    0.0004405399    
0.0368991490    0.0202353770    0.0004407334    
0.0371218100    0.0197761580    0.0004344573    
0.0373444710    0.0198971150    0.0004405295    
0.0375671320    0.0200628800    0.0004417165    
0.0377897930    0.0200618990    0.0004302712    
0.0380124540    0.0204639490    0.0004372878    
0.0382351150    0.0198752740    0.0004309525    
0.0384577760    0.0193194630    0.0004207845    
0.0386804370    0.0197643410    0.0004288497    
0.0389030980    0.0203001270    0.0004313322    
0.0391257590    0.0195191570    0.0004200827    
0.0393484200    0.0201782410    0.0004256785    
0.0395710810    0.0196653740    0.0004208001    
0.0397937420    0.0198274650    0.0004225310    
0.0400164030    0.0200345040    0.0004264591    
0.0402390640    0.0194426410    0.0004145185    
0.0404617250    0.0197379350    0.0004151906    
0.0406843860    0.0202920290    0.0004169106    
0.0409070470    0.0191516450    0.0004092456    
0.0411297080    0.0193918280    0.0004078200    
0.0413523690    0.0192764060    0.0004076526    
0.0415750300    0.0198507870    0.0004171954    
0.0417976910    0.0198772910    0.0004066765    
0.0420203520    0.0192221810    0.0004014215    
0.0422430130    0.0200268350    0.0004112885    
0.0424656740    0.0200848840    0.0004065233    
0.0426883350    0.0199689690    0.0004073603    
0.0429109960    0.0195755000    0.0004045872    
0.0431336570    0.0199462520    0.0004026466    
0.0433563180    0.0197709310    0.0004043313    
0.0435789790    0.0196913310    0.0003971770    
0.0438016400    0.0196470080    0.0003988880    
0.0440243010    0.0193693750    0.0003920412    
0.0442469620    0.0200518970    0.0004012788    
0.0444696230    0.0193183480    0.0003924581    
0.0446922840    0.0192751130    0.0003908545    
0.0449149450    0.0196350120    0.0003892129    
0.0451376060    0.0200597440    0.0003982586    
0.0453602670    0.0195174930    0.0003887207    
0.0455829280    0.0194028650    0.0003871293    
0.0458055890    0.0201064940    0.0003963843    
0.0460282500    0.0196092510    0.0003867319    
0.0462509110    0.0199988170    0.0003881254    
0.0464735720    0.0193200910    0.0003816977    
0.0466962330    0.0199603380    0.0003897344    
0.0469188940    0.0200516280    0.0003895173    
0.0471415550    0.0197230060    0.0003882963    
0.0473642160    0.0195535830    0.0003812114    
0.0475868770    0.0195363870    0.0003791508    
0.0478095380    0.0200295410    0.0003822264    
0.0480321990    0.0199122770    0.0003819409    
0.0482548600    0.0202111980    0.0003831206    
0.0484775210    0.0191553030    0.0003766819    
0.0487001820    0.0198212450    0.0003775646    
0.0489228430    0.0193257840    0.0003726156    
0.0491455040    0.0199662950    0.0003761205    
0.0493681650    0.0197703620    0.0003774868    
0.0495908260    0.0193057580    0.0003667487    
0.0498134870    0.0196821680    0.0003738319    
0.0500361480    0.0193662720    0.0003698386    
0.0502588090    0.0195166590    0.0003657088    
0.0504814700    0.0192284990    0.0003677445    
0.0507041310    0.0198040170    0.0003687701    
0.0509267920    0.0192204440    0.0003647990    
0.0511494530    0.0197437960    0.0003672669    
0.0513721140    0.0186886500    0.0003604652    
0.0515947750    0.0196788780    0.0003649874    
0.0518174360    0.0191950500    0.0003583012    
0.0520400970    0.0192793600    0.0003565974    
0.0522627580    0.0191589860    0.0003585035    
0.0524854190    0.0198740580    0.0003681012    
0.0527080800    0.0191236520    0.0003638807    
0.0529307410    0.0196252000    0.0003703527    
0.0531534020    0.0196698960    0.0003694243    
0.0533760630    0.0195209490    0.0003691750    
0.0535987240    0.0192284280    0.0003646879    
0.0538213850    0.0198322810    0.0003746611    
0.0540440460    0.0195678840    0.0003703940    
0.0542667070    0.0201512770    0.0003784653    
0.0544893680    0.0197315880    0.0003747029    
0.0547120290    0.0194551450    0.0003695199    
0.0549346900    0.0198620430    0.0003735606    
0.0551573510    0.0198073900    0.0003774377    
0.0553800120    0.0196841600    0.0003730631    
0.0556026730    0.0199932060    0.0003837757    
0.0558253340    0.0197002270    0.0003841434    
0.0560479950    0.0186440730    0.0003737045    
0.0562706560    0.0197012070    0.0003878671    
0.0564933170    0.0195631550    0.0003898621    
0.0567159780    0.0191044400    0.0003806451    
0.0569386390    0.0199823020    0.0003953986    
0.0571613000    0.0197452890    0.0003845836    
0.0573839610    0.0194703280    0.0003787256    
0.0576066220    0.0192671570    0.0003777874    
0.0578292830    0.0193091100    0.0003769470    
0.0580519440    0.0200227480    0.0003853380    
0.0582746050    0.0191482470    0.0003751675    
0.0584972660    0.0199939760    0.0003818956    
0.0587199270    0.0194715230    0.0003736242    
0.0589425880    0.0201017640    0.0003774023    
0.0591652490    0.0199088850    0.0003777974    
0.0593879100    0.0197060920    0.0003730769    
0.0596105710    0.0195447190    0.0003711543    
0.0598332320    0.0198515950    0.0003772541    
0.0600558930    0.0200451850    0.0003766721    
0.0602785540    0.0193883340    0.0003700576    
0.0605012150    0.0200452280    0.0003754815    
0.0607238760    0.0197541360    0.0003700289    
0.0609465370    0.0201720060    0.0003768659    
0.0611691980    0.0189928800    0.0003662650    
0.0613918590    0.0196998250    0.0003689468    
0.0616145200    0.0195054660    0.0003698092    
0.0618371810    0.0194954180    0.0003660829    
0.0620598420    0.0192187670    0.0003638509    
0.0622825030    0.0196974660    0.0003739876    
0.0625051640    0.0198521490    0.0003701801    
0.0627278250    0.0188974400    0.0003604256    
0.0629504860    0.0193624090    0.0003618668    
0.0631731470    0.0197890320    0.0003703578    
0.0633958080    0.0194074800    0.0003688808    
0.0636184690    0.0195914310    0.0003757867    
0.0638411300    0.0189796110    0.0003684840    
0.0640637910    0.0196973430    0.0003780269    
0.0642864520    0.0190776380    0.0003712277    
0.0645091130    0.0194502140    0.0003781198    
0.0647317740    0.0197362370    0.0003813098    
0.0649544350    0.0194282060    0.0003779063    
0.0651770960    0.0195949060    0.0003774538    
0.0653997570    0.0194882920    0.0003756092    
0.0656224180    0.0192604920    0.0003742195    
0.0658450790    0.0199398170    0.0003752889    
0.0660677400    0.0198961960    0.0003764736    
0.0662904010    0.0197467320    0.0003795344    
0.0665130620    0.0198071980    0.0003784661    
0.0667357230    0.0199409880    0.0003864939    
0.0669583840    0.0199565950    0.0003853515    
0.0671810450    0.0192879330    0.0003767491    
0.0674037060    0.0194142660    0.0003843844    
0.0676263670    0.0198359740    0.0003856920    
0.0678490280    0.0199867180    0.0003847871    
0.0680716890    0.0191084420    0.0003770750    
0.0682943500    0.0192162380    0.0003739955    
0.0685170110    0.0198178530    0.0003759346    
0.0687396720    0.0199042100    0.0003757518    
0.0689623330    0.0191791310    0.0003676755    
0.0691849940    0.0197245330    0.0003754501    
0.0694076550    0.0196820670    0.0003748455    
0.0696303160    0.0196808070    0.0003718659    
0.0698529770    0.0194864480    0.0003692496    
0.0700756380    0.0193302910    0.0003630462    
0.0702982990    0.0200671560    0.0003739294    
0.0705209600    0.0194694060    0.0003656589    
0.0707436210    0.0188010640    0.0003576778    
0.0709662820    0.0195655500    0.0003692271    
0.0711889430    0.0200735440    0.0003693961    
0.0714116040    0.0196846290    0.0003665469    
0.0716342650    0.0191121240    0.0003597108    
0.0718569260    0.0191196600    0.0003583327    
0.0720795870    0.0197756490    0.0003659022    
0.0723022480    0.0191976300    0.0003610644    
0.0725249090    0.0201459440    0.0003654452    
0.0727475700    0.0192104180    0.0003599072    
0.0729702310    0.0197015000    0.0003615715    
0.0731928920    0.0195181630    0.0003613236    
0.0734155530    0.0197534730    0.0003627698    
0.0736382140    0.0195204790    0.0003583097    
0.0738608750    0.0196402670    0.0003617293    
0.0740835360    0.0193108480    0.0003577924    
0.0743061970    0.0198662890    0.0003577915    
0.0745288580    0.0191325370    0.0003547323    
0.0747515190    0.0195713520    0.0003594858    
0.0749741800    0.0198977250    0.0003591156    
0.0751968410    0.0199480690    0.0003623928    
0.0754195020    0.0193506420    0.0003548337    
0.0756421630    0.0193172000    0.0003516289    
0.0758648240    0.0195002280    0.0003541401    
0.0760874850    0.0199955280    0.0003584372    
0.0763101460    0.0195210930    0.0003538195    
0.0765328070    0.0193859510    0.0003562006    
0.0767554680    0.0199695350    0.0003590691    
0.0769781290    0.0198300380    0.0003557566    
0.0772007900    0.0195257920    0.0003501856    
0.0774234510    0.0189608920    0.0003470456    
0.0776461120    0.0196477010    0.0003529401    
0.0778687730    0.0196125740    0.0003514595    
0.0780914340    0.0199513490    0.0003570149    
0.0783140950    0.0195336500    0.0003476531    
0.0785367560    0.0200663990    0.0003580432    
0.0787594170    0.0193068610    0.0003480550    
0.0789820780    0.0195131920    0.0003481170    
0.0792047390    0.0203661240    0.0003568066    
0.0794274000    0.0200284330    0.0003553353    
0.0796500610    0.0196950140    0.0003489261    
0.0798727220    0.0194118580    0.0003460890    
0.0800953830    0.0194639420    0.0003457560    
0.0803180440    0.0190821420    0.0003447329    
0.0805407050    0.0195688350    0.0003487768    
0.0807633660    0.0193091520    0.0003461333    
0.0809860270    0.0200598630    0.0003514949    
0.0812086880    0.0193575310    0.0003423030    
0.0814313490    0.0194978510    0.0003451082    
0.0816540100    0.0195368650    0.0003446668    
0.0818766710    0.0189237220    0.0003399898    
0.0820993320    0.0193721310    0.0003433674    
0.0823219930    0.0194647590    0.0003456069    
0.0825446540    0.0193583240    0.0003421566    
0.0827673150    0.0188783250    0.0003356180    
0.0829899760    0.0194651610    0.0003401877    
0.0832126370    0.0197958900    0.0003446022    
0.0834352980    0.0192834570    0.0003393524    
0.0836579590    0.0194711930    0.0003402412    
0.0838806200    0.0200060480    0.0003459618    
0.0841032810    0.0191439370    0.0003363247    
0.0843259420    0.0193902900    0.0003374394    
0.0845486030    0.0199716770    0.0003424611    
0.0847712640    0.0187544370    0.0003298384    
0.0849939250    0.0197220920    0.0003388295    
0.0852165860    0.0195053200    0.0003374037    
0.0854392470    0.0199450630    0.0003379548    
0.0856619080    0.0197169380    0.0003384913    
0.0858845690    0.0196258910    0.0003346673    
0.0861072300    0.0194349220    0.0003353342    
0.0863298910    0.0193992790    0.0003367808    
0.0865525520    0.0195713610    0.0003353503    
0.0867752130    0.0193642140    0.0003308793    
0.0869978740    0.0190879870    0.0003293481    
0.0872205350    0.0194362200    0.0003319159    
0.0874431960    0.0202071250    0.0003384346    
0.0876658570    0.0193973000    0.0003328568    
0.0878885180    0.0193836340    0.0003333100    
0.0881111790    0.0189566160    0.0003291952    
0.0883338400    0.0193103180    0.0003273876    
0.0885565010    0.0196608290    0.0003348252    
0.0887791620    0.0195875240    0.0003298666    
0.0890018230    0.0193407030    0.0003309611    
0.0892244840    0.0197417990    0.0003349437    
0.0894471450    0.0193612500    0.0003302987    
0.0896698060    0.0192657950    0.0003282406    
0.0898924670    0.0200431170    0.0003363488    
0.0901151280    0.0188723770    0.0003228525    
0.0903377890    0.0196950230    0.0003325743    
0.0905604500    0.0191752330    0.0003266503    
0.0907831110    0.0196502380    0.0003298487    
0.0910057720    0.0197304200    0.0003320378    
0.0912284330    0.0194246310    0.0003247376    
0.0914510940    0.0194162130    0.0003282877    
0.0916737550    0.0194967060    0.0003281511    
0.0918964160    0.0195701040    0.0003301355    
0.0921190770    0.0196443850    0.0003277708    
0.0923417380    0.0195400920    0.0003270337    
0.0925643990    0.0198040520    0.0003284295    
0.0927870600    0.0191925230    0.0003246448    
0.0930097210    0.0189749600    0.0003200503    
0.0932323820    0.0194685900    0.0003265696    
