# Diamond Light Source Ltd.
# Data extracted from: /dls/b21/data/2018/cm19678-3/processed/b21-386631_00658.dat
q(1/A)          Column          Error           
0.0035000000    2.1064143000    0.0247317590    
0.0037226610    1.8143892000    0.0224701850    
0.0039453220    1.6063506000    0.0192339390    
0.0041679830    1.2500105000    0.0139338030    
0.0043906440    0.9593220800    0.0116756320    
0.0046133050    0.7662211700    0.0100170330    
0.0048359660    0.5831590900    0.0082661490    
0.0050586270    0.4638891800    0.0072464994    
0.0052812880    0.4201532600    0.0065204725    
0.0055039490    0.3667816300    0.0057928135    
0.0057266100    0.3234906800    0.0052629688    
0.0059492710    0.2648376900    0.0047620048    
0.0061719320    0.2250099200    0.0042296891    
0.0063945930    0.2007694500    0.0040437954    
0.0066172539    0.1792487900    0.0035878473    
0.0068399149    0.1654380000    0.0033925742    
0.0070625759    0.1440700200    0.0031334382    
0.0072852369    0.1269622600    0.0028975038    
0.0075078979    0.1090861600    0.0026725889    
0.0077305589    0.0966527880    0.0024677531    
0.0079532199    0.0957695460    0.0024224116    
0.0081758809    0.0879472420    0.0023429700    
0.0083985419    0.0830228140    0.0021232137    
0.0086212029    0.0761268830    0.0020331248    
0.0088438639    0.0736265440    0.0019833977    
0.0090665249    0.0659900520    0.0018135706    
0.0092891859    0.0651042620    0.0018801817    
0.0095118469    0.0587027290    0.0017169238    
0.0097345079    0.0553247200    0.0016188172    
0.0099571689    0.0554745650    0.0015875817    
0.0101798300    0.0507040340    0.0015177856    
0.0104024910    0.0490978990    0.0014884987    
0.0106251520    0.0463878470    0.0014517484    
0.0108478130    0.0451570410    0.0013949056    
0.0110704740    0.0431971400    0.0012989051    
0.0112931350    0.0427047990    0.0012952748    
0.0115157960    0.0392571590    0.0012346484    
0.0117384570    0.0397291180    0.0012313558    
0.0119611180    0.0366564540    0.0011861750    
0.0121837790    0.0352490580    0.0011436305    
0.0124064400    0.0342798120    0.0010807853    
0.0126291010    0.0352213850    0.0010818162    
0.0128517620    0.0356312570    0.0010908096    
0.0130744230    0.0321436610    0.0010283668    
0.0132970840    0.0314716990    0.0010125853    
0.0135197450    0.0325392610    0.0010148717    
0.0137424060    0.0315472320    0.0009853700    
0.0139650670    0.0305988220    0.0009488292    
0.0141877280    0.0316503400    0.0009671273    
0.0144103890    0.0291697350    0.0009124457    
0.0146330500    0.0283496170    0.0008938162    
0.0148557110    0.0274417160    0.0008757003    
0.0150783720    0.0256707400    0.0008399723    
0.0153010330    0.0272227560    0.0008527957    
0.0155236940    0.0265039880    0.0008364584    
0.0157463550    0.0266387080    0.0008240527    
0.0159690160    0.0265633990    0.0008197643    
0.0161916770    0.0281910370    0.0008397482    
0.0164143380    0.0257756020    0.0008090508    
0.0166369990    0.0262381560    0.0007911101    
0.0168596600    0.0253794600    0.0007712020    
0.0170823210    0.0248728000    0.0007568552    
0.0173049820    0.0246353310    0.0007545357    
0.0175276430    0.0238832410    0.0007507632    
0.0177503040    0.0242275080    0.0007368785    
0.0179729650    0.0244523740    0.0007329485    
0.0181956260    0.0241578750    0.0007145549    
0.0184182870    0.0244750480    0.0007158406    
0.0186409480    0.0247010410    0.0007236895    
0.0188636090    0.0233444800    0.0006991120    
0.0190862700    0.0237098340    0.0007034599    
0.0193089310    0.0228661460    0.0006897538    
0.0195315920    0.0222498270    0.0006572556    
0.0197542530    0.0225483650    0.0006626143    
0.0199769140    0.0226262600    0.0006637579    
0.0201995750    0.0225269290    0.0006519283    
0.0204222360    0.0220516890    0.0006505518    
0.0206448970    0.0220420740    0.0006457873    
0.0208675580    0.0223777620    0.0006372871    
0.0210902190    0.0214241160    0.0006295767    
0.0213128800    0.0219807990    0.0006290507    
0.0215355410    0.0230771950    0.0006368698    
0.0217582020    0.0227081090    0.0006317565    
0.0219808630    0.0231919410    0.0006376130    
0.0222035240    0.0201915050    0.0005895487    
0.0224261850    0.0211018270    0.0005973279    
0.0226488460    0.0215689070    0.0005993676    
0.0228715070    0.0217601860    0.0006005238    
0.0230941680    0.0215613200    0.0005977735    
0.0233168290    0.0216189000    0.0006000622    
0.0235394900    0.0210954780    0.0005862117    
0.0237621510    0.0206382020    0.0005642139    
0.0239848120    0.0212116370    0.0005726604    
0.0242074730    0.0209038470    0.0005639399    
0.0244301340    0.0209363330    0.0005650220    
0.0246527950    0.0226305690    0.0005928785    
0.0248754560    0.0225598210    0.0005786472    
0.0250981170    0.0202752240    0.0005497892    
0.0253207780    0.0219449580    0.0005549021    
0.0255434390    0.0205956740    0.0005433099    
0.0257661000    0.0207724090    0.0005474010    
0.0259887610    0.0207568640    0.0005413811    
0.0262114220    0.0200938220    0.0005355022    
0.0264340830    0.0197729230    0.0005239814    
0.0266567440    0.0215727700    0.0005439282    
0.0268794050    0.0213698300    0.0005391542    
0.0271020660    0.0210757190    0.0005332635    
0.0273247270    0.0203034090    0.0005202583    
0.0275473880    0.0205546440    0.0005224256    
0.0277700490    0.0204566990    0.0005180987    
0.0279927100    0.0208749050    0.0005188013    
0.0282153710    0.0206877940    0.0005189819    
0.0284380320    0.0209505250    0.0005192395    
0.0286606930    0.0199609480    0.0005024903    
0.0288833540    0.0209256890    0.0005154674    
0.0291060150    0.0202269690    0.0005063075    
0.0293286760    0.0200615220    0.0004972064    
0.0295513370    0.0195546510    0.0004855396    
0.0297739980    0.0200492200    0.0004970541    
0.0299966590    0.0208345740    0.0004980416    
0.0302193200    0.0211153580    0.0005086931    
0.0304419810    0.0196064240    0.0004910822    
0.0306646420    0.0200717870    0.0004828521    
0.0308873030    0.0197951260    0.0004774417    
0.0311099640    0.0197128520    0.0004776856    
0.0313326250    0.0203199810    0.0004796131    
0.0315552860    0.0205016100    0.0004879953    
0.0317779470    0.0214914810    0.0005000724    
0.0320006080    0.0206593430    0.0004791559    
0.0322232690    0.0206981950    0.0004816139    
0.0324459300    0.0213838710    0.0004858716    
0.0326685910    0.0204991810    0.0004749305    
0.0328912520    0.0207127080    0.0004789786    
0.0331139130    0.0205010360    0.0004703260    
0.0333365740    0.0200913780    0.0004671150    
0.0335592350    0.0216562470    0.0004803021    
0.0337818960    0.0206858600    0.0004690442    
0.0340045570    0.0202067390    0.0004628442    
0.0342272170    0.0201948970    0.0004608834    
0.0344498780    0.0199735270    0.0004601658    
0.0346725390    0.0198737470    0.0004505141    
0.0348952000    0.0201484790    0.0004515508    
0.0351178610    0.0202414270    0.0004546627    
0.0353405220    0.0198853900    0.0004485934    
0.0355631830    0.0193743150    0.0004411235    
0.0357858440    0.0200472560    0.0004487192    
0.0360085050    0.0202090010    0.0004518870    
0.0362311660    0.0192775780    0.0004361041    
0.0364538270    0.0210760030    0.0004523331    
0.0366764880    0.0200469570    0.0004408321    
0.0368991490    0.0203923430    0.0004423720    
0.0371218100    0.0206193260    0.0004435546    
0.0373444710    0.0199397980    0.0004409345    
0.0375671320    0.0204748120    0.0004461601    
0.0377897930    0.0196959940    0.0004262643    
0.0380124540    0.0194581750    0.0004263414    
0.0382351150    0.0198692110    0.0004308210    
0.0384577760    0.0203030690    0.0004312974    
0.0386804370    0.0192001680    0.0004226201    
0.0389030980    0.0200832080    0.0004289561    
0.0391257590    0.0195674320    0.0004205377    
0.0393484200    0.0192025330    0.0004151960    
0.0395710810    0.0196323700    0.0004203828    
0.0397937420    0.0197854110    0.0004220182    
0.0400164030    0.0192751730    0.0004182356    
0.0402390640    0.0195692340    0.0004158024    
0.0404617250    0.0195311020    0.0004129465    
0.0406843860    0.0196693000    0.0004104010    
0.0409070470    0.0197839970    0.0004158836    
0.0411297080    0.0202604660    0.0004167903    
0.0413523690    0.0200806470    0.0004160061    
0.0415750300    0.0199060890    0.0004177124    
0.0417976910    0.0196716010    0.0004045052    
0.0420203520    0.0198532300    0.0004078953    
0.0422430130    0.0203247110    0.0004142727    
0.0424656740    0.0197990870    0.0004035591    
0.0426883350    0.0203284070    0.0004109475    
0.0429109960    0.0191097580    0.0003996843    
0.0431336570    0.0202408150    0.0004055469    
0.0433563180    0.0202774150    0.0004094151    
0.0435789790    0.0197574020    0.0003977821    
0.0438016400    0.0192685970    0.0003949677    
0.0440243010    0.0196807700    0.0003951197    
0.0442469620    0.0199895850    0.0004005937    
0.0444696230    0.0201334140    0.0004005906    
0.0446922840    0.0196653940    0.0003947315    
0.0449149450    0.0190737030    0.0003835509    
0.0451376060    0.0200536260    0.0003981371    
0.0453602670    0.0194728420    0.0003882165    
0.0455829280    0.0196054330    0.0003890855    
0.0458055890    0.0196238280    0.0003915380    
0.0460282500    0.0201293790    0.0003917675    
0.0462509110    0.0197442200    0.0003855881    
0.0464735720    0.0199248340    0.0003875664    
0.0466962330    0.0203041910    0.0003930171    
0.0469188940    0.0195765230    0.0003848163    
0.0471415550    0.0199691840    0.0003906525    
0.0473642160    0.0197928000    0.0003834777    
0.0475868770    0.0196628370    0.0003803178    
0.0478095380    0.0197973840    0.0003799469    
0.0480321990    0.0195766300    0.0003786504    
0.0482548600    0.0194644970    0.0003759194    
0.0484775210    0.0192457260    0.0003775123    
0.0487001820    0.0199877550    0.0003790894    
0.0489228430    0.0195999920    0.0003751925    
0.0491455040    0.0199743710    0.0003761392    
0.0493681650    0.0195625820    0.0003754406    
0.0495908260    0.0193973790    0.0003675619    
0.0498134870    0.0198110300    0.0003749964    
0.0500361480    0.0197487020    0.0003734155    
0.0502588090    0.0197093750    0.0003674540    
0.0504814700    0.0200101010    0.0003750869    
0.0507041310    0.0196950050    0.0003676976    
0.0509267920    0.0194291530    0.0003667184    
0.0511494530    0.0196353280    0.0003662008    
0.0513721140    0.0193432470    0.0003666678    
0.0515947750    0.0196728750    0.0003648760    
0.0518174360    0.0196973410    0.0003629036    
0.0520400970    0.0195438230    0.0003589801    
0.0522627580    0.0200450780    0.0003666442    
0.0524854190    0.0187229440    0.0003572274    
0.0527080800    0.0199207390    0.0003713300    
0.0529307410    0.0197938860    0.0003718842    
0.0531534020    0.0191506230    0.0003644599    
0.0533760630    0.0194312390    0.0003682696    
0.0535987240    0.0183997260    0.0003566883    
0.0538213850    0.0198545340    0.0003748141    
0.0540440460    0.0200034780    0.0003744368    
0.0542667070    0.0196406130    0.0003735821    
0.0544893680    0.0198678390    0.0003759371    
0.0547120290    0.0197859930    0.0003725918    
0.0549346900    0.0196101550    0.0003711277    
0.0551573510    0.0195712680    0.0003751240    
0.0553800120    0.0200527760    0.0003764825    
0.0556026730    0.0198177260    0.0003820296    
0.0558253340    0.0193946860    0.0003810947    
0.0560479950    0.0195294940    0.0003824170    
0.0562706560    0.0195272540    0.0003860921    
0.0564933170    0.0197125270    0.0003912880    
0.0567159780    0.0196975770    0.0003864499    
0.0569386390    0.0196946320    0.0003924822    
0.0571613000    0.0194322440    0.0003814646    
0.0573839610    0.0193170980    0.0003771749    
0.0576066220    0.0191057680    0.0003761444    
0.0578292830    0.0193694280    0.0003774778    
0.0580519440    0.0201649130    0.0003866445    
0.0582746050    0.0198478460    0.0003819013    
0.0584972660    0.0194263790    0.0003763785    
0.0587199270    0.0194369150    0.0003732351    
0.0589425880    0.0205206370    0.0003812559    
0.0591652490    0.0191001060    0.0003699876    
0.0593879100    0.0197353860    0.0003732972    
0.0596105710    0.0197430930    0.0003729762    
0.0598332320    0.0197021990    0.0003757745    
0.0600558930    0.0198267920    0.0003745574    
0.0602785540    0.0202862270    0.0003784718    
0.0605012150    0.0194344250    0.0003696602    
0.0607238760    0.0193462190    0.0003661326    
0.0609465370    0.0196661060    0.0003720533    
0.0611691980    0.0196013950    0.0003720294    
0.0613918590    0.0192655390    0.0003648017    
0.0616145200    0.0196887640    0.0003714861    
0.0618371810    0.0202935150    0.0003734440    
0.0620598420    0.0192473370    0.0003640657    
0.0622825030    0.0185911780    0.0003632781    
0.0625051640    0.0193009480    0.0003649492    
0.0627278250    0.0199293770    0.0003700793    
0.0629504860    0.0199041370    0.0003668381    
0.0631731470    0.0195543310    0.0003680988    
0.0633958080    0.0197380030    0.0003719520    
0.0636184690    0.0198520710    0.0003782205    
0.0638411300    0.0189094550    0.0003677463    
0.0640637910    0.0190313300    0.0003715243    
0.0642864520    0.0192018050    0.0003723770    
0.0645091130    0.0201570910    0.0003848708    
0.0647317740    0.0190452930    0.0003745186    
0.0649544350    0.0191871260    0.0003754970    
0.0651770960    0.0194362880    0.0003758656    
0.0653997570    0.0190770690    0.0003715685    
0.0656224180    0.0201631970    0.0003828302    
0.0658450790    0.0195877370    0.0003719042    
0.0660677400    0.0200966480    0.0003783076    
0.0662904010    0.0199886530    0.0003817939    
0.0665130620    0.0190565340    0.0003711686    
0.0667357230    0.0198150870    0.0003852131    
0.0669583840    0.0191099380    0.0003770311    
0.0671810450    0.0193703310    0.0003774954    
0.0674037060    0.0192713980    0.0003829090    
0.0676263670    0.0198674090    0.0003859387    
0.0678490280    0.0199509990    0.0003843845    
0.0680716890    0.0194299170    0.0003801757    
0.0682943500    0.0200399160    0.0003818686    
0.0685170110    0.0194767400    0.0003726284    
0.0687396720    0.0198768650    0.0003754364    
0.0689623330    0.0187716360    0.0003636931    
0.0691849940    0.0197542380    0.0003756754    
0.0694076550    0.0199543970    0.0003773723    
0.0696303160    0.0197380220    0.0003723492    
0.0698529770    0.0200260980    0.0003742705    
0.0700756380    0.0191062710    0.0003608813    
0.0702982990    0.0195873710    0.0003693758    
0.0705209600    0.0200950860    0.0003714313    
0.0707436210    0.0196252350    0.0003653776    
0.0709662820    0.0193784760    0.0003674016    
0.0711889430    0.0201693550    0.0003702202    
0.0714116040    0.0193033390    0.0003629242    
0.0716342650    0.0200808980    0.0003686586    
0.0718569260    0.0196374950    0.0003630974    
0.0720795870    0.0195530380    0.0003637814    
0.0723022480    0.0193886470    0.0003628009    
0.0725249090    0.0200867820    0.0003648526    
0.0727475700    0.0195146350    0.0003626905    
0.0729702310    0.0200603450    0.0003647938    
0.0731928920    0.0203213170    0.0003686265    
0.0734155530    0.0199139520    0.0003641849    
0.0736382140    0.0198498480    0.0003612648    
0.0738608750    0.0195077320    0.0003604517    
0.0740835360    0.0193579760    0.0003581741    
0.0743061970    0.0195252530    0.0003546530    
0.0745288580    0.0191267010    0.0003546241    
0.0747515190    0.0192683360    0.0003566376    
0.0749741800    0.0194057030    0.0003545937    
0.0751968410    0.0184019100    0.0003480121    
0.0754195020    0.0197024940    0.0003579906    
0.0756421630    0.0198296030    0.0003562076    
0.0758648240    0.0191213680    0.0003506295    
0.0760874850    0.0191094310    0.0003503517    
0.0763101460    0.0198933890    0.0003571231    
0.0765328070    0.0195174380    0.0003573520    
0.0767554680    0.0198408100    0.0003578553    
0.0769781290    0.0198877930    0.0003562199    
0.0772007900    0.0191117340    0.0003463999    
0.0774234510    0.0193361160    0.0003504093    
0.0776461120    0.0199269210    0.0003553849    
0.0778687730    0.0197451100    0.0003525912    
0.0780914340    0.0200602220    0.0003579330    
0.0783140950    0.0198184120    0.0003501246    
0.0785367560    0.0195557370    0.0003534041    
0.0787594170    0.0196773320    0.0003513249    
0.0789820780    0.0193706510    0.0003467903    
0.0792047390    0.0194787740    0.0003488938    
0.0794274000    0.0188311940    0.0003444987    
0.0796500610    0.0195963090    0.0003479975    
0.0798727220    0.0191036830    0.0003432784    
0.0800953830    0.0199185140    0.0003497168    
0.0803180440    0.0192631000    0.0003463108    
0.0805407050    0.0201221600    0.0003536195    
0.0807633660    0.0194149140    0.0003470270    
0.0809860270    0.0193764610    0.0003454030    
0.0812086880    0.0198659750    0.0003467164    
0.0814313490    0.0198460810    0.0003481233    
0.0816540100    0.0199564150    0.0003482949    
0.0818766710    0.0196873690    0.0003467290    
0.0820993320    0.0197738680    0.0003468566    
0.0823219930    0.0202440450    0.0003524036    
0.0825446540    0.0196667980    0.0003448193    
0.0827673150    0.0198090370    0.0003437391    
0.0829899760    0.0191144970    0.0003370582    
0.0832126370    0.0200357260    0.0003466306    
0.0834352980    0.0195163800    0.0003413436    
0.0836579590    0.0195960130    0.0003412780    
0.0838806200    0.0198564050    0.0003446129    
0.0841032810    0.0196460840    0.0003406551    
0.0843259420    0.0194959150    0.0003383056    
0.0845486030    0.0195370380    0.0003386625    
0.0847712640    0.0193518300    0.0003349993    
0.0849939250    0.0193087200    0.0003352087    
0.0852165860    0.0198961260    0.0003407151    
0.0854392470    0.0194180350    0.0003334090    
0.0856619080    0.0197632070    0.0003388366    
0.0858845690    0.0194088160    0.0003327606    
0.0861072300    0.0192091960    0.0003333303    
0.0863298910    0.0194868800    0.0003374889    
0.0865525520    0.0196113460    0.0003356415    
0.0867752130    0.0199122090    0.0003354773    
0.0869978740    0.0198547670    0.0003358468    
0.0872205350    0.0194416240    0.0003319114    
0.0874431960    0.0187673450    0.0003261051    
0.0876658570    0.0195569750    0.0003341730    
0.0878885180    0.0192860460    0.0003324192    
0.0881111790    0.0194080310    0.0003330409    
0.0883338400    0.0191657070    0.0003261097    
0.0885565010    0.0196605320    0.0003347716    
0.0887791620    0.0190706300    0.0003254355    
0.0890018230    0.0192498780    0.0003301327    
0.0892244840    0.0191563160    0.0003298893    
0.0894471450    0.0201101800    0.0003365750    
0.0896698060    0.0194500020    0.0003297558    
0.0898924670    0.0200821450    0.0003366248    
0.0901151280    0.0196175310    0.0003291143    
0.0903377890    0.0199584980    0.0003347403    
0.0905604500    0.0191360070    0.0003262662    
0.0907831110    0.0192899950    0.0003267614    
0.0910057720    0.0201824590    0.0003357686    
0.0912284330    0.0197823320    0.0003276640    
0.0914510940    0.0195878580    0.0003296853    
0.0916737550    0.0196564030    0.0003294421    
0.0918964160    0.0194360820    0.0003289530    
0.0921190770    0.0195017120    0.0003265286    
0.0923417380    0.0202509300    0.0003328783    
0.0925643990    0.0189104770    0.0003208855    
0.0927870600    0.0194556670    0.0003268129    
0.0930097210    0.0193739200    0.0003233481    
0.0932323820    0.0201800430    0.0003324324    
