# Diamond Light Source Ltd.
# Data extracted from: /dls/b21/data/2018/cm19678-3/processed/b21-386631_00659.dat
q(1/A)          Column          Error           
0.0035000000    2.0437480000    0.0243648880    
0.0037226610    1.8511421000    0.0227001610    
0.0039453220    1.5879604000    0.0191265010    
0.0041679830    1.2861345000    0.0141359070    
0.0043906440    0.9459750100    0.0115959310    
0.0046133050    0.7562421500    0.0099531397    
0.0048359660    0.5954131100    0.0083538473    
0.0050586270    0.4604101900    0.0072203998    
0.0052812880    0.4401241500    0.0066746798    
0.0055039490    0.3787017200    0.0058871084    
0.0057266100    0.3171675900    0.0052120905    
0.0059492710    0.2694597200    0.0048041272    
0.0061719320    0.2194331300    0.0041775952    
0.0063945930    0.2037650400    0.0040744859    
0.0066172539    0.1881405600    0.0036763316    
0.0068399149    0.1703609700    0.0034432171    
0.0070625759    0.1356616200    0.0030410983    
0.0072852369    0.1286554800    0.0029172153    
0.0075078979    0.1125915500    0.0027156129    
0.0077305589    0.0984476430    0.0024909488    
0.0079532199    0.0983736440    0.0024555074    
0.0081758809    0.0888487660    0.0023553148    
0.0083985419    0.0839720440    0.0021356495    
0.0086212029    0.0727830250    0.0019882807    
0.0088438639    0.0723133140    0.0019659360    
0.0090665249    0.0638169030    0.0017837367    
0.0092891859    0.0615940220    0.0018290772    
0.0095118469    0.0609814480    0.0017502029    
0.0097345079    0.0592272630    0.0016752000    
0.0099571689    0.0550828150    0.0015822125    
0.0101798300    0.0480838520    0.0014782791    
0.0104024910    0.0474429850    0.0014634256    
0.0106251520    0.0486746920    0.0014873339    
0.0108478130    0.0455159260    0.0014006558    
0.0110704740    0.0414134110    0.0012720028    
0.0112931350    0.0422858130    0.0012891058    
0.0115157960    0.0415222310    0.0012699652    
0.0117384570    0.0382526200    0.0012084462    
0.0119611180    0.0387412400    0.0012196296    
0.0121837790    0.0400108650    0.0012186207    
0.0124064400    0.0362333910    0.0011113282    
0.0126291010    0.0347337860    0.0010744692    
0.0128517620    0.0354419310    0.0010880771    
0.0130744230    0.0327460660    0.0010381201    
0.0132970840    0.0329480320    0.0010362246    
0.0135197450    0.0321061170    0.0010082513    
0.0137424060    0.0310952480    0.0009784381    
0.0139650670    0.0299314390    0.0009385710    
0.0141877280    0.0291770460    0.0009287156    
0.0144103890    0.0299782420    0.0009251486    
0.0146330500    0.0293450750    0.0009095150    
0.0148557110    0.0289038430    0.0008988668    
0.0150783720    0.0277407340    0.0008733179    
0.0153010330    0.0273381300    0.0008547340    
0.0155236940    0.0264330240    0.0008354680    
0.0157463550    0.0281004790    0.0008464921    
0.0159690160    0.0256859510    0.0008062368    
0.0161916770    0.0271488940    0.0008242089    
0.0164143380    0.0261138650    0.0008144691    
0.0166369990    0.0252919170    0.0007768351    
0.0168596600    0.0245903480    0.0007592363    
0.0170823210    0.0252952240    0.0007633740    
0.0173049820    0.0260300420    0.0007757212    
0.0175276430    0.0241975770    0.0007558053    
0.0177503040    0.0249300470    0.0007476024    
0.0179729650    0.0251852200    0.0007439666    
0.0181956260    0.0232985760    0.0007018407    
0.0184182870    0.0236030560    0.0007030825    
0.0186409480    0.0226514420    0.0006931228    
0.0188636090    0.0217810070    0.0006754003    
0.0190862700    0.0227985960    0.0006899169    
0.0193089310    0.0232479000    0.0006955961    
0.0195315920    0.0222567580    0.0006574604    
0.0197542530    0.0236656290    0.0006789377    
0.0199769140    0.0234319020    0.0006755768    
0.0201995750    0.0227415460    0.0006551284    
0.0204222360    0.0225385100    0.0006577959    
0.0206448970    0.0222382020    0.0006487550    
0.0208675580    0.0220397940    0.0006325548    
0.0210902190    0.0222635930    0.0006418927    
0.0213128800    0.0214294010    0.0006212073    
0.0215355410    0.0226975930    0.0006317084    
0.0217582020    0.0220998340    0.0006233348    
0.0219808630    0.0220067670    0.0006212042    
0.0222035240    0.0222985030    0.0006196420    
0.0224261850    0.0211591420    0.0005982317    
0.0226488460    0.0209925010    0.0005913967    
0.0228715070    0.0215514500    0.0005977297    
0.0230941680    0.0221151120    0.0006054959    
0.0233168290    0.0210591690    0.0005923354    
0.0235394900    0.0206620840    0.0005802491    
0.0237621510    0.0212618100    0.0005727639    
0.0239848120    0.0221616220    0.0005854347    
0.0242074730    0.0208951410    0.0005639103    
0.0244301340    0.0211716560    0.0005682770    
0.0246527950    0.0221248930    0.0005863085    
0.0248754560    0.0203398570    0.0005495252    
0.0250981170    0.0216237010    0.0005678662    
0.0253207780    0.0212079030    0.0005455889    
0.0255434390    0.0210035220    0.0005487485    
0.0257661000    0.0220198410    0.0005636856    
0.0259887610    0.0209328270    0.0005437557    
0.0262114220    0.0209137930    0.0005464041    
0.0264340830    0.0211541730    0.0005420584    
0.0266567440    0.0211542120    0.0005387095    
0.0268794050    0.0213628800    0.0005391505    
0.0271020660    0.0205559030    0.0005267282    
0.0273247270    0.0206431180    0.0005246743    
0.0275473880    0.0202954010    0.0005192015    
0.0277700490    0.0207649640    0.0005220690    
0.0279927100    0.0202236250    0.0005107237    
0.0282153710    0.0209937770    0.0005228873    
0.0284380320    0.0197984920    0.0005048402    
0.0286606930    0.0211945520    0.0005178653    
0.0288833540    0.0211862400    0.0005187473    
0.0291060150    0.0213108560    0.0005197770    
0.0293286760    0.0211401890    0.0005104777    
0.0295513370    0.0190662970    0.0004795130    
0.0297739980    0.0208443720    0.0005068938    
0.0299966590    0.0198287840    0.0004859471    
0.0302193200    0.0203618890    0.0004996125    
0.0304419810    0.0205476340    0.0005028096    
0.0306646420    0.0202755660    0.0004853726    
0.0308873030    0.0195478720    0.0004745244    
0.0311099640    0.0202863620    0.0004846599    
0.0313326250    0.0206094080    0.0004830920    
0.0315552860    0.0198805570    0.0004806219    
0.0317779470    0.0198802840    0.0004810372    
0.0320006080    0.0200321320    0.0004718998    
0.0322232690    0.0202001980    0.0004758590    
0.0324459300    0.0192371240    0.0004609099    
0.0326685910    0.0209128160    0.0004797729    
0.0328912520    0.0208742770    0.0004809180    
0.0331139130    0.0202160010    0.0004671177    
0.0333365740    0.0200541820    0.0004667551    
0.0335592350    0.0206933270    0.0004695758    
0.0337818960    0.0201710070    0.0004632425    
0.0340045570    0.0204145280    0.0004652903    
0.0342272170    0.0201591030    0.0004605464    
0.0344498780    0.0206584670    0.0004680622    
0.0346725390    0.0202272750    0.0004545742    
0.0348952000    0.0208329920    0.0004592286    
0.0351178610    0.0200229840    0.0004522731    
0.0353405220    0.0208228950    0.0004591176    
0.0355631830    0.0195310520    0.0004429733    
0.0357858440    0.0202343440    0.0004508784    
0.0360085050    0.0206196030    0.0004565257    
0.0362311660    0.0195204340    0.0004389109    
0.0364538270    0.0201114690    0.0004419303    
0.0366764880    0.0194810850    0.0004346335    
0.0368991490    0.0196499440    0.0004343126    
0.0371218100    0.0198717300    0.0004355072    
0.0373444710    0.0200923130    0.0004426865    
0.0375671320    0.0202380610    0.0004436422    
0.0377897930    0.0191207550    0.0004200589    
0.0380124540    0.0199407980    0.0004316635    
0.0382351150    0.0196511370    0.0004285170    
0.0384577760    0.0206484950    0.0004350186    
0.0386804370    0.0193829500    0.0004246931    
0.0389030980    0.0201902780    0.0004301650    
0.0391257590    0.0200617360    0.0004258826    
0.0393484200    0.0201334690    0.0004252074    
0.0395710810    0.0190441990    0.0004141022    
0.0397937420    0.0201517480    0.0004259736    
0.0400164030    0.0198439990    0.0004244281    
0.0402390640    0.0201409380    0.0004218981    
0.0404617250    0.0203494170    0.0004215742    
0.0406843860    0.0196582970    0.0004103501    
0.0409070470    0.0198688660    0.0004168395    
0.0411297080    0.0200094760    0.0004142651    
0.0413523690    0.0198024100    0.0004131783    
0.0415750300    0.0203857670    0.0004227811    
0.0417976910    0.0200188650    0.0004081235    
0.0420203520    0.0193480500    0.0004027349    
0.0422430130    0.0195117190    0.0004059659    
0.0424656740    0.0203071740    0.0004087680    
0.0426883350    0.0199940270    0.0004076172    
0.0429109960    0.0194669190    0.0004034649    
0.0431336570    0.0201658390    0.0004048582    
0.0433563180    0.0192666510    0.0003991428    
0.0435789790    0.0202522380    0.0004027954    
0.0438016400    0.0203436110    0.0004058992    
0.0440243010    0.0198297330    0.0003966740    
0.0442469620    0.0197548990    0.0003982972    
0.0444696230    0.0196613090    0.0003959277    
0.0446922840    0.0197032230    0.0003951725    
0.0449149450    0.0197740110    0.0003905894    
0.0451376060    0.0198226650    0.0003958994    
0.0453602670    0.0195718120    0.0003892624    
0.0455829280    0.0200827120    0.0003938544    
0.0458055890    0.0198409310    0.0003937592    
0.0460282500    0.0196551390    0.0003871854    
0.0462509110    0.0193134820    0.0003814183    
0.0464735720    0.0196369390    0.0003848162    
0.0466962330    0.0188418280    0.0003786585    
0.0469188940    0.0197566550    0.0003866428    
0.0471415550    0.0198607360    0.0003896510    
0.0473642160    0.0191523780    0.0003772815    
0.0475868770    0.0202355580    0.0003858770    
0.0478095380    0.0194023740    0.0003761959    
0.0480321990    0.0196779680    0.0003796883    
0.0482548600    0.0199280930    0.0003804291    
0.0484775210    0.0193998690    0.0003790802    
0.0487001820    0.0189798980    0.0003694658    
0.0489228430    0.0198288130    0.0003774350    
0.0491455040    0.0201081290    0.0003774552    
0.0493681650    0.0191218040    0.0003712447    
0.0495908260    0.0200165280    0.0003734401    
0.0498134870    0.0191781660    0.0003690156    
0.0500361480    0.0203763870    0.0003793624    
0.0502588090    0.0202980030    0.0003729587    
0.0504814700    0.0190809260    0.0003663317    
0.0507041310    0.0197217410    0.0003680044    
0.0509267920    0.0198160170    0.0003704090    
0.0511494530    0.0196756040    0.0003666332    
0.0513721140    0.0191476460    0.0003648660    
0.0515947750    0.0196383870    0.0003646128    
0.0518174360    0.0192553670    0.0003588649    
0.0520400970    0.0198731050    0.0003620480    
0.0522627580    0.0193603600    0.0003603838    
0.0524854190    0.0197241910    0.0003667119    
0.0527080800    0.0198300100    0.0003705411    
0.0529307410    0.0191221120    0.0003655761    
0.0531534020    0.0197949110    0.0003705977    
0.0533760630    0.0198422360    0.0003722019    
0.0535987240    0.0191040490    0.0003635077    
0.0538213850    0.0200164340    0.0003763977    
0.0540440460    0.0198694870    0.0003732388    
0.0542667070    0.0197391370    0.0003745762    
0.0544893680    0.0200376880    0.0003775994    
0.0547120290    0.0198904160    0.0003736319    
0.0549346900    0.0196654450    0.0003717084    
0.0551573510    0.0199729390    0.0003790130    
0.0553800120    0.0199529650    0.0003756029    
0.0556026730    0.0188220230    0.0003723667    
0.0558253340    0.0198726370    0.0003858219    
0.0560479950    0.0196853910    0.0003840001    
0.0562706560    0.0189377160    0.0003802785    
0.0564933170    0.0191281950    0.0003855050    
0.0567159780    0.0199160700    0.0003886479    
0.0569386390    0.0192704480    0.0003882931    
0.0571613000    0.0192360490    0.0003795932    
0.0573839610    0.0193304830    0.0003773643    
0.0576066220    0.0194821020    0.0003798901    
0.0578292830    0.0196624510    0.0003803815    
0.0580519440    0.0197262410    0.0003824754    
0.0582746050    0.0196335100    0.0003798927    
0.0584972660    0.0200305760    0.0003822462    
0.0587199270    0.0198301090    0.0003770501    
0.0589425880    0.0193579030    0.0003703548    
0.0591652490    0.0195147040    0.0003740399    
0.0593879100    0.0192259230    0.0003685048    
0.0596105710    0.0198902090    0.0003744216    
0.0598332320    0.0195936280    0.0003747961    
0.0600558930    0.0192667170    0.0003692867    
0.0602785540    0.0191836250    0.0003681000    
0.0605012150    0.0195459810    0.0003707773    
0.0607238760    0.0192760010    0.0003655245    
0.0609465370    0.0194328430    0.0003698978    
0.0611691980    0.0196781340    0.0003728150    
0.0613918590    0.0198312380    0.0003701765    
0.0616145200    0.0196458180    0.0003711385    
0.0618371810    0.0190487120    0.0003618656    
0.0620598420    0.0202383870    0.0003733791    
0.0622825030    0.0191792340    0.0003690362    
0.0625051640    0.0191343920    0.0003634277    
0.0627278250    0.0193443930    0.0003646641    
0.0629504860    0.0189973300    0.0003584402    
0.0631731470    0.0191584010    0.0003644100    
0.0633958080    0.0197721980    0.0003723320    
0.0636184690    0.0193536900    0.0003735009    
0.0638411300    0.0194161310    0.0003726986    
0.0640637910    0.0192839300    0.0003740400    
0.0642864520    0.0196989970    0.0003772259    
0.0645091130    0.0193253740    0.0003769056    
0.0647317740    0.0191469980    0.0003755758    
0.0649544350    0.0191195940    0.0003748940    
0.0651770960    0.0196677400    0.0003781559    
0.0653997570    0.0197055990    0.0003776988    
0.0656224180    0.0192024480    0.0003736564    
0.0658450790    0.0195020150    0.0003711473    
0.0660677400    0.0196185010    0.0003738383    
0.0662904010    0.0195936690    0.0003780618    
0.0665130620    0.0198796400    0.0003791588    
0.0667357230    0.0189073540    0.0003763450    
0.0669583840    0.0195772320    0.0003816725    
0.0671810450    0.0196486500    0.0003802569    
0.0674037060    0.0193839490    0.0003840854    
0.0676263670    0.0195586200    0.0003829873    
0.0678490280    0.0189126830    0.0003743068    
0.0680716890    0.0189299800    0.0003753113    
0.0682943500    0.0197550010    0.0003792033    
0.0685170110    0.0194614130    0.0003725397    
0.0687396720    0.0193510450    0.0003704949    
0.0689623330    0.0193766150    0.0003695647    
0.0691849940    0.0197246590    0.0003754525    
0.0694076550    0.0193109650    0.0003712961    
0.0696303160    0.0197652500    0.0003726640    
0.0698529770    0.0198294240    0.0003724862    
0.0700756380    0.0198418010    0.0003678194    
0.0702982990    0.0196631510    0.0003701473    
0.0705209600    0.0195519420    0.0003664343    
0.0707436210    0.0199987990    0.0003688962    
0.0709662820    0.0190291530    0.0003641318    
0.0711889430    0.0200668750    0.0003693359    
0.0714116040    0.0192479230    0.0003624594    
0.0716342650    0.0203241100    0.0003709422    
0.0718569260    0.0190593410    0.0003577682    
0.0720795870    0.0202022980    0.0003698294    
0.0723022480    0.0199922820    0.0003684627    
0.0725249090    0.0195560760    0.0003600565    
0.0727475700    0.0193723700    0.0003614223    
0.0729702310    0.0197547130    0.0003620606    
0.0731928920    0.0188828400    0.0003553954    
0.0734155530    0.0196869770    0.0003621598    
0.0736382140    0.0198099920    0.0003609581    
0.0738608750    0.0197469890    0.0003627119    
0.0740835360    0.0197949060    0.0003622501    
0.0743061970    0.0199115230    0.0003581997    
0.0745288580    0.0192839320    0.0003561341    
0.0747515190    0.0195912860    0.0003596700    
0.0749741800    0.0197358180    0.0003576527    
0.0751968410    0.0196914380    0.0003600553    
0.0754195020    0.0192076200    0.0003535211    
0.0756421630    0.0207766840    0.0003646716    
0.0758648240    0.0201113460    0.0003596476    
0.0760874850    0.0201241630    0.0003595894    
0.0763101460    0.0200278470    0.0003583837    
0.0765328070    0.0193664410    0.0003560224    
0.0767554680    0.0191432430    0.0003515630    
0.0769781290    0.0195110440    0.0003528847    
0.0772007900    0.0188162260    0.0003437650    
0.0774234510    0.0194501250    0.0003514955    
0.0776461120    0.0194576250    0.0003512298    
0.0778687730    0.0191718230    0.0003474890    
0.0780914340    0.0196256600    0.0003540900    
0.0783140950    0.0199173970    0.0003510525    
0.0785367560    0.0196193260    0.0003540334    
0.0787594170    0.0194199280    0.0003490738    
0.0789820780    0.0198362610    0.0003509881    
0.0792047390    0.0198536600    0.0003522900    
0.0794274000    0.0189694490    0.0003458148    
0.0796500610    0.0197013220    0.0003489830    
0.0798727220    0.0191960200    0.0003441606    
0.0800953830    0.0201888260    0.0003521366    
0.0803180440    0.0193749750    0.0003473691    
0.0805407050    0.0195876090    0.0003489452    
0.0807633660    0.0197498150    0.0003500618    
0.0809860270    0.0198936970    0.0003500372    
0.0812086880    0.0196421480    0.0003448114    
0.0814313490    0.0197606370    0.0003474272    
0.0816540100    0.0192390400    0.0003420308    
0.0818766710    0.0198401040    0.0003481256    
0.0820993320    0.0195244090    0.0003447154    
0.0823219930    0.0198576170    0.0003490783    
0.0825446540    0.0195217340    0.0003435988    
0.0827673150    0.0191708110    0.0003382090    
0.0829899760    0.0199052460    0.0003440130    
0.0832126370    0.0195500660    0.0003424570    
0.0834352980    0.0192178880    0.0003387760    
0.0836579590    0.0192513360    0.0003383159    
0.0838806200    0.0196173000    0.0003425851    
0.0841032810    0.0196285700    0.0003405562    
0.0843259420    0.0192318620    0.0003360591    
0.0845486030    0.0194256780    0.0003377485    
0.0847712640    0.0197233210    0.0003382522    
0.0849939250    0.0200889540    0.0003419675    
0.0852165860    0.0194003890    0.0003364960    
0.0854392470    0.0194756230    0.0003339551    
0.0856619080    0.0196531420    0.0003379444    
0.0858845690    0.0196602590    0.0003349613    
0.0861072300    0.0193308990    0.0003344366    
0.0863298910    0.0194987970    0.0003376447    
0.0865525520    0.0195312630    0.0003350077    
0.0867752130    0.0193473760    0.0003307365    
0.0869978740    0.0192415410    0.0003306712    
0.0872205350    0.0196177270    0.0003334632    
0.0874431960    0.0192153130    0.0003300256    
0.0876658570    0.0193003230    0.0003320248    
0.0878885180    0.0194353410    0.0003337554    
0.0881111790    0.0192940260    0.0003321131    
0.0883338400    0.0199487580    0.0003327567    
0.0885565010    0.0196096360    0.0003343901    
0.0887791620    0.0196987540    0.0003308030    
0.0890018230    0.0193578170    0.0003311085    
0.0892244840    0.0203670300    0.0003402073    
0.0894471450    0.0201051750    0.0003365855    
0.0896698060    0.0199034550    0.0003336295    
0.0898924670    0.0191740090    0.0003289767    
0.0901151280    0.0200213070    0.0003325358    
0.0903377890    0.0191560180    0.0003279929    
0.0905604500    0.0192365660    0.0003271733    
0.0907831110    0.0191132870    0.0003253119    
0.0910057720    0.0197249590    0.0003319929    
0.0912284330    0.0188330010    0.0003197550    
0.0914510940    0.0192942220    0.0003272558    
0.0916737550    0.0191875330    0.0003255399    
0.0918964160    0.0196203520    0.0003305601    
0.0921190770    0.0195788840    0.0003272249    
0.0923417380    0.0197317870    0.0003286350    
0.0925643990    0.0190797690    0.0003223688    
0.0927870600    0.0194727100    0.0003270070    
0.0930097210    0.0194717270    0.0003242137    
0.0932323820    0.0192550740    0.0003247750    
