# Diamond Light Source Ltd.
# Data extracted from: /dls/b21/data/2018/cm19678-3/processed/b21-386631_00660.dat
q(1/A)          Column          Error           
0.0035000000    2.0905781000    0.0246411210    
0.0037226610    1.8687556000    0.0228066670    
0.0039453220    1.6034524000    0.0192185340    
0.0041679830    1.2838205000    0.0141224210    
0.0043906440    0.9569588400    0.0116624270    
0.0046133050    0.7881200500    0.0101602030    
0.0048359660    0.5846840200    0.0082777913    
0.0050586270    0.4642099600    0.0072497416    
0.0052812880    0.4154816700    0.0064847807    
0.0055039490    0.3675882800    0.0057997697    
0.0057266100    0.3180753600    0.0052192618    
0.0059492710    0.2595817300    0.0047149940    
0.0061719320    0.2224313600    0.0042058112    
0.0063945930    0.2018693200    0.0040552690    
0.0066172539    0.1791415900    0.0035871389    
0.0068399149    0.1647062200    0.0033854069    
0.0070625759    0.1433495200    0.0031259109    
0.0072852369    0.1250700300    0.0028761232    
0.0075078979    0.1118589800    0.0027066176    
0.0077305589    0.0990671980    0.0024986395    
0.0079532199    0.0952987400    0.0024166956    
0.0081758809    0.0927098760    0.0024058180    
0.0083985419    0.0809216160    0.0020963868    
0.0086212029    0.0764139140    0.0020371612    
0.0088438639    0.0700075390    0.0019342347    
0.0090665249    0.0606693540    0.0017390981    
0.0092891859    0.0623477000    0.0018401342    
0.0095118469    0.0612762140    0.0017543329    
0.0097345079    0.0568994020    0.0016418603    
0.0099571689    0.0517140810    0.0015329842    
0.0101798300    0.0516686480    0.0015323108    
0.0104024910    0.0478440780    0.0014695192    
0.0106251520    0.0468971540    0.0014598446    
0.0108478130    0.0466746380    0.0014182955    
0.0110704740    0.0439481600    0.0013102810    
0.0112931350    0.0395698980    0.0012469533    
0.0115157960    0.0435761520    0.0013009256    
0.0117384570    0.0398898860    0.0012339701    
0.0119611180    0.0382763530    0.0012122243    
0.0121837790    0.0363695820    0.0011617837    
0.0124064400    0.0366384610    0.0011174626    
0.0126291010    0.0336000580    0.0010567310    
0.0128517620    0.0332002550    0.0010530481    
0.0130744230    0.0337955510    0.0010545673    
0.0132970840    0.0328141260    0.0010340609    
0.0135197450    0.0320393270    0.0010071476    
0.0137424060    0.0302607170    0.0009651670    
0.0139650670    0.0295750680    0.0009329164    
0.0141877280    0.0293512410    0.0009314335    
0.0144103890    0.0295753340    0.0009188609    
0.0146330500    0.0298210680    0.0009168122    
0.0148557110    0.0277547510    0.0008807704    
0.0150783720    0.0288373480    0.0008903640    
0.0153010330    0.0270412480    0.0008500343    
0.0155236940    0.0275127210    0.0008523141    
0.0157463550    0.0272050540    0.0008328511    
0.0159690160    0.0243420830    0.0007848202    
0.0161916770    0.0245439500    0.0007836280    
0.0164143380    0.0261110420    0.0008143810    
0.0166369990    0.0266252150    0.0007970050    
0.0168596600    0.0248923990    0.0007638437    
0.0170823210    0.0249239280    0.0007577097    
0.0173049820    0.0249639480    0.0007596287    
0.0175276430    0.0250211300    0.0007685179    
0.0177503040    0.0256895190    0.0007588635    
0.0179729650    0.0248968320    0.0007396549    
0.0181956260    0.0240359500    0.0007128219    
0.0184182870    0.0239983830    0.0007089077    
0.0186409480    0.0234548560    0.0007052697    
0.0188636090    0.0238936940    0.0007073600    
0.0190862700    0.0235685270    0.0007014318    
0.0193089310    0.0225378270    0.0006848537    
0.0195315920    0.0228951840    0.0006667872    
0.0197542530    0.0226892810    0.0006647491    
0.0199769140    0.0225529580    0.0006627492    
0.0201995750    0.0221163570    0.0006460257    
0.0204222360    0.0228432090    0.0006621915    
0.0206448970    0.0219519360    0.0006445310    
0.0208675580    0.0223278550    0.0006366408    
0.0210902190    0.0234454880    0.0006586747    
0.0213128800    0.0234797630    0.0006502119    
0.0215355410    0.0217458460    0.0006182889    
0.0217582020    0.0221326030    0.0006237630    
0.0219808630    0.0212855190    0.0006109067    
0.0222035240    0.0213835880    0.0006067640    
0.0224261850    0.0213090620    0.0006003148    
0.0226488460    0.0224062390    0.0006109530    
0.0228715070    0.0216983060    0.0005997303    
0.0230941680    0.0214330950    0.0005960540    
0.0233168290    0.0206903960    0.0005870945    
0.0235394900    0.0207576090    0.0005815574    
0.0237621510    0.0214137890    0.0005747762    
0.0239848120    0.0215406850    0.0005771437    
0.0242074730    0.0220493700    0.0005792446    
0.0244301340    0.0217336800    0.0005757392    
0.0246527950    0.0201339620    0.0005592767    
0.0248754560    0.0212135130    0.0005611726    
0.0250981170    0.0215617180    0.0005670211    
0.0253207780    0.0210933370    0.0005440838    
0.0255434390    0.0213166290    0.0005527936    
0.0257661000    0.0203726430    0.0005421632    
0.0259887610    0.0212271510    0.0005475354    
0.0262114220    0.0209400800    0.0005467179    
0.0264340830    0.0216518650    0.0005483682    
0.0266567440    0.0212342280    0.0005396982    
0.0268794050    0.0208299570    0.0005323543    
0.0271020660    0.0202162920    0.0005223308    
0.0273247270    0.0204808790    0.0005225802    
0.0275473880    0.0201869600    0.0005177846    
0.0277700490    0.0200540040    0.0005130260    
0.0279927100    0.0201440600    0.0005096904    
0.0282153710    0.0205096930    0.0005167957    
0.0284380320    0.0201567530    0.0005093598    
0.0286606930    0.0205470040    0.0005098653    
0.0288833540    0.0197361250    0.0005006525    
0.0291060150    0.0205479850    0.0005103613    
0.0293286760    0.0211502280    0.0005105713    
0.0295513370    0.0208850450    0.0005018356    
0.0297739980    0.0202012010    0.0004989853    
0.0299966590    0.0205411140    0.0004945719    
0.0302193200    0.0207764430    0.0005046454    
0.0304419810    0.0207053460    0.0005047083    
0.0306646420    0.0200061610    0.0004821112    
0.0308873030    0.0208587920    0.0004901510    
0.0311099640    0.0208862100    0.0004917466    
0.0313326250    0.0201542740    0.0004777021    
0.0315552860    0.0197738450    0.0004793043    
0.0317779470    0.0207160890    0.0004910184    
0.0320006080    0.0195964650    0.0004667148    
0.0322232690    0.0203101010    0.0004771259    
0.0324459300    0.0193344210    0.0004620491    
0.0326685910    0.0204703330    0.0004746445    
0.0328912520    0.0204067210    0.0004754758    
0.0331139130    0.0199763860    0.0004643161    
0.0333365740    0.0194980310    0.0004602126    
0.0335592350    0.0206910890    0.0004695250    
0.0337818960    0.0205624160    0.0004676901    
0.0340045570    0.0195852240    0.0004557169    
0.0342272170    0.0195677850    0.0004537172    
0.0344498780    0.0197018890    0.0004570724    
0.0346725390    0.0202353030    0.0004546398    
0.0348952000    0.0197578250    0.0004471974    
0.0351178610    0.0200821080    0.0004529159    
0.0353405220    0.0202234550    0.0004524365    
0.0355631830    0.0199307710    0.0004474590    
0.0357858440    0.0196695940    0.0004445177    
0.0360085050    0.0193035210    0.0004416923    
0.0362311660    0.0199623710    0.0004438275    
0.0364538270    0.0195461180    0.0004356509    
0.0366764880    0.0200510340    0.0004409217    
0.0368991490    0.0198973760    0.0004370148    
0.0371218100    0.0194210370    0.0004305169    
0.0373444710    0.0195342480    0.0004364718    
0.0375671320    0.0198177370    0.0004389873    
0.0377897930    0.0195615920    0.0004248506    
0.0380124540    0.0200694480    0.0004330303    
0.0382351150    0.0192472490    0.0004240676    
0.0384577760    0.0201880680    0.0004301179    
0.0386804370    0.0197065040    0.0004282000    
0.0389030980    0.0201239480    0.0004294346    
0.0391257590    0.0195804510    0.0004207203    
0.0393484200    0.0196913130    0.0004204897    
0.0395710810    0.0197083900    0.0004212387    
0.0397937420    0.0204286750    0.0004288673    
0.0400164030    0.0195332430    0.0004210690    
0.0402390640    0.0201829440    0.0004223150    
0.0404617250    0.0197883230    0.0004156991    
0.0406843860    0.0187739990    0.0004009927    
0.0409070470    0.0191322090    0.0004090171    
0.0411297080    0.0194327350    0.0004082291    
0.0413523690    0.0200933510    0.0004161800    
0.0415750300    0.0192000010    0.0004102789    
0.0417976910    0.0197421580    0.0004052712    
0.0420203520    0.0192286080    0.0004014682    
0.0422430130    0.0200247980    0.0004112466    
0.0424656740    0.0194493390    0.0004000194    
0.0426883350    0.0198755360    0.0004063856    
0.0429109960    0.0188293650    0.0003967816    
0.0431336570    0.0198385690    0.0004015378    
0.0433563180    0.0197358480    0.0004039518    
0.0435789790    0.0197934620    0.0003981854    
0.0438016400    0.0198474520    0.0004008973    
0.0440243010    0.0199386680    0.0003977406    
0.0442469620    0.0193753730    0.0003944313    
0.0444696230    0.0199700950    0.0003990031    
0.0446922840    0.0196693930    0.0003948118    
0.0449149450    0.0197641590    0.0003904710    
0.0451376060    0.0198521460    0.0003961723    
0.0453602670    0.0197632250    0.0003911402    
0.0455829280    0.0197329930    0.0003903889    
0.0458055890    0.0196981410    0.0003923185    
0.0460282500    0.0203698880    0.0003941411    
0.0462509110    0.0202603930    0.0003906355    
0.0464735720    0.0198007020    0.0003863965    
0.0466962330    0.0197756930    0.0003879078    
0.0469188940    0.0193913570    0.0003830310    
0.0471415550    0.0195910550    0.0003869755    
0.0473642160    0.0191057200    0.0003768013    
0.0475868770    0.0198875640    0.0003825239    
0.0478095380    0.0205526240    0.0003871656    
0.0480321990    0.0196465400    0.0003793645    
0.0482548600    0.0195555950    0.0003768364    
0.0484775210    0.0198273520    0.0003832133    
0.0487001820    0.0193230290    0.0003727703    
0.0489228430    0.0194818570    0.0003740981    
0.0491455040    0.0193620770    0.0003703669    
0.0493681650    0.0202944510    0.0003824379    
0.0495908260    0.0191644670    0.0003653856    
0.0498134870    0.0196446680    0.0003734566    
0.0500361480    0.0196962210    0.0003729569    
0.0502588090    0.0199326490    0.0003695670    
0.0504814700    0.0202181100    0.0003770697    
0.0507041310    0.0199873890    0.0003704546    
0.0509267920    0.0192877200    0.0003654183    
0.0511494530    0.0191406530    0.0003615952    
0.0513721140    0.0194445080    0.0003676637    
0.0515947750    0.0199950090    0.0003678886    
0.0518174360    0.0187316610    0.0003539319    
0.0520400970    0.0194686570    0.0003583256    
0.0522627580    0.0192375290    0.0003592193    
0.0524854190    0.0204310440    0.0003732048    
0.0527080800    0.0196547880    0.0003688805    
0.0529307410    0.0195672970    0.0003697871    
0.0531534020    0.0196332070    0.0003690609    
0.0533760630    0.0196446220    0.0003703238    
0.0535987240    0.0188806720    0.0003613567    
0.0538213850    0.0201062730    0.0003772211    
0.0540440460    0.0197201220    0.0003718131    
0.0542667070    0.0198436120    0.0003755459    
0.0544893680    0.0197011210    0.0003743945    
0.0547120290    0.0200707270    0.0003753013    
0.0549346900    0.0191294100    0.0003665876    
0.0551573510    0.0193307370    0.0003728497    
0.0553800120    0.0193569500    0.0003699306    
0.0556026730    0.0195786800    0.0003797571    
0.0558253340    0.0190915470    0.0003781431    
0.0560479950    0.0194885270    0.0003820545    
0.0562706560    0.0192181760    0.0003830633    
0.0564933170    0.0197243040    0.0003914446    
0.0567159780    0.0198987500    0.0003884578    
0.0569386390    0.0191666640    0.0003872251    
0.0571613000    0.0198406480    0.0003854916    
0.0573839610    0.0195714710    0.0003796887    
0.0576066220    0.0194651820    0.0003797045    
0.0578292830    0.0191526300    0.0003753975    
0.0580519440    0.0188046390    0.0003734138    
0.0582746050    0.0199474300    0.0003828971    
0.0584972660    0.0189270670    0.0003715477    
0.0587199270    0.0197204380    0.0003759856    
0.0589425880    0.0195116760    0.0003718028    
0.0591652490    0.0194624150    0.0003735182    
0.0593879100    0.0194286540    0.0003704225    
0.0596105710    0.0195638740    0.0003713172    
0.0598332320    0.0194338020    0.0003732442    
0.0600558930    0.0190735450    0.0003674109    
0.0602785540    0.0196688590    0.0003727061    
0.0605012150    0.0192695920    0.0003681266    
0.0607238760    0.0200640030    0.0003729008    
0.0609465370    0.0193392200    0.0003689858    
0.0611691980    0.0194005700    0.0003701563    
0.0613918590    0.0200225480    0.0003719377    
0.0616145200    0.0199942240    0.0003743948    
0.0618371810    0.0190260320    0.0003616306    
0.0620598420    0.0193407920    0.0003649856    
0.0622825030    0.0191203610    0.0003684495    
0.0625051640    0.0191392250    0.0003634540    
0.0627278250    0.0196584870    0.0003675929    
0.0629504860    0.0194077750    0.0003622720    
0.0631731470    0.0193295960    0.0003660147    
0.0633958080    0.0186553650    0.0003616441    
0.0636184690    0.0190560980    0.0003705982    
0.0638411300    0.0198074620    0.0003764154    
0.0640637910    0.0197316100    0.0003783364    
0.0642864520    0.0192490470    0.0003728727    
0.0645091130    0.0208520950    0.0003914894    
0.0647317740    0.0201835720    0.0003855873    
0.0649544350    0.0198451840    0.0003819207    
0.0651770960    0.0193675400    0.0003752385    
0.0653997570    0.0193994470    0.0003747330    
0.0656224180    0.0197747110    0.0003791628    
0.0658450790    0.0198530380    0.0003744523    
0.0660677400    0.0195950110    0.0003735943    
0.0662904010    0.0193216750    0.0003754082    
0.0665130620    0.0198341060    0.0003787039    
0.0667357230    0.0198191170    0.0003852915    
0.0669583840    0.0198132010    0.0003839450    
0.0671810450    0.0193963450    0.0003777872    
0.0674037060    0.0188491750    0.0003787297    
0.0676263670    0.0193615410    0.0003810323    
0.0678490280    0.0194958090    0.0003800129    
0.0680716890    0.0192627440    0.0003785752    
0.0682943500    0.0201895540    0.0003833306    
0.0685170110    0.0195591370    0.0003734537    
0.0687396720    0.0191219860    0.0003682757    
0.0689623330    0.0201568310    0.0003769114    
0.0691849940    0.0199226100    0.0003773113    
0.0694076550    0.0186664380    0.0003650275    
0.0696303160    0.0199528050    0.0003744077    
0.0698529770    0.0201421100    0.0003753912    
0.0700756380    0.0195601280    0.0003651795    
0.0702982990    0.0196331570    0.0003698449    
0.0705209600    0.0191515520    0.0003626434    
0.0707436210    0.0192482090    0.0003618877    
0.0709662820    0.0193057780    0.0003667491    
0.0711889430    0.0197316530    0.0003662182    
0.0714116040    0.0195734300    0.0003654916    
0.0716342650    0.0194689610    0.0003630349    
0.0718569260    0.0193997470    0.0003609294    
0.0720795870    0.0196314780    0.0003645474    
0.0723022480    0.0196234540    0.0003650283    
0.0725249090    0.0199848120    0.0003639623    
0.0727475700    0.0191680110    0.0003594915    
0.0729702310    0.0202568410    0.0003666134    
0.0731928920    0.0200177930    0.0003659004    
0.0734155530    0.0194850020    0.0003602778    
0.0736382140    0.0191896770    0.0003552426    
0.0738608750    0.0200979160    0.0003659008    
0.0740835360    0.0198259090    0.0003625141    
0.0743061970    0.0189815550    0.0003497159    
0.0745288580    0.0199460580    0.0003621770    
0.0747515190    0.0196882030    0.0003605390    
0.0749741800    0.0192281900    0.0003530040    
0.0751968410    0.0191100180    0.0003546807    
0.0754195020    0.0197390310    0.0003583588    
0.0756421630    0.0192064350    0.0003506015    
0.0758648240    0.0201091720    0.0003596088    
0.0760874850    0.0196979600    0.0003557420    
0.0763101460    0.0191407810    0.0003503382    
0.0765328070    0.0197439110    0.0003594558    
0.0767554680    0.0195607940    0.0003553572    
0.0769781290    0.0190749770    0.0003489001    
0.0772007900    0.0192914550    0.0003480602    
0.0774234510    0.0194416710    0.0003514001    
0.0776461120    0.0186694400    0.0003440239    
0.0778687730    0.0192012380    0.0003477367    
0.0780914340    0.0200643010    0.0003580058    
0.0783140950    0.0195316630    0.0003476177    
0.0785367560    0.0195022230    0.0003529561    
0.0787594170    0.0194366500    0.0003492052    
0.0789820780    0.0200142010    0.0003525398    
0.0792047390    0.0196077450    0.0003500825    
0.0794274000    0.0200137880    0.0003551873    
0.0796500610    0.0194334050    0.0003465833    
0.0798727220    0.0195394470    0.0003472068    
0.0800953830    0.0193882660    0.0003450656    
0.0803180440    0.0198087860    0.0003512174    
0.0805407050    0.0192001210    0.0003454578    
0.0807633660    0.0194188620    0.0003470976    
0.0809860270    0.0195282020    0.0003467881    
0.0812086880    0.0191255710    0.0003402286    
0.0814313490    0.0200761020    0.0003501705    
0.0816540100    0.0196139170    0.0003453283    
0.0818766710    0.0197341270    0.0003471758    
0.0820993320    0.0194431870    0.0003439791    
0.0823219930    0.0194321000    0.0003452993    
0.0825446540    0.0187335170    0.0003365725    
0.0827673150    0.0197056780    0.0003428760    
0.0829899760    0.0198258130    0.0003433073    
0.0832126370    0.0197398930    0.0003440970    
0.0834352980    0.0196815760    0.0003428201    
0.0836579590    0.0194038190    0.0003396348    
0.0838806200    0.0192742020    0.0003395577    
0.0841032810    0.0196382640    0.0003406219    
0.0843259420    0.0195762120    0.0003390360    
0.0845486030    0.0195586270    0.0003388840    
0.0847712640    0.0203244250    0.0003433493    
0.0849939250    0.0192893640    0.0003350747    
0.0852165860    0.0197717840    0.0003396833    
0.0854392470    0.0193876290    0.0003331818    
0.0856619080    0.0193895460    0.0003356522    
0.0858845690    0.0199035030    0.0003370088    
0.0861072300    0.0192651700    0.0003338495    
0.0863298910    0.0191283860    0.0003344042    
0.0865525520    0.0198853760    0.0003380127    
0.0867752130    0.0193057120    0.0003303623    
0.0869978740    0.0192224150    0.0003304889    
0.0872205350    0.0198139730    0.0003351088    
0.0874431960    0.0193719290    0.0003313499    
0.0876658570    0.0190640760    0.0003299686    
0.0878885180    0.0196280870    0.0003353881    
0.0881111790    0.0199492950    0.0003376874    
0.0883338400    0.0199854510    0.0003330446    
0.0885565010    0.0194193660    0.0003327459    
0.0887791620    0.0192244830    0.0003267788    
0.0890018230    0.0198087550    0.0003349248    
0.0892244840    0.0195068230    0.0003329275    
0.0894471450    0.0198832660    0.0003347048    
0.0896698060    0.0195042840    0.0003302492    
0.0898924670    0.0194484810    0.0003313051    
0.0901151280    0.0188594130    0.0003227251    
0.0903377890    0.0195526370    0.0003313530    
0.0905604500    0.0198465180    0.0003323018    
0.0907831110    0.0199250530    0.0003321303    
0.0910057720    0.0188121120    0.0003242022    
0.0912284330    0.0195909340    0.0003261082    
0.0914510940    0.0191866840    0.0003263249    
0.0916737550    0.0196659230    0.0003295553    
0.0918964160    0.0198855240    0.0003327684    
0.0921190770    0.0193033480    0.0003248967    
0.0923417380    0.0192699340    0.0003247485    
0.0925643990    0.0186256790    0.0003184924    
0.0927870600    0.0192948980    0.0003254930    
0.0930097210    0.0184602450    0.0003156635    
0.0932323820    0.0193022890    0.0003251553    
