# Diamond Light Source Ltd.
# Data extracted from: /dls/b21/data/2018/cm19678-3/processed/b21-386631_00654.dat
q(1/A)          Column          Error           
0.0035000000    2.0641910000    0.0244819290    
0.0037226610    1.8537989000    0.0227122570    
0.0039453220    1.6265240000    0.0193537830    
0.0041679830    1.2945131000    0.0141792620    
0.0043906440    0.9460525500    0.0115942690    
0.0046133050    0.7833315100    0.0101279700    
0.0048359660    0.5937876400    0.0083408988    
0.0050586270    0.4595613100    0.0072124106    
0.0052812880    0.4213434600    0.0065295146    
0.0055039490    0.3819470300    0.0059111897    
0.0057266100    0.3137114900    0.0051826597    
0.0059492710    0.2703022000    0.0048107446    
0.0061719320    0.2248380300    0.0042279522    
0.0063945930    0.2067847700    0.0041038095    
0.0066172539    0.1740681900    0.0035355184    
0.0068399149    0.1646633000    0.0033845248    
0.0070625759    0.1465832000    0.0031605596    
0.0072852369    0.1216652000    0.0028363345    
0.0075078979    0.1145797400    0.0027389798    
0.0077305589    0.1024435700    0.0025405306    
0.0079532199    0.0917202840    0.0023705793    
0.0081758809    0.0890032560    0.0023569270    
0.0083985419    0.0838324960    0.0021334809    
0.0086212029    0.0770455510    0.0020452969    
0.0088438639    0.0696153090    0.0019285573    
0.0090665249    0.0621487040    0.0017599440    
0.0092891859    0.0627115250    0.0018452549    
0.0095118469    0.0627164340    0.0017745986    
0.0097345079    0.0567424830    0.0016393811    
0.0099571689    0.0512917270    0.0015265124    
0.0101798300    0.0492019040    0.0014950912    
0.0104024910    0.0481474810    0.0014739792    
0.0106251520    0.0475209700    0.0014693304    
0.0108478130    0.0461885270    0.0014107067    
0.0110704740    0.0442491480    0.0013145889    
0.0112931350    0.0423487940    0.0012898276    
0.0115157960    0.0403032620    0.0012509545    
0.0117384570    0.0389636000    0.0012194000    
0.0119611180    0.0376522760    0.0012021447    
0.0121837790    0.0369166380    0.0011703361    
0.0124064400    0.0360496670    0.0011083028    
0.0126291010    0.0352193680    0.0010817543    
0.0128517620    0.0346274590    0.0010753039    
0.0130744230    0.0320102270    0.0010262008    
0.0132970840    0.0321540250    0.0010234739    
0.0135197450    0.0321892350    0.0010093695    
0.0137424060    0.0329303470    0.0010067101    
0.0139650670    0.0303322890    0.0009446607    
0.0141877280    0.0289003360    0.0009241308    
0.0144103890    0.0292822270    0.0009141773    
0.0146330500    0.0276717000    0.0008830394    
0.0148557110    0.0297594240    0.0009119053    
0.0150783720    0.0267960800    0.0008581614    
0.0153010330    0.0279157520    0.0008635574    
0.0155236940    0.0277959180    0.0008565778    
0.0157463550    0.0260764000    0.0008152857    
0.0159690160    0.0254741060    0.0008027572    
0.0161916770    0.0263134630    0.0008112788    
0.0164143380    0.0252154750    0.0008001889    
0.0166369990    0.0258073270    0.0007845658    
0.0168596600    0.0256357710    0.0007750643    
0.0170823210    0.0252858990    0.0007630926    
0.0173049820    0.0249574440    0.0007594308    
0.0175276430    0.0249202160    0.0007668666    
0.0177503040    0.0253690740    0.0007540174    
0.0179729650    0.0252418410    0.0007446651    
0.0181956260    0.0233956580    0.0007031718    
0.0184182870    0.0236571610    0.0007037581    
0.0186409480    0.0242543970    0.0007170963    
0.0188636090    0.0234268860    0.0007003248    
0.0190862700    0.0245224130    0.0007153923    
0.0193089310    0.0232601340    0.0006956508    
0.0195315920    0.0227533200    0.0006646316    
0.0197542530    0.0230533120    0.0006699733    
0.0199769140    0.0234232640    0.0006753278    
0.0201995750    0.0226011020    0.0006529820    
0.0204222360    0.0226261560    0.0006589521    
0.0206448970    0.0235543440    0.0006675539    
0.0208675580    0.0226668490    0.0006413719    
0.0210902190    0.0220518870    0.0006387158    
0.0213128800    0.0228075990    0.0006407539    
0.0215355410    0.0220213780    0.0006221126    
0.0217582020    0.0223728860    0.0006270581    
0.0219808630    0.0210696270    0.0006077215    
0.0222035240    0.0218599680    0.0006134055    
0.0224261850    0.0216247530    0.0006046665    
0.0226488460    0.0220839640    0.0006064643    
0.0228715070    0.0209469160    0.0005891780    
0.0230941680    0.0210795000    0.0005910398    
0.0233168290    0.0211679880    0.0005937544    
0.0235394900    0.0215177840    0.0005920333    
0.0237621510    0.0209454960    0.0005683826    
0.0239848120    0.0202673940    0.0005597532    
0.0242074730    0.0213286140    0.0005696245    
0.0244301340    0.0210113740    0.0005660175    
0.0246527950    0.0219769540    0.0005842373    
0.0248754560    0.0207033870    0.0005543120    
0.0250981170    0.0212728590    0.0005631368    
0.0253207780    0.0206528960    0.0005383033    
0.0255434390    0.0210817690    0.0005496683    
0.0257661000    0.0201798170    0.0005395210    
0.0259887610    0.0201767760    0.0005337473    
0.0262114220    0.0204922420    0.0005407696    
0.0264340830    0.0210352970    0.0005404336    
0.0266567440    0.0215715360    0.0005438970    
0.0268794050    0.0203620650    0.0005262728    
0.0271020660    0.0202784850    0.0005230654    
0.0273247270    0.0217152730    0.0005380278    
0.0275473880    0.0204074160    0.0005205364    
0.0277700490    0.0205998580    0.0005198935    
0.0279927100    0.0211444630    0.0005221253    
0.0282153710    0.0210641500    0.0005236664    
0.0284380320    0.0206919630    0.0005160107    
0.0286606930    0.0208325720    0.0005133293    
0.0288833540    0.0205308870    0.0005105670    
0.0291060150    0.0210115250    0.0005160186    
0.0293286760    0.0194442680    0.0004894835    
0.0295513370    0.0199634080    0.0004905740    
0.0297739980    0.0203930910    0.0005012843    
0.0299966590    0.0192976640    0.0004793064    
0.0302193200    0.0201950770    0.0004974700    
0.0304419810    0.0211427310    0.0005099448    
0.0306646420    0.0208139950    0.0004916844    
0.0308873030    0.0206115450    0.0004871739    
0.0311099640    0.0201399870    0.0004828192    
0.0313326250    0.0209527200    0.0004870092    
0.0315552860    0.0207675810    0.0004911364    
0.0317779470    0.0207572320    0.0004914417    
0.0320006080    0.0207137230    0.0004797723    
0.0322232690    0.0201255170    0.0004748909    
0.0324459300    0.0211066710    0.0004826983    
0.0326685910    0.0211801740    0.0004827410    
0.0328912520    0.0199583760    0.0004701623    
0.0331139130    0.0210932790    0.0004770575    
0.0333365740    0.0199273340    0.0004651909    
0.0335592350    0.0195459610    0.0004562879    
0.0337818960    0.0205251540    0.0004672053    
0.0340045570    0.0200359660    0.0004608710    
0.0342272170    0.0194364760    0.0004521333    
0.0344498780    0.0198239690    0.0004584266    
0.0346725390    0.0198930340    0.0004507197    
0.0348952000    0.0196110080    0.0004454747    
0.0351178610    0.0195969090    0.0004473527    
0.0353405220    0.0203497350    0.0004537877    
0.0355631830    0.0199657510    0.0004477931    
0.0357858440    0.0197146850    0.0004449689    
0.0360085050    0.0205513780    0.0004556858    
0.0362311660    0.0205984030    0.0004507838    
0.0364538270    0.0200361030    0.0004410201    
0.0366764880    0.0206758760    0.0004476808    
0.0368991490    0.0197674460    0.0004355289    
0.0371218100    0.0200361430    0.0004372245    
0.0373444710    0.0192074100    0.0004327486    
0.0375671320    0.0190348470    0.0004301729    
0.0377897930    0.0201192050    0.0004308072    
0.0380124540    0.0194010160    0.0004257025    
0.0382351150    0.0196252110    0.0004281553    
0.0384577760    0.0195140170    0.0004228213    
0.0386804370    0.0207245760    0.0004390642    
0.0389030980    0.0200179280    0.0004282461    
0.0391257590    0.0196747630    0.0004216774    
0.0393484200    0.0203145600    0.0004270367    
0.0395710810    0.0195142330    0.0004191040    
0.0397937420    0.0193252250    0.0004170696    
0.0400164030    0.0195553770    0.0004212526    
0.0402390640    0.0188790340    0.0004083923    
0.0404617250    0.0195387150    0.0004130151    
0.0406843860    0.0199849890    0.0004136695    
0.0409070470    0.0196867040    0.0004148478    
0.0411297080    0.0193676560    0.0004074919    
0.0413523690    0.0192866590    0.0004076871    
0.0415750300    0.0188356400    0.0004063144    
0.0417976910    0.0200114850    0.0004079731    
0.0420203520    0.0191062780    0.0004001370    
0.0422430130    0.0201968940    0.0004129562    
0.0424656740    0.0201680850    0.0004072906    
0.0426883350    0.0196792970    0.0004043217    
0.0429109960    0.0196352810    0.0004051311    
0.0431336570    0.0189965140    0.0003928725    
0.0433563180    0.0198381620    0.0004049448    
0.0435789790    0.0197402550    0.0003975981    
0.0438016400    0.0198989500    0.0004013647    
0.0440243010    0.0200921150    0.0003992161    
0.0442469620    0.0194184900    0.0003948185    
0.0444696230    0.0199728620    0.0003989787    
0.0446922840    0.0204248520    0.0004022698    
0.0449149450    0.0198824070    0.0003915863    
0.0451376060    0.0200129580    0.0003977218    
0.0453602670    0.0193865960    0.0003873448    
0.0455829280    0.0193958360    0.0003869891    
0.0458055890    0.0195602110    0.0003908916    
0.0460282500    0.0191218150    0.0003818259    
0.0462509110    0.0193891890    0.0003820947    
0.0464735720    0.0194412430    0.0003828233    
0.0466962330    0.0192836930    0.0003830022    
0.0469188940    0.0193787400    0.0003828565    
0.0471415550    0.0201438030    0.0003923456    
0.0473642160    0.0192418980    0.0003780925    
0.0475868770    0.0196984900    0.0003806516    
0.0478095380    0.0195191760    0.0003772570    
0.0480321990    0.0201760300    0.0003843925    
0.0482548600    0.0195069410    0.0003763183    
0.0484775210    0.0196889020    0.0003818232    
0.0487001820    0.0191885840    0.0003714229    
0.0489228430    0.0194552360    0.0003737937    
0.0491455040    0.0197111670    0.0003736420    
0.0493681650    0.0201018340    0.0003805691    
0.0495908260    0.0195773460    0.0003692525    
0.0498134870    0.0192420730    0.0003695618    
0.0500361480    0.0201005840    0.0003767168    
0.0502588090    0.0194205350    0.0003647411    
0.0504814700    0.0197136730    0.0003722876    
0.0507041310    0.0196458270    0.0003672278    
0.0509267920    0.0200025080    0.0003720793    
0.0511494530    0.0197024970    0.0003668161    
0.0513721140    0.0196201440    0.0003692723    
0.0515947750    0.0192860280    0.0003612604    
0.0518174360    0.0192616400    0.0003588572    
0.0520400970    0.0198459980    0.0003617343    
0.0522627580    0.0195342820    0.0003619322    
0.0524854190    0.0194579350    0.0003641612    
0.0527080800    0.0191790160    0.0003643410    
0.0529307410    0.0198975500    0.0003728461    
0.0531534020    0.0192951770    0.0003658223    
0.0533760630    0.0193184590    0.0003671888    
0.0535987240    0.0204245320    0.0003757914    
0.0538213850    0.0193722750    0.0003702234    
0.0540440460    0.0198551540    0.0003730353    
0.0542667070    0.0190994740    0.0003683891    
0.0544893680    0.0196035190    0.0003734173    
0.0547120290    0.0199813060    0.0003744155    
0.0549346900    0.0199321040    0.0003741510    
0.0551573510    0.0197426980    0.0003767526    
0.0553800120    0.0198466590    0.0003745319    
0.0556026730    0.0192863820    0.0003768626    
0.0558253340    0.0195807720    0.0003829076    
0.0560479950    0.0194460100    0.0003815878    
0.0562706560    0.0197780370    0.0003885523    
0.0564933170    0.0199366270    0.0003934946    
0.0567159780    0.0200603560    0.0003899812    
0.0569386390    0.0193024500    0.0003885437    
0.0571613000    0.0194461070    0.0003815897    
0.0573839610    0.0193159930    0.0003771533    
0.0576066220    0.0196156140    0.0003811193    
0.0578292830    0.0190078750    0.0003739274    
0.0580519440    0.0196151850    0.0003813270    
0.0582746050    0.0192515290    0.0003761097    
0.0584972660    0.0195273520    0.0003773445    
0.0587199270    0.0198156320    0.0003768429    
0.0589425880    0.0198253280    0.0003747304    
0.0591652490    0.0200020060    0.0003786114    
0.0593879100    0.0194447730    0.0003705279    
0.0596105710    0.0199885620    0.0003752769    
0.0598332320    0.0196079040    0.0003748635    
0.0600558930    0.0192808410    0.0003693539    
0.0602785540    0.0196001890    0.0003720065    
0.0605012150    0.0199676580    0.0003746864    
0.0607238760    0.0191649640    0.0003644030    
0.0609465370    0.0195242150    0.0003706981    
0.0611691980    0.0199250620    0.0003750776    
0.0613918590    0.0193887680    0.0003659561    
0.0616145200    0.0193862590    0.0003686107    
0.0618371810    0.0191859970    0.0003631004    
0.0620598420    0.0195216730    0.0003666406    
0.0622825030    0.0191508700    0.0003686952    
0.0625051640    0.0192584420    0.0003645367    
0.0627278250    0.0196808520    0.0003677540    
0.0629504860    0.0196799000    0.0003647555    
0.0631731470    0.0193314880    0.0003659849    
0.0633958080    0.0190079550    0.0003649981    
0.0636184690    0.0195194860    0.0003750282    
0.0638411300    0.0198023010    0.0003763173    
0.0640637910    0.0192550640    0.0003736911    
0.0642864520    0.0197783870    0.0003779156    
0.0645091130    0.0193329460    0.0003769100    
0.0647317740    0.0203182350    0.0003868211    
0.0649544350    0.0200163690    0.0003835145    
0.0651770960    0.0191953250    0.0003735178    
0.0653997570    0.0187575610    0.0003684333    
0.0656224180    0.0195805850    0.0003772479    
0.0658450790    0.0199396550    0.0003752194    
0.0660677400    0.0198106570    0.0003755954    
0.0662904010    0.0202718990    0.0003844785    
0.0665130620    0.0192072510    0.0003726228    
0.0667357230    0.0197540470    0.0003846083    
0.0669583840    0.0197336560    0.0003831236    
0.0671810450    0.0201784190    0.0003852780    
0.0674037060    0.0194452720    0.0003846215    
0.0676263670    0.0188242300    0.0003756590    
0.0678490280    0.0197499140    0.0003824315    
0.0680716890    0.0195478180    0.0003813165    
0.0682943500    0.0197258900    0.0003788540    
0.0685170110    0.0193187940    0.0003711038    
0.0687396720    0.0194219110    0.0003711043    
0.0689623330    0.0200952100    0.0003762858    
0.0691849940    0.0192315970    0.0003706618    
0.0694076550    0.0196820730    0.0003747777    
0.0696303160    0.0193857020    0.0003690005    
0.0698529770    0.0201368620    0.0003752934    
0.0700756380    0.0198276700    0.0003676206    
0.0702982990    0.0201086430    0.0003742479    
0.0705209600    0.0198673900    0.0003693104    
0.0707436210    0.0190935470    0.0003603839    
0.0709662820    0.0193007480    0.0003666535    
0.0711889430    0.0192236660    0.0003614263    
0.0714116040    0.0192749420    0.0003626468    
0.0716342650    0.0184690370    0.0003535432    
0.0718569260    0.0188710560    0.0003559310    
0.0720795870    0.0195857570    0.0003640752    
0.0723022480    0.0194486320    0.0003633513    
0.0725249090    0.0195621200    0.0003600458    
0.0727475700    0.0194393740    0.0003619800    
0.0729702310    0.0195351640    0.0003599767    
0.0731928920    0.0193506170    0.0003597042    
0.0734155530    0.0196930390    0.0003621488    
0.0736382140    0.0203483810    0.0003657628    
0.0738608750    0.0192801810    0.0003583330    
0.0740835360    0.0196020590    0.0003604148    
0.0743061970    0.0200008050    0.0003589357    
0.0745288580    0.0195463830    0.0003584833    
0.0747515190    0.0194058470    0.0003578977    
0.0749741800    0.0199358700    0.0003593945    
0.0751968410    0.0190260650    0.0003538547    
0.0754195020    0.0186736950    0.0003485087    
0.0756421630    0.0195661360    0.0003538232    
0.0758648240    0.0196860380    0.0003557589    
0.0760874850    0.0198534020    0.0003570964    
0.0763101460    0.0191229720    0.0003501295    
0.0765328070    0.0196210010    0.0003582885    
0.0767554680    0.0197105940    0.0003566689    
0.0769781290    0.0197718140    0.0003551695    
0.0772007900    0.0194936060    0.0003498335    
0.0774234510    0.0190048220    0.0003473845    
0.0776461120    0.0200208460    0.0003562112    
0.0778687730    0.0191899390    0.0003475891    
0.0780914340    0.0188520810    0.0003469773    
0.0783140950    0.0195265740    0.0003475272    
0.0785367560    0.0190309470    0.0003486200    
0.0787594170    0.0194754920    0.0003495084    
0.0789820780    0.0194067920    0.0003471037    
0.0792047390    0.0200775480    0.0003542055    
0.0794274000    0.0197312890    0.0003526257    
0.0796500610    0.0187424170    0.0003403215    
0.0798727220    0.0196638860    0.0003482653    
0.0800953830    0.0198989540    0.0003495351    
0.0803180440    0.0193491560    0.0003470736    
0.0805407050    0.0195928160    0.0003489272    
0.0807633660    0.0199782290    0.0003520154    
0.0809860270    0.0198678930    0.0003497457    
0.0812086880    0.0199192950    0.0003471715    
0.0814313490    0.0198205200    0.0003478891    
0.0816540100    0.0196635120    0.0003457195    
0.0818766710    0.0192038560    0.0003424350    
0.0820993320    0.0196267220    0.0003455537    
0.0823219930    0.0190651180    0.0003419787    
0.0825446540    0.0200404860    0.0003480699    
0.0827673150    0.0194381070    0.0003404958    
0.0829899760    0.0192738700    0.0003384507    
0.0832126370    0.0190931150    0.0003383688    
0.0834352980    0.0196585380    0.0003425747    
0.0836579590    0.0194819690    0.0003402737    
0.0838806200    0.0193349650    0.0003400482    
0.0841032810    0.0197217440    0.0003413006    
0.0843259420    0.0198646190    0.0003414798    
0.0845486030    0.0195241800    0.0003385413    
0.0847712640    0.0195304870    0.0003365325    
0.0849939250    0.0190457570    0.0003329088    
0.0852165860    0.0192532140    0.0003351554    
0.0854392470    0.0197088650    0.0003358869    
0.0856619080    0.0193322130    0.0003351120    
0.0858845690    0.0197214680    0.0003354205    
0.0861072300    0.0195956130    0.0003366566    
0.0863298910    0.0197429250    0.0003396892    
0.0865525520    0.0194781100    0.0003344898    
0.0867752130    0.0195945720    0.0003327813    
0.0869978740    0.0195071160    0.0003328840    
0.0872205350    0.0198314750    0.0003352131    
0.0874431960    0.0194235430    0.0003317478    
0.0876658570    0.0194645000    0.0003333725    
0.0878885180    0.0195083860    0.0003343203    
0.0881111790    0.0189326050    0.0003289271    
0.0883338400    0.0191646100    0.0003260910    
0.0885565010    0.0193117050    0.0003317790    
0.0887791620    0.0190084540    0.0003248952    
0.0890018230    0.0192827450    0.0003304049    
0.0892244840    0.0197800930    0.0003352077    
0.0894471450    0.0195063220    0.0003314737    
0.0896698060    0.0198178530    0.0003328499    
0.0898924670    0.0193813490    0.0003306897    
0.0901151280    0.0200084050    0.0003323674    
0.0903377890    0.0197271860    0.0003327854    
0.0905604500    0.0187566640    0.0003230069    
0.0907831110    0.0198977220    0.0003318592    
0.0910057720    0.0188798250    0.0003247429    
0.0912284330    0.0192602130    0.0003233018    
0.0914510940    0.0189319950    0.0003241096    
0.0916737550    0.0201411390    0.0003334699    
0.0918964160    0.0190452680    0.0003256196    
0.0921190770    0.0192217820    0.0003241673    
0.0923417380    0.0195165990    0.0003267778    
0.0925643990    0.0197859890    0.0003282202    
0.0927870600    0.0190702930    0.0003235508    
0.0930097210    0.0192379030    0.0003222018    
0.0932323820    0.0190179850    0.0003227098    
