# Diamond Light Source Ltd.
# Data extracted from: /dls/b21/data/2018/cm19678-3/processed/b21-386631_00656.dat
q(1/A)          Column          Error           
0.0035000000    2.0508568000    0.0244045880    
0.0037226610    1.8357134000    0.0226029210    
0.0039453220    1.5942966000    0.0191625500    
0.0041679830    1.2686144000    0.0140377780    
0.0043906440    0.9577081400    0.0116663620    
0.0046133050    0.7848916700    0.0101388240    
0.0048359660    0.5980967800    0.0083717477    
0.0050586270    0.4621220300    0.0072330285    
0.0052812880    0.4235330000    0.0065469575    
0.0055039490    0.3880441800    0.0059586386    
0.0057266100    0.3133311800    0.0051799124    
0.0059492710    0.2604100100    0.0047222554    
0.0061719320    0.2152508500    0.0041371451    
0.0063945930    0.1976932700    0.0040128875    
0.0066172539    0.1771830600    0.0035672835    
0.0068399149    0.1644101200    0.0033821797    
0.0070625759    0.1419708900    0.0031106752    
0.0072852369    0.1263130300    0.0028902238    
0.0075078979    0.1145972200    0.0027393976    
0.0077305589    0.1012619500    0.0025260291    
0.0079532199    0.0974944780    0.0024442461    
0.0081758809    0.0918883460    0.0023950056    
0.0083985419    0.0834651580    0.0021289639    
0.0086212029    0.0756997070    0.0020275091    
0.0088438639    0.0723511190    0.0019662373    
0.0090665249    0.0623077240    0.0017623286    
0.0092891859    0.0633184360    0.0018543039    
0.0095118469    0.0592105330    0.0017244161    
0.0097345079    0.0592618330    0.0016755077    
0.0099571689    0.0540712720    0.0015674479    
0.0101798300    0.0496637910    0.0015022070    
0.0104024910    0.0467557640    0.0014526309    
0.0106251520    0.0468466490    0.0014589795    
0.0108478130    0.0461093880    0.0014096051    
0.0110704740    0.0417950680    0.0012777125    
0.0112931350    0.0416087330    0.0012786053    
0.0115157960    0.0399987410    0.0012463147    
0.0117384570    0.0369466400    0.0011875100    
0.0119611180    0.0373125340    0.0011968001    
0.0121837790    0.0391487380    0.0012052900    
0.0124064400    0.0385088260    0.0011455685    
0.0126291010    0.0361219760    0.0010956119    
0.0128517620    0.0338646090    0.0010634745    
0.0130744230    0.0320809180    0.0010274116    
0.0132970840    0.0328431630    0.0010344624    
0.0135197450    0.0315926820    0.0010000489    
0.0137424060    0.0313963350    0.0009830574    
0.0139650670    0.0317198790    0.0009661001    
0.0141877280    0.0314464710    0.0009640534    
0.0144103890    0.0298575840    0.0009231852    
0.0146330500    0.0288314340    0.0009014226    
0.0148557110    0.0268015420    0.0008654669    
0.0150783720    0.0298512640    0.0009058323    
0.0153010330    0.0275993980    0.0008587158    
0.0155236940    0.0289881990    0.0008748227    
0.0157463550    0.0273805730    0.0008354883    
0.0159690160    0.0253261870    0.0008004842    
0.0161916770    0.0259672450    0.0008059854    
0.0164143380    0.0269209280    0.0008268697    
0.0166369990    0.0254295810    0.0007788622    
0.0168596600    0.0254287520    0.0007719873    
0.0170823210    0.0234701840    0.0007352405    
0.0173049820    0.0260013030    0.0007752091    
0.0175276430    0.0256320860    0.0007778020    
0.0177503040    0.0239608460    0.0007328469    
0.0179729650    0.0246085070    0.0007353198    
0.0181956260    0.0236951530    0.0007077122    
0.0184182870    0.0232001180    0.0006969800    
0.0186409480    0.0249154410    0.0007268581    
0.0188636090    0.0228232360    0.0006912959    
0.0190862700    0.0230650210    0.0006938614    
0.0193089310    0.0242624810    0.0007105358    
0.0195315920    0.0230092130    0.0006684094    
0.0197542530    0.0220052510    0.0006546167    
0.0199769140    0.0225505220    0.0006626776    
0.0201995750    0.0240762990    0.0006740070    
0.0204222360    0.0227447710    0.0006607275    
0.0206448970    0.0226875240    0.0006552055    
0.0208675580    0.0226884580    0.0006417265    
0.0210902190    0.0216296880    0.0006326201    
0.0213128800    0.0226490420    0.0006385715    
0.0215355410    0.0212161680    0.0006106795    
0.0217582020    0.0223587210    0.0006269074    
0.0219808630    0.0220896680    0.0006223059    
0.0222035240    0.0214501380    0.0006076746    
0.0224261850    0.0205965340    0.0005901610    
0.0226488460    0.0224871040    0.0006120214    
0.0228715070    0.0215799410    0.0005980600    
0.0230941680    0.0215468010    0.0005976007    
0.0233168290    0.0223538740    0.0006102061    
0.0235394900    0.0222216010    0.0006016836    
0.0237621510    0.0226609920    0.0005912457    
0.0239848120    0.0218475950    0.0005812093    
0.0242074730    0.0212101460    0.0005680836    
0.0244301340    0.0200690750    0.0005532220    
0.0246527950    0.0212346850    0.0005743301    
0.0248754560    0.0215080890    0.0005650250    
0.0250981170    0.0218277620    0.0005704777    
0.0253207780    0.0211471890    0.0005447485    
0.0255434390    0.0199812850    0.0005351703    
0.0257661000    0.0209619350    0.0005499188    
0.0259887610    0.0212389790    0.0005476584    
0.0262114220    0.0206238210    0.0005425443    
0.0264340830    0.0206635630    0.0005356779    
0.0266567440    0.0204912850    0.0005301440    
0.0268794050    0.0204603990    0.0005275823    
0.0271020660    0.0213880910    0.0005372265    
0.0273247270    0.0207453160    0.0005259146    
0.0275473880    0.0213666510    0.0005326702    
0.0277700490    0.0201830670    0.0005146465    
0.0279927100    0.0202321480    0.0005107761    
0.0282153710    0.0207939300    0.0005203363    
0.0284380320    0.0214673250    0.0005256297    
0.0286606930    0.0204056260    0.0005080807    
0.0288833540    0.0199625720    0.0005034893    
0.0291060150    0.0206218130    0.0005112497    
0.0293286760    0.0211479430    0.0005105162    
0.0295513370    0.0205451920    0.0004977089    
0.0297739980    0.0205933860    0.0005037784    
0.0299966590    0.0199316580    0.0004871534    
0.0302193200    0.0202226700    0.0004978477    
0.0304419810    0.0197805110    0.0004932811    
0.0306646420    0.0205732190    0.0004888695    
0.0308873030    0.0210177700    0.0004919888    
0.0311099640    0.0201314840    0.0004827541    
0.0313326250    0.0200275610    0.0004761723    
0.0315552860    0.0205267980    0.0004883182    
0.0317779470    0.0206323920    0.0004899990    
0.0320006080    0.0199055460    0.0004703556    
0.0322232690    0.0203863590    0.0004779950    
0.0324459300    0.0200389400    0.0004703665    
0.0326685910    0.0198188640    0.0004670054    
0.0328912520    0.0206814500    0.0004786398    
0.0331139130    0.0200173920    0.0004647673    
0.0333365740    0.0205060200    0.0004719330    
0.0335592350    0.0193784890    0.0004543636    
0.0337818960    0.0201347380    0.0004627758    
0.0340045570    0.0197209430    0.0004572684    
0.0342272170    0.0194604800    0.0004524470    
0.0344498780    0.0198375960    0.0004586191    
0.0346725390    0.0204782430    0.0004573361    
0.0348952000    0.0190978420    0.0004396412    
0.0351178610    0.0200492970    0.0004525213    
0.0353405220    0.0200087340    0.0004500039    
0.0355631830    0.0203002700    0.0004515633    
0.0357858440    0.0203103280    0.0004516753    
0.0360085050    0.0197763920    0.0004470454    
0.0362311660    0.0204042130    0.0004486881    
0.0364538270    0.0203401360    0.0004443875    
0.0366764880    0.0201361210    0.0004418324    
0.0368991490    0.0190026770    0.0004270534    
0.0371218100    0.0204399840    0.0004416425    
0.0373444710    0.0196003980    0.0004371866    
0.0375671320    0.0197572570    0.0004382933    
0.0377897930    0.0199931080    0.0004294878    
0.0380124540    0.0202074140    0.0004344927    
0.0382351150    0.0198150510    0.0004302539    
0.0384577760    0.0202225380    0.0004304617    
0.0386804370    0.0197508920    0.0004286588    
0.0389030980    0.0191138530    0.0004184958    
0.0391257590    0.0199489320    0.0004246376    
0.0393484200    0.0198418150    0.0004220708    
0.0395710810    0.0195082080    0.0004190713    
0.0397937420    0.0204714790    0.0004292932    
0.0400164030    0.0198034070    0.0004239479    
0.0402390640    0.0196241140    0.0004164048    
0.0404617250    0.0198560390    0.0004163872    
0.0406843860    0.0200137290    0.0004139984    
0.0409070470    0.0203716770    0.0004220353    
0.0411297080    0.0195421080    0.0004093542    
0.0413523690    0.0201687520    0.0004169376    
0.0415750300    0.0198992210    0.0004176603    
0.0417976910    0.0202058660    0.0004099810    
0.0420203520    0.0206345760    0.0004158642    
0.0422430130    0.0188825860    0.0003993241    
0.0424656740    0.0195624080    0.0004011589    
0.0426883350    0.0197819980    0.0004054063    
0.0429109960    0.0198556440    0.0004074292    
0.0431336570    0.0199258160    0.0004023981    
0.0433563180    0.0194195630    0.0004006803    
0.0435789790    0.0199435020    0.0003996702    
0.0438016400    0.0198372110    0.0004007722    
0.0440243010    0.0185243770    0.0003833542    
0.0442469620    0.0197265430    0.0003979682    
0.0444696230    0.0196730020    0.0003960026    
0.0446922840    0.0189224160    0.0003872215    
0.0449149450    0.0198237320    0.0003910379    
0.0451376060    0.0197709490    0.0003953399    
0.0453602670    0.0196449850    0.0003899473    
0.0455829280    0.0199779790    0.0003927836    
0.0458055890    0.0196803870    0.0003921205    
0.0460282500    0.0190713540    0.0003813508    
0.0462509110    0.0201377100    0.0003894300    
0.0464735720    0.0200699820    0.0003889940    
0.0466962330    0.0195681360    0.0003858460    
0.0469188940    0.0196540390    0.0003855958    
0.0471415550    0.0201468760    0.0003924054    
0.0473642160    0.0194974690    0.0003806241    
0.0475868770    0.0201208320    0.0003847399    
0.0478095380    0.0197190530    0.0003792125    
0.0480321990    0.0197762590    0.0003805943    
0.0482548600    0.0198584380    0.0003797226    
0.0484775210    0.0197511520    0.0003824555    
0.0487001820    0.0197308010    0.0003766627    
0.0489228430    0.0197167850    0.0003763266    
0.0491455040    0.0194662420    0.0003713417    
0.0493681650    0.0200184280    0.0003798078    
0.0495908260    0.0188350130    0.0003622118    
0.0498134870    0.0193230960    0.0003703673    
0.0500361480    0.0192633510    0.0003688159    
0.0502588090    0.0195536730    0.0003660171    
0.0504814700    0.0195408890    0.0003706808    
0.0507041310    0.0201294030    0.0003717482    
0.0509267920    0.0193894710    0.0003663611    
0.0511494530    0.0200333590    0.0003699114    
0.0513721140    0.0198664280    0.0003716111    
0.0515947750    0.0192280580    0.0003607446    
0.0518174360    0.0195654830    0.0003617041    
0.0520400970    0.0195456860    0.0003590144    
0.0522627580    0.0196982280    0.0003634756    
0.0524854190    0.0197608260    0.0003670126    
0.0527080800    0.0192996230    0.0003655127    
0.0529307410    0.0203128520    0.0003767458    
0.0531534020    0.0200126090    0.0003725897    
0.0533760630    0.0195866570    0.0003697571    
0.0535987240    0.0196600560    0.0003687197    
0.0538213850    0.0196229050    0.0003726390    
0.0540440460    0.0193955500    0.0003687207    
0.0542667070    0.0190597490    0.0003680339    
0.0544893680    0.0189591250    0.0003672567    
0.0547120290    0.0195142170    0.0003700417    
0.0549346900    0.0195417800    0.0003704977    
0.0551573510    0.0195875140    0.0003752976    
0.0553800120    0.0188670990    0.0003652001    
0.0556026730    0.0197606930    0.0003814976    
0.0558253340    0.0193815560    0.0003809838    
0.0560479950    0.0197934710    0.0003850112    
0.0562706560    0.0199261110    0.0003900338    
0.0564933170    0.0200406490    0.0003945499    
0.0567159780    0.0200330860    0.0003897458    
0.0569386390    0.0195635300    0.0003911924    
0.0571613000    0.0201305780    0.0003882770    
0.0573839610    0.0202911470    0.0003865857    
0.0576066220    0.0204258650    0.0003889406    
0.0578292830    0.0199377720    0.0003829940    
0.0580519440    0.0189508930    0.0003748429    
0.0582746050    0.0196954080    0.0003804500    
0.0584972660    0.0195011600    0.0003771201    
0.0587199270    0.0192954140    0.0003718918    
0.0589425880    0.0190986920    0.0003678271    
0.0591652490    0.0198258650    0.0003769694    
0.0593879100    0.0196172190    0.0003721957    
0.0596105710    0.0194208250    0.0003699373    
0.0598332320    0.0196180640    0.0003749892    
0.0600558930    0.0192908590    0.0003694780    
0.0602785540    0.0196737960    0.0003727328    
0.0605012150    0.0188034020    0.0003636267    
0.0607238760    0.0193827120    0.0003664952    
0.0609465370    0.0197102170    0.0003724881    
0.0611691980    0.0195114610    0.0003711926    
0.0613918590    0.0191568420    0.0003637885    
0.0616145200    0.0196696110    0.0003713231    
0.0618371810    0.0195738020    0.0003667796    
0.0620598420    0.0197381480    0.0003686959    
0.0622825030    0.0186497440    0.0003638671    
0.0625051640    0.0194822190    0.0003666764    
0.0627278250    0.0193539570    0.0003647148    
0.0629504860    0.0197640410    0.0003655623    
0.0631731470    0.0189532930    0.0003624149    
0.0633958080    0.0195436080    0.0003701335    
0.0636184690    0.0197026260    0.0003768121    
0.0638411300    0.0190757650    0.0003693775    
0.0640637910    0.0192652550    0.0003738184    
0.0642864520    0.0189291940    0.0003697419    
0.0645091130    0.0192991490    0.0003766091    
0.0647317740    0.0199236000    0.0003830753    
0.0649544350    0.0192844950    0.0003764665    
0.0651770960    0.0197361830    0.0003787723    
0.0653997570    0.0194118270    0.0003748323    
0.0656224180    0.0189438710    0.0003710919    
0.0658450790    0.0196390370    0.0003724086    
0.0660677400    0.0194718180    0.0003723979    
0.0662904010    0.0192393620    0.0003745875    
0.0665130620    0.0186679290    0.0003673821    
0.0667357230    0.0191878650    0.0003790854    
0.0669583840    0.0203987720    0.0003895564    
0.0671810450    0.0195487560    0.0003792481    
0.0674037060    0.0201406450    0.0003914681    
0.0676263670    0.0199967660    0.0003872115    
0.0678490280    0.0191974450    0.0003770734    
0.0680716890    0.0188812520    0.0003747874    
0.0682943500    0.0192922590    0.0003746953    
0.0685170110    0.0200347200    0.0003779463    
0.0687396720    0.0190986440    0.0003680310    
0.0689623330    0.0192949090    0.0003687449    
0.0691849940    0.0195417690    0.0003736674    
0.0694076550    0.0195423270    0.0003734733    
0.0696303160    0.0196275050    0.0003713230    
0.0698529770    0.0193284610    0.0003677112    
0.0700756380    0.0197693420    0.0003671075    
0.0702982990    0.0197285650    0.0003707224    
0.0705209600    0.0197125010    0.0003678961    
0.0707436210    0.0195998930    0.0003651591    
0.0709662820    0.0187672860    0.0003615786    
0.0711889430    0.0191654320    0.0003609060    
0.0714116040    0.0197146210    0.0003667876    
0.0716342650    0.0194059390    0.0003624272    
0.0718569260    0.0193976510    0.0003608904    
0.0720795870    0.0200016380    0.0003679483    
0.0723022480    0.0197774900    0.0003664384    
0.0725249090    0.0192005790    0.0003567304    
0.0727475700    0.0192400960    0.0003601474    
0.0729702310    0.0195182410    0.0003598482    
0.0731928920    0.0195541940    0.0003616190    
0.0734155530    0.0195162010    0.0003605467    
0.0736382140    0.0196873500    0.0003598002    
0.0738608750    0.0201756750    0.0003665882    
0.0740835360    0.0193200540    0.0003578401    
0.0743061970    0.0192887430    0.0003525153    
0.0745288580    0.0197466340    0.0003603424    
0.0747515190    0.0192965800    0.0003569159    
0.0749741800    0.0200231510    0.0003602079    
0.0751968410    0.0191803570    0.0003553137    
0.0754195020    0.0197108770    0.0003580838    
0.0756421630    0.0197547020    0.0003555512    
0.0758648240    0.0193032340    0.0003523098    
0.0760874850    0.0200363020    0.0003587648    
0.0763101460    0.0187219570    0.0003464654    
0.0765328070    0.0195978210    0.0003581042    
0.0767554680    0.0193327550    0.0003532607    
0.0769781290    0.0195259700    0.0003529815    
0.0772007900    0.0205954220    0.0003596117    
0.0774234510    0.0195538830    0.0003523937    
0.0776461120    0.0199605140    0.0003557013    
0.0778687730    0.0192054610    0.0003477561    
0.0780914340    0.0195064490    0.0003529748    
0.0783140950    0.0193377830    0.0003458694    
0.0785367560    0.0201324490    0.0003585944    
0.0787594170    0.0194847360    0.0003496180    
0.0789820780    0.0196084450    0.0003489290    
0.0792047390    0.0200868610    0.0003543147    
0.0794274000    0.0200116260    0.0003551489    
0.0796500610    0.0192644330    0.0003450546    
0.0798727220    0.0199506620    0.0003508224    
0.0800953830    0.0192940610    0.0003442077    
0.0803180440    0.0196883410    0.0003501291    
0.0805407050    0.0195895900    0.0003489251    
0.0807633660    0.0191376090    0.0003445562    
0.0809860270    0.0194953040    0.0003464771    
0.0812086880    0.0198557650    0.0003466439    
0.0814313490    0.0197136170    0.0003469761    
0.0816540100    0.0197759380    0.0003467329    
0.0818766710    0.0190296800    0.0003409045    
0.0820993320    0.0198731100    0.0003477425    
0.0823219930    0.0195895140    0.0003466763    
0.0825446540    0.0194026340    0.0003425120    
0.0827673150    0.0192680780    0.0003390292    
0.0829899760    0.0194670230    0.0003401683    
0.0832126370    0.0196358030    0.0003431700    
0.0834352980    0.0191898510    0.0003384922    
0.0836579590    0.0202398490    0.0003468556    
0.0838806200    0.0190508070    0.0003375660    
0.0841032810    0.0196361420    0.0003405851    
0.0843259420    0.0190046050    0.0003340316    
0.0845486030    0.0186347560    0.0003307655    
0.0847712640    0.0192550800    0.0003341768    
0.0849939250    0.0200962520    0.0003419927    
0.0852165860    0.0196646150    0.0003387431    
0.0854392470    0.0193397330    0.0003327520    
0.0856619080    0.0194687890    0.0003363192    
0.0858845690    0.0195076620    0.0003336228    
0.0861072300    0.0192225960    0.0003334624    
0.0863298910    0.0196757910    0.0003391370    
0.0865525520    0.0195040610    0.0003347381    
0.0867752130    0.0193827630    0.0003310030    
0.0869978740    0.0197487130    0.0003349646    
0.0872205350    0.0201235170    0.0003376980    
0.0874431960    0.0201632170    0.0003380313    
0.0876658570    0.0197415790    0.0003357625    
0.0878885180    0.0193681080    0.0003331416    
0.0881111790    0.0195870620    0.0003345895    
0.0883338400    0.0190565460    0.0003251951    
0.0885565010    0.0193203520    0.0003318786    
0.0887791620    0.0190446780    0.0003252295    
0.0890018230    0.0196537330    0.0003335936    
0.0892244840    0.0193910850    0.0003319204    
0.0894471450    0.0200275920    0.0003358992    
0.0896698060    0.0195636800    0.0003307338    
0.0898924670    0.0191924370    0.0003290992    
0.0901151280    0.0200777200    0.0003329680    
0.0903377890    0.0193315490    0.0003294566    
0.0905604500    0.0187428360    0.0003229125    
0.0907831110    0.0193637970    0.0003274015    
0.0910057720    0.0192067280    0.0003275672    
0.0912284330    0.0189483410    0.0003206980    
0.0914510940    0.0194565360    0.0003285940    
0.0916737550    0.0195478370    0.0003285467    
0.0918964160    0.0194713430    0.0003292669    
0.0921190770    0.0198972510    0.0003298390    
0.0923417380    0.0197767730    0.0003289738    
0.0925643990    0.0195875230    0.0003265948    
0.0927870600    0.0194135990    0.0003264750    
0.0930097210    0.0190465400    0.0003206197    
0.0932323820    0.0193385400    0.0003254429    
