# Diamond Light Source Ltd.
# Data extracted from: /dls/b21/data/2018/cm19678-3/processed/b21-386631_00655.dat
q(1/A)          Column          Error           
0.0035000000    2.0709871000    0.0245246140    
0.0037226610    1.8792130000    0.0228696640    
0.0039453220    1.6238502000    0.0193397750    
0.0041679830    1.2915060000    0.0141641800    
0.0043906440    0.9527765600    0.0116365450    
0.0046133050    0.7868912200    0.0101519560    
0.0048359660    0.5878109400    0.0082996332    
0.0050586270    0.4616897500    0.0072298056    
0.0052812880    0.4264868600    0.0065698944    
0.0055039490    0.3719570500    0.0058339475    
0.0057266100    0.3168562400    0.0052090846    
0.0059492710    0.2662449100    0.0047749734    
0.0061719320    0.2232124300    0.0042130553    
0.0063945930    0.2025896300    0.0040623686    
0.0066172539    0.1826496100    0.0036219760    
0.0068399149    0.1672006400    0.0034108376    
0.0070625759    0.1449762500    0.0031434975    
0.0072852369    0.1251943500    0.0028774609    
0.0075078979    0.1134890500    0.0027261809    
0.0077305589    0.1002582100    0.0025135344    
0.0079532199    0.0995823890    0.0024703350    
0.0081758809    0.0889583710    0.0023565648    
0.0083985419    0.0832516490    0.0021262864    
0.0086212029    0.0759746090    0.0020312324    
0.0088438639    0.0706977790    0.0019436848    
0.0090665249    0.0666971570    0.0018233887    
0.0092891859    0.0629411100    0.0018488117    
0.0095118469    0.0575055810    0.0016994455    
0.0097345079    0.0575116460    0.0016506175    
0.0099571689    0.0556640820    0.0015904024    
0.0101798300    0.0499840830    0.0015070768    
0.0104024910    0.0477959060    0.0014687326    
0.0106251520    0.0444404100    0.0014210476    
0.0108478130    0.0472750010    0.0014273426    
0.0110704740    0.0422656790    0.0012849145    
0.0112931350    0.0427893560    0.0012966472    
0.0115157960    0.0400005220    0.0012463702    
0.0117384570    0.0375590000    0.0011973372    
0.0119611180    0.0380819770    0.0012091040    
0.0121837790    0.0370723510    0.0011729173    
0.0124064400    0.0366702140    0.0011179112    
0.0126291010    0.0355254010    0.0010865511    
0.0128517620    0.0345340880    0.0010739590    
0.0130744230    0.0331353050    0.0010441821    
0.0132970840    0.0324210340    0.0010278159    
0.0135197450    0.0302011630    0.0009777988    
0.0137424060    0.0316747710    0.0009874288    
0.0139650670    0.0307796580    0.0009516953    
0.0141877280    0.0295858270    0.0009351185    
0.0144103890    0.0291738140    0.0009125733    
0.0146330500    0.0298755430    0.0009176200    
0.0148557110    0.0288150360    0.0008974078    
0.0150783720    0.0288630050    0.0008907317    
0.0153010330    0.0279479730    0.0008641407    
0.0155236940    0.0263756840    0.0008344897    
0.0157463550    0.0274837730    0.0008370800    
0.0159690160    0.0266177180    0.0008206594    
0.0161916770    0.0255180820    0.0007990021    
0.0164143380    0.0262617730    0.0008167023    
0.0166369990    0.0259794060    0.0007872547    
0.0168596600    0.0253595710    0.0007709537    
0.0170823210    0.0246920090    0.0007541522    
0.0173049820    0.0244076430    0.0007510933    
0.0175276430    0.0256568310    0.0007781946    
0.0177503040    0.0250826750    0.0007498231    
0.0179729650    0.0244338200    0.0007327216    
0.0181956260    0.0243726380    0.0007177743    
0.0184182870    0.0246041090    0.0007177756    
0.0186409480    0.0238138600    0.0007106241    
0.0188636090    0.0239968740    0.0007088631    
0.0190862700    0.0225441920    0.0006859979    
0.0193089310    0.0229525800    0.0006911046    
0.0195315920    0.0224082820    0.0006596380    
0.0197542530    0.0228241620    0.0006667009    
0.0199769140    0.0227267970    0.0006652774    
0.0201995750    0.0226244260    0.0006533832    
0.0204222360    0.0219779940    0.0006495092    
0.0206448970    0.0226506880    0.0006546879    
0.0208675580    0.0216548290    0.0006269523    
0.0210902190    0.0229444030    0.0006515773    
0.0213128800    0.0217138010    0.0006252622    
0.0215355410    0.0232386270    0.0006391382    
0.0217582020    0.0222015110    0.0006247135    
0.0219808630    0.0214419570    0.0006131281    
0.0222035240    0.0218987090    0.0006140093    
0.0224261850    0.0225591130    0.0006176524    
0.0226488460    0.0213053980    0.0005957367    
0.0228715070    0.0215974770    0.0005983163    
0.0230941680    0.0221776170    0.0006062990    
0.0233168290    0.0210222400    0.0005917650    
0.0235394900    0.0208703360    0.0005831159    
0.0237621510    0.0208724900    0.0005674471    
0.0239848120    0.0207971150    0.0005670769    
0.0242074730    0.0208002580    0.0005625802    
0.0244301340    0.0212442760    0.0005692019    
0.0246527950    0.0215929240    0.0005791673    
0.0248754560    0.0210488810    0.0005589731    
0.0250981170    0.0207104590    0.0005556977    
0.0253207780    0.0205868000    0.0005374942    
0.0255434390    0.0208422390    0.0005465906    
0.0257661000    0.0204867670    0.0005436624    
0.0259887610    0.0209857240    0.0005443955    
0.0262114220    0.0206247400    0.0005425685    
0.0264340830    0.0206783700    0.0005358817    
0.0266567440    0.0209722690    0.0005363418    
0.0268794050    0.0210871210    0.0005356134    
0.0271020660    0.0209167310    0.0005312855    
0.0273247270    0.0204662450    0.0005223769    
0.0275473880    0.0201989570    0.0005179220    
0.0277700490    0.0212732170    0.0005283743    
0.0279927100    0.0196656470    0.0005035856    
0.0282153710    0.0207818350    0.0005201965    
0.0284380320    0.0202713090    0.0005107890    
0.0286606930    0.0203053240    0.0005068418    
0.0288833540    0.0202682460    0.0005073407    
0.0291060150    0.0205720300    0.0005106436    
0.0293286760    0.0212105070    0.0005112821    
0.0295513370    0.0204014160    0.0004959754    
0.0297739980    0.0196453140    0.0004920563    
0.0299966590    0.0204326450    0.0004932487    
0.0302193200    0.0201990580    0.0004975681    
0.0304419810    0.0204456920    0.0005015177    
0.0306646420    0.0198771000    0.0004805383    
0.0308873030    0.0204198170    0.0004849506    
0.0311099640    0.0203754960    0.0004856818    
0.0313326250    0.0203001790    0.0004794129    
0.0315552860    0.0204115390    0.0004869562    
0.0317779470    0.0201561720    0.0004843219    
0.0320006080    0.0206844620    0.0004794806    
0.0322232690    0.0207010890    0.0004816813    
0.0324459300    0.0210445840    0.0004820354    
0.0326685910    0.0201278820    0.0004706426    
0.0328912520    0.0199623100    0.0004702550    
0.0331139130    0.0204283620    0.0004695245    
0.0333365740    0.0196271330    0.0004617190    
0.0335592350    0.0199866210    0.0004614482    
0.0337818960    0.0197633430    0.0004584981    
0.0340045570    0.0204852460    0.0004660555    
0.0342272170    0.0204712320    0.0004640583    
0.0344498780    0.0203368270    0.0004643644    
0.0346725390    0.0199990950    0.0004519642    
0.0348952000    0.0197565700    0.0004471690    
0.0351178610    0.0195292730    0.0004466241    
0.0353405220    0.0196655040    0.0004461374    
0.0355631830    0.0203815350    0.0004524763    
0.0357858440    0.0197788410    0.0004457363    
0.0360085050    0.0205756400    0.0004559996    
0.0362311660    0.0194381470    0.0004379472    
0.0364538270    0.0194672020    0.0004347568    
0.0366764880    0.0207381230    0.0004483984    
0.0368991490    0.0196561690    0.0004343441    
0.0371218100    0.0200305490    0.0004372065    
0.0373444710    0.0197377970    0.0004387260    
0.0375671320    0.0198650950    0.0004394976    
0.0377897930    0.0196987480    0.0004263239    
0.0380124540    0.0203577980    0.0004361162    
0.0382351150    0.0203204410    0.0004357160    
0.0384577760    0.0199851930    0.0004279377    
0.0386804370    0.0196308230    0.0004273634    
0.0389030980    0.0200035470    0.0004281344    
0.0391257590    0.0199588600    0.0004247527    
0.0393484200    0.0196002770    0.0004195032    
0.0395710810    0.0201122640    0.0004255194    
0.0397937420    0.0202653260    0.0004271357    
0.0400164030    0.0202580990    0.0004287969    
0.0402390640    0.0196868400    0.0004170791    
0.0404617250    0.0197783340    0.0004155809    
0.0406843860    0.0201430840    0.0004153434    
0.0409070470    0.0196468660    0.0004144687    
0.0411297080    0.0196115800    0.0004100903    
0.0413523690    0.0194542310    0.0004094947    
0.0415750300    0.0201017380    0.0004197895    
0.0417976910    0.0193915070    0.0004016432    
0.0420203520    0.0196716110    0.0004060536    
0.0422430130    0.0197955060    0.0004088724    
0.0424656740    0.0198841230    0.0004044531    
0.0426883350    0.0207051380    0.0004147669    
0.0429109960    0.0199066920    0.0004079617    
0.0431336570    0.0200973640    0.0004041355    
0.0433563180    0.0199908870    0.0004065406    
0.0435789790    0.0197761850    0.0003979990    
0.0438016400    0.0199757460    0.0004021781    
0.0440243010    0.0192630360    0.0003909313    
0.0442469620    0.0195266950    0.0003959560    
0.0444696230    0.0194985030    0.0003942512    
0.0446922840    0.0199454950    0.0003975605    
0.0449149450    0.0197629040    0.0003904462    
0.0451376060    0.0194793230    0.0003924222    
0.0453602670    0.0197000450    0.0003905020    
0.0455829280    0.0197085710    0.0003901349    
0.0458055890    0.0197437680    0.0003927602    
0.0460282500    0.0194916230    0.0003855384    
0.0462509110    0.0197093240    0.0003852742    
0.0464735720    0.0200557960    0.0003888652    
0.0466962330    0.0198200870    0.0003883307    
0.0469188940    0.0205400660    0.0003942003    
0.0471415550    0.0201401290    0.0003923484    
0.0473642160    0.0190301980    0.0003760439    
0.0475868770    0.0197097300    0.0003807977    
0.0478095380    0.0196907590    0.0003789488    
0.0480321990    0.0195354190    0.0003782781    
0.0482548600    0.0200771570    0.0003818165    
0.0484775210    0.0194706000    0.0003797380    
0.0487001820    0.0197029160    0.0003764049    
0.0489228430    0.0201558330    0.0003805020    
0.0491455040    0.0197929770    0.0003744535    
0.0493681650    0.0198535720    0.0003782491    
0.0495908260    0.0194209890    0.0003678112    
0.0498134870    0.0194233450    0.0003713351    
0.0500361480    0.0194266270    0.0003703839    
0.0502588090    0.0195545440    0.0003660334    
0.0504814700    0.0199707080    0.0003747436    
0.0507041310    0.0199174620    0.0003697942    
0.0509267920    0.0198541520    0.0003707334    
0.0511494530    0.0199591140    0.0003692335    
0.0513721140    0.0198186520    0.0003711723    
0.0515947750    0.0198583720    0.0003666178    
0.0518174360    0.0199542040    0.0003652877    
0.0520400970    0.0201730480    0.0003647386    
0.0522627580    0.0192966720    0.0003597597    
0.0524854190    0.0193458860    0.0003631470    
0.0527080800    0.0188712750    0.0003614417    
0.0529307410    0.0185108850    0.0003596551    
0.0531534020    0.0190076220    0.0003631219    
0.0533760630    0.0201250340    0.0003748127    
0.0535987240    0.0192529130    0.0003648899    
0.0538213850    0.0193831690    0.0003703640    
0.0540440460    0.0194174430    0.0003689369    
0.0542667070    0.0194514750    0.0003718049    
0.0544893680    0.0191236010    0.0003688545    
0.0547120290    0.0198308640    0.0003730401    
0.0549346900    0.0198447110    0.0003733667    
0.0551573510    0.0199910840    0.0003791525    
0.0553800120    0.0192991660    0.0003693663    
0.0556026730    0.0194595890    0.0003785884    
0.0558253340    0.0190828450    0.0003780449    
0.0560479950    0.0198467780    0.0003855379    
0.0562706560    0.0195605240    0.0003864479    
0.0564933170    0.0190161600    0.0003843414    
0.0567159780    0.0196775830    0.0003862808    
0.0569386390    0.0199711780    0.0003952558    
0.0571613000    0.0198094300    0.0003851759    
0.0573839610    0.0194302830    0.0003783047    
0.0576066220    0.0196342920    0.0003813383    
0.0578292830    0.0193206340    0.0003770284    
0.0580519440    0.0196931970    0.0003821221    
0.0582746050    0.0195713450    0.0003792583    
0.0584972660    0.0194801480    0.0003769253    
0.0587199270    0.0198697140    0.0003773940    
0.0589425880    0.0197442220    0.0003740000    
0.0591652490    0.0196117070    0.0003749362    
0.0593879100    0.0192649950    0.0003688474    
0.0596105710    0.0194146430    0.0003698866    
0.0598332320    0.0200275160    0.0003788906    
0.0600558930    0.0194474110    0.0003709825    
0.0602785540    0.0197523530    0.0003734845    
0.0605012150    0.0197254640    0.0003724438    
0.0607238760    0.0200973780    0.0003731989    
0.0609465370    0.0190916030    0.0003666043    
0.0611691980    0.0202609030    0.0003782627    
0.0613918590    0.0201041810    0.0003726833    
0.0616145200    0.0204906740    0.0003790023    
0.0618371810    0.0189835850    0.0003612155    
0.0620598420    0.0200282940    0.0003714042    
0.0622825030    0.0201059870    0.0003778146    
0.0625051640    0.0200766210    0.0003722363    
0.0627278250    0.0188393320    0.0003598413    
0.0629504860    0.0197243500    0.0003652031    
0.0631731470    0.0197372510    0.0003698424    
0.0633958080    0.0191448950    0.0003663466    
0.0636184690    0.0203232920    0.0003827097    
0.0638411300    0.0195057850    0.0003735260    
0.0640637910    0.0196360570    0.0003774072    
0.0642864520    0.0194789420    0.0003750809    
0.0645091130    0.0197409840    0.0003809042    
0.0647317740    0.0198508290    0.0003823836    
0.0649544350    0.0193368010    0.0003769851    
0.0651770960    0.0194099270    0.0003756369    
0.0653997570    0.0198686940    0.0003792260    
0.0656224180    0.0185885010    0.0003676030    
0.0658450790    0.0198376520    0.0003742953    
0.0660677400    0.0189242600    0.0003671327    
0.0662904010    0.0198455790    0.0003804517    
0.0665130620    0.0197243910    0.0003776430    
0.0667357230    0.0199002450    0.0003860670    
0.0669583840    0.0201616090    0.0003872938    
0.0671810450    0.0194466170    0.0003782644    
0.0674037060    0.0186425300    0.0003766360    
0.0676263670    0.0197502160    0.0003848256    
0.0678490280    0.0197834340    0.0003827936    
0.0680716890    0.0190383270    0.0003763515    
0.0682943500    0.0196788340    0.0003784391    
0.0685170110    0.0192869510    0.0003708343    
0.0687396720    0.0193406320    0.0003703634    
0.0689623330    0.0191477720    0.0003673444    
0.0691849940    0.0192711150    0.0003710790    
0.0694076550    0.0191077940    0.0003693060    
0.0696303160    0.0196705300    0.0003717381    
0.0698529770    0.0193503080    0.0003679271    
0.0700756380    0.0198656650    0.0003680089    
0.0702982990    0.0200917070    0.0003741271    
0.0705209600    0.0189443450    0.0003606648    
0.0707436210    0.0200021700    0.0003688956    
0.0709662820    0.0196389510    0.0003698884    
0.0711889430    0.0199478890    0.0003682077    
0.0714116040    0.0192309710    0.0003622686    
0.0716342650    0.0195624910    0.0003638943    
0.0718569260    0.0195059480    0.0003619045    
0.0720795870    0.0195286960    0.0003635803    
0.0723022480    0.0193098820    0.0003620886    
0.0725249090    0.0200962190    0.0003649638    
0.0727475700    0.0198814180    0.0003661086    
0.0729702310    0.0190215120    0.0003552476    
0.0731928920    0.0189799150    0.0003562772    
0.0734155530    0.0193238980    0.0003587739    
0.0736382140    0.0194186150    0.0003573440    
0.0738608750    0.0200033840    0.0003650277    
0.0740835360    0.0192082360    0.0003568111    
0.0743061970    0.0191027620    0.0003508196    
0.0745288580    0.0198264250    0.0003610778    
0.0747515190    0.0191852060    0.0003558924    
0.0749741800    0.0195963440    0.0003563561    
0.0751968410    0.0203331370    0.0003658436    
0.0754195020    0.0198418650    0.0003592796    
0.0756421630    0.0201907540    0.0003594619    
0.0758648240    0.0197285010    0.0003561774    
0.0760874850    0.0194654370    0.0003536249    
0.0763101460    0.0195435160    0.0003539934    
0.0765328070    0.0191340830    0.0003538498    
0.0767554680    0.0192884290    0.0003528634    
0.0769781290    0.0193609250    0.0003514943    
0.0772007900    0.0192274360    0.0003474712    
0.0774234510    0.0186211560    0.0003438940    
0.0776461120    0.0190866260    0.0003478354    
0.0778687730    0.0195148760    0.0003505541    
0.0780914340    0.0191751690    0.0003499725    
0.0783140950    0.0194747450    0.0003470998    
0.0785367560    0.0200822450    0.0003581550    
0.0787594170    0.0196612630    0.0003512060    
0.0789820780    0.0200067200    0.0003524627    
0.0792047390    0.0192252440    0.0003466400    
0.0794274000    0.0197162690    0.0003525262    
0.0796500610    0.0195805070    0.0003478815    
0.0798727220    0.0192914340    0.0003449853    
0.0800953830    0.0194914310    0.0003459715    
0.0803180440    0.0193093820    0.0003467508    
0.0805407050    0.0193604980    0.0003468866    
0.0807633660    0.0193866100    0.0003467982    
0.0809860270    0.0193052740    0.0003447920    
0.0812086880    0.0194269570    0.0003428880    
0.0814313490    0.0190060430    0.0003406998    
0.0816540100    0.0201294340    0.0003498259    
0.0818766710    0.0196290480    0.0003462393    
0.0820993320    0.0193750150    0.0003433646    
0.0823219930    0.0190381990    0.0003417708    
0.0825446540    0.0191434950    0.0003402246    
0.0827673150    0.0195851130    0.0003418146    
0.0829899760    0.0196283880    0.0003415829    
0.0832126370    0.0195407130    0.0003423457    
0.0834352980    0.0194653700    0.0003409211    
0.0836579590    0.0194679760    0.0003401850    
0.0838806200    0.0192011970    0.0003389033    
0.0841032810    0.0199383060    0.0003432032    
0.0843259420    0.0201327440    0.0003438106    
0.0845486030    0.0199390200    0.0003421527    
0.0847712640    0.0196503360    0.0003375968    
0.0849939250    0.0194743850    0.0003366672    
0.0852165860    0.0192861850    0.0003354753    
0.0854392470    0.0192089090    0.0003316320    
0.0856619080    0.0196207180    0.0003376365    
0.0858845690    0.0194800010    0.0003333936    
0.0861072300    0.0197903790    0.0003383589    
0.0863298910    0.0194369930    0.0003370802    
0.0865525520    0.0192406510    0.0003324775    
0.0867752130    0.0198132420    0.0003346660    
0.0869978740    0.0195791410    0.0003335308    
0.0872205350    0.0196483640    0.0003336948    
0.0874431960    0.0199884300    0.0003365704    
0.0876658570    0.0195026020    0.0003337315    
0.0878885180    0.0197013370    0.0003360027    
0.0881111790    0.0194793340    0.0003336755    
0.0883338400    0.0198176930    0.0003316333    
0.0885565010    0.0194922470    0.0003333591    
0.0887791620    0.0197009270    0.0003307928    
0.0890018230    0.0185390920    0.0003240031    
0.0892244840    0.0192953580    0.0003311075    
0.0894471450    0.0191777660    0.0003287027    
0.0896698060    0.0195142280    0.0003303229    
0.0898924670    0.0192666560    0.0003297422    
0.0901151280    0.0195595300    0.0003286504    
0.0903377890    0.0197872240    0.0003333243    
0.0905604500    0.0195948960    0.0003301781    
0.0907831110    0.0192484050    0.0003264318    
0.0910057720    0.0193751890    0.0003290079    
0.0912284330    0.0196331140    0.0003264487    
0.0914510940    0.0197959370    0.0003314550    
0.0916737550    0.0195928850    0.0003289323    
0.0918964160    0.0190378850    0.0003255886    
0.0921190770    0.0197887770    0.0003289460    
0.0923417380    0.0190607550    0.0003229709    
0.0925643990    0.0188586640    0.0003204680    
0.0927870600    0.0186677530    0.0003201493    
0.0930097210    0.0196734860    0.0003258611    
0.0932323820    0.0195968220    0.0003276163    
