# Diamond Light Source Ltd.
# Data extracted from: /dls/b21/data/2018/cm19678-3/processed/b21-386631_00671.dat
q(1/A)          Column          Error           
0.0035000000    2.0736518000    0.0245475640    
0.0037226610    1.8246160000    0.0225415900    
0.0039453220    1.6116636000    0.0192727030    
0.0041679830    1.2841792000    0.0141280770    
0.0043906440    0.9621506500    0.0116970700    
0.0046133050    0.7798817400    0.0101095950    
0.0048359660    0.5693939300    0.0081709678    
0.0050586270    0.4602606600    0.0072207190    
0.0052812880    0.4261287900    0.0065690567    
0.0055039490    0.3873729500    0.0059553567    
0.0057266100    0.3169559500    0.0052114279    
0.0059492710    0.2617735900    0.0047360930    
0.0061719320    0.2262869800    0.0042432124    
0.0063945930    0.1862437300    0.0038961759    
0.0066172539    0.1851280700    0.0036475339    
0.0068399149    0.1605452600    0.0033432421    
0.0070625759    0.1422648800    0.0031148744    
0.0072852369    0.1263263900    0.0028912864    
0.0075078979    0.1144728000    0.0027387719    
0.0077305589    0.0994971810    0.0025047090    
0.0079532199    0.0952258060    0.0024164006    
0.0081758809    0.0946321300    0.0024312650    
0.0083985419    0.0805291130    0.0020918417    
0.0086212029    0.0740628870    0.0020061006    
0.0088438639    0.0711134240    0.0019499603    
0.0090665249    0.0627459750    0.0017690722    
0.0092891859    0.0616738200    0.0018306399    
0.0095118469    0.0596498350    0.0017313461    
0.0097345079    0.0570238790    0.0016440838    
0.0099571689    0.0539689180    0.0015664565    
0.0101798300    0.0498314610    0.0015052143    
0.0104024910    0.0498560470    0.0015004907    
0.0106251520    0.0449210780    0.0014291299    
0.0108478130    0.0459659400    0.0014078538    
0.0110704740    0.0443619350    0.0013167780    
0.0112931350    0.0409272560    0.0012684906    
0.0115157960    0.0397519180    0.0012428545    
0.0117384570    0.0389176970    0.0012191581    
0.0119611180    0.0366446190    0.0011864133    
0.0121837790    0.0389506000    0.0012026144    
0.0124064400    0.0361119680    0.0011096938    
0.0126291010    0.0363442300    0.0010993232    
0.0128517620    0.0358575980    0.0010946653    
0.0130744230    0.0323315870    0.0010317424    
0.0132970840    0.0329942550    0.0010371655    
0.0135197450    0.0325628510    0.0010156074    
0.0137424060    0.0317549040    0.0009889663    
0.0139650670    0.0289427400    0.0009231300    
0.0141877280    0.0292482540    0.0009300404    
0.0144103890    0.0284196960    0.0009009649    
0.0146330500    0.0287931850    0.0009011080    
0.0148557110    0.0299504940    0.0009151858    
0.0150783720    0.0279722390    0.0008771356    
0.0153010330    0.0276702450    0.0008600879    
0.0155236940    0.0279761680    0.0008596868    
0.0157463550    0.0269641410    0.0008293715    
0.0159690160    0.0267598750    0.0008230886    
0.0161916770    0.0273603750    0.0008275838    
0.0164143380    0.0252352010    0.0008008149    
0.0166369990    0.0258513850    0.0007855423    
0.0168596600    0.0242721930    0.0007544646    
0.0170823210    0.0253978680    0.0007650793    
0.0173049820    0.0261333090    0.0007774190    
0.0175276430    0.0248216250    0.0007656475    
0.0177503040    0.0256132040    0.0007579331    
0.0179729650    0.0236786160    0.0007215201    
0.0181956260    0.0242388420    0.0007160108    
0.0184182870    0.0249746870    0.0007233724    
0.0186409480    0.0236792680    0.0007088203    
0.0188636090    0.0234033090    0.0007002461    
0.0190862700    0.0235390460    0.0007011758    
0.0193089310    0.0233616160    0.0006974394    
0.0195315920    0.0232568510    0.0006722083    
0.0197542530    0.0228375150    0.0006670909    
0.0199769140    0.0231687850    0.0006719119    
0.0201995750    0.0227509460    0.0006553992    
0.0204222360    0.0225478260    0.0006580678    
0.0206448970    0.0221337900    0.0006473640    
0.0208675580    0.0225029590    0.0006392989    
0.0210902190    0.0219210230    0.0006370668    
0.0213128800    0.0225191800    0.0006369386    
0.0215355410    0.0211239950    0.0006095433    
0.0217582020    0.0210184710    0.0006080190    
0.0219808630    0.0222088310    0.0006241786    
0.0222035240    0.0211535750    0.0006036492    
0.0224261850    0.0219124020    0.0006089128    
0.0226488460    0.0211178520    0.0005932823    
0.0228715070    0.0215603580    0.0005979767    
0.0230941680    0.0212618390    0.0005938227    
0.0233168290    0.0218512530    0.0006034968    
0.0235394900    0.0218769540    0.0005971874    
0.0237621510    0.0221195700    0.0005843238    
0.0239848120    0.0218458790    0.0005813694    
0.0242074730    0.0199446090    0.0005510486    
0.0244301340    0.0211498880    0.0005681022    
0.0246527950    0.0201133750    0.0005591365    
0.0248754560    0.0216701590    0.0005673283    
0.0250981170    0.0209165240    0.0005586187    
0.0253207780    0.0208094670    0.0005405512    
0.0255434390    0.0213564320    0.0005534538    
0.0257661000    0.0206719830    0.0005462741    
0.0259887610    0.0213653960    0.0005494587    
0.0262114220    0.0202512060    0.0005377901    
0.0264340830    0.0210100660    0.0005403206    
0.0266567440    0.0202434240    0.0005270939    
0.0268794050    0.0193978900    0.0005138627    
0.0271020660    0.0212530300    0.0005356961    
0.0273247270    0.0213053530    0.0005331339    
0.0275473880    0.0208884540    0.0005268416    
0.0277700490    0.0209967770    0.0005250836    
0.0279927100    0.0202706930    0.0005114233    
0.0282153710    0.0206637060    0.0005188677    
0.0284380320    0.0205407330    0.0005143226    
0.0286606930    0.0201273240    0.0005047629    
0.0288833540    0.0199751410    0.0005038063    
0.0291060150    0.0203050470    0.0005074676    
0.0293286760    0.0201130610    0.0004980251    
0.0295513370    0.0212699410    0.0005065708    
0.0297739980    0.0196938030    0.0004928073    
0.0299966590    0.0201824890    0.0004903634    
0.0302193200    0.0198184310    0.0004930019    
0.0304419810    0.0203468730    0.0005004506    
0.0306646420    0.0199236020    0.0004812408    
0.0308873030    0.0194522380    0.0004734601    
0.0311099640    0.0203179150    0.0004851369    
0.0313326250    0.0203233850    0.0004798271    
0.0315552860    0.0207605790    0.0004912457    
0.0317779470    0.0193179300    0.0004742828    
0.0320006080    0.0202739580    0.0004748377    
0.0322232690    0.0199169710    0.0004726088    
0.0324459300    0.0209795630    0.0004814309    
0.0326685910    0.0195560600    0.0004640448    
0.0328912520    0.0200183270    0.0004710521    
0.0331139130    0.0205914840    0.0004715332    
0.0333365740    0.0199537910    0.0004656816    
0.0335592350    0.0200302950    0.0004620872    
0.0337818960    0.0203922070    0.0004658719    
0.0340045570    0.0205290590    0.0004666901    
0.0342272170    0.0199779710    0.0004585675    
0.0344498780    0.0192984000    0.0004524858    
0.0346725390    0.0188763740    0.0004392230    
0.0348952000    0.0195959680    0.0004454780    
0.0351178610    0.0202765420    0.0004552218    
0.0353405220    0.0199909510    0.0004499455    
0.0355631830    0.0201622870    0.0004501677    
0.0357858440    0.0199411780    0.0004476927    
0.0360085050    0.0201933170    0.0004518753    
0.0362311660    0.0202196030    0.0004467943    
0.0364538270    0.0198769070    0.0004394364    
0.0366764880    0.0198868750    0.0004392276    
0.0368991490    0.0189762280    0.0004268904    
0.0371218100    0.0195075530    0.0004315873    
0.0373444710    0.0204031030    0.0004461894    
0.0375671320    0.0201394060    0.0004426510    
0.0377897930    0.0198949130    0.0004285667    
0.0380124540    0.0194722820    0.0004266505    
0.0382351150    0.0191544570    0.0004231544    
0.0384577760    0.0193734160    0.0004214601    
0.0386804370    0.0202753310    0.0004344492    
0.0389030980    0.0200060820    0.0004282868    
0.0391257590    0.0191474760    0.0004161512    
0.0393484200    0.0203035010    0.0004270873    
0.0395710810    0.0199078380    0.0004234752    
0.0397937420    0.0190430770    0.0004141757    
0.0400164030    0.0194526150    0.0004203086    
0.0402390640    0.0192297710    0.0004123296    
0.0404617250    0.0204102520    0.0004222911    
0.0406843860    0.0195121760    0.0004089067    
0.0409070470    0.0188622280    0.0004062268    
0.0411297080    0.0196144740    0.0004102405    
0.0413523690    0.0199399630    0.0004146966    
0.0415750300    0.0198240330    0.0004170017    
0.0417976910    0.0201187020    0.0004092245    
0.0420203520    0.0197921450    0.0004074149    
0.0422430130    0.0193592320    0.0004044600    
0.0424656740    0.0190479030    0.0003959729    
0.0426883350    0.0195034810    0.0004026689    
0.0429109960    0.0204871950    0.0004139883    
0.0431336570    0.0198245210    0.0004015003    
0.0433563180    0.0194566070    0.0004011885    
0.0435789790    0.0194431330    0.0003947488    
0.0438016400    0.0196714590    0.0003992199    
0.0440243010    0.0198617440    0.0003970761    
0.0442469620    0.0203093610    0.0004039315    
0.0444696230    0.0198608660    0.0003980142    
0.0446922840    0.0198540880    0.0003967645    
0.0449149450    0.0189486010    0.0003824295    
0.0451376060    0.0194828100    0.0003925721    
0.0453602670    0.0198200040    0.0003918038    
0.0455829280    0.0198514660    0.0003916612    
0.0458055890    0.0196380550    0.0003918219    
0.0460282500    0.0197548270    0.0003882462    
0.0462509110    0.0205347090    0.0003933737    
0.0464735720    0.0199694560    0.0003881408    
0.0466962330    0.0194586500    0.0003848862    
0.0469188940    0.0198480900    0.0003876166    
0.0471415550    0.0193718390    0.0003849047    
0.0473642160    0.0200971190    0.0003865545    
0.0475868770    0.0198316830    0.0003820857    
0.0478095380    0.0199649770    0.0003816900    
0.0480321990    0.0195615070    0.0003786413    
0.0482548600    0.0197619600    0.0003789183    
0.0484775210    0.0193560150    0.0003787297    
0.0487001820    0.0200670010    0.0003799778    
0.0489228430    0.0194488940    0.0003738789    
0.0491455040    0.0191666160    0.0003685888    
0.0493681650    0.0196416600    0.0003763350    
0.0495908260    0.0193975020    0.0003676963    
0.0498134870    0.0198253930    0.0003752683    
0.0500361480    0.0195793090    0.0003719453    
0.0502588090    0.0192849040    0.0003636073    
0.0504814700    0.0198698160    0.0003739052    
0.0507041310    0.0195787590    0.0003667437    
0.0509267920    0.0191107580    0.0003638330    
0.0511494530    0.0196222250    0.0003662112    
0.0513721140    0.0190581830    0.0003640879    
0.0515947750    0.0190369950    0.0003590608    
0.0518174360    0.0194172190    0.0003604444    
0.0520400970    0.0200000930    0.0003632780    
0.0522627580    0.0197374760    0.0003639520    
0.0524854190    0.0195140810    0.0003648289    
0.0527080800    0.0199698150    0.0003719219    
0.0529307410    0.0190950560    0.0003653929    
0.0531534020    0.0191506250    0.0003645920    
0.0533760630    0.0195431120    0.0003694621    
0.0535987240    0.0198315850    0.0003704412    
0.0538213850    0.0197910390    0.0003743499    
0.0540440460    0.0190079630    0.0003651329    
0.0542667070    0.0195055220    0.0003724300    
0.0544893680    0.0193412290    0.0003710558    
0.0547120290    0.0196388460    0.0003713383    
0.0549346900    0.0190620690    0.0003660372    
0.0551573510    0.0192256950    0.0003719322    
0.0553800120    0.0193528980    0.0003699883    
0.0556026730    0.0195888910    0.0003799552    
0.0558253340    0.0199108260    0.0003862722    
0.0560479950    0.0191314980    0.0003786375    
0.0562706560    0.0193886250    0.0003848586    
0.0564933170    0.0194780960    0.0003890953    
0.0567159780    0.0192642060    0.0003823136    
0.0569386390    0.0192471050    0.0003881380    
0.0571613000    0.0194912950    0.0003821822    
0.0573839610    0.0197732940    0.0003817409    
0.0576066220    0.0193864050    0.0003790342    
0.0578292830    0.0197441960    0.0003812502    
0.0580519440    0.0192299070    0.0003777110    
0.0582746050    0.0196710400    0.0003803342    
0.0584972660    0.0193382990    0.0003756603    
0.0587199270    0.0197092060    0.0003759766    
0.0589425880    0.0199046340    0.0003756260    
0.0591652490    0.0195873200    0.0003748126    
0.0593879100    0.0196154390    0.0003722959    
0.0596105710    0.0191580570    0.0003675417    
0.0598332320    0.0196806220    0.0003757048    
0.0600558930    0.0189277080    0.0003660990    
0.0602785540    0.0196367200    0.0003724986    
0.0605012150    0.0197088600    0.0003723959    
0.0607238760    0.0189441940    0.0003624397    
0.0609465370    0.0203917880    0.0003789928    
0.0611691980    0.0194106880    0.0003703494    
0.0613918590    0.0188025310    0.0003605221    
0.0616145200    0.0196539380    0.0003712919    
0.0618371810    0.0192835320    0.0003641645    
0.0620598420    0.0192337260    0.0003640688    
0.0622825030    0.0191161250    0.0003685047    
0.0625051640    0.0193494690    0.0003655401    
0.0627278250    0.0194417920    0.0003656566    
0.0629504860    0.0200065230    0.0003679137    
0.0631731470    0.0198736160    0.0003712264    
0.0633958080    0.0194857690    0.0003697017    
0.0636184690    0.0192391020    0.0003724705    
0.0638411300    0.0196961230    0.0003754538    
0.0640637910    0.0195894810    0.0003770696    
0.0642864520    0.0194903390    0.0003753003    
0.0645091130    0.0189877300    0.0003736758    
0.0647317740    0.0185431940    0.0003696828    
0.0649544350    0.0197084560    0.0003807020    
0.0651770960    0.0192176150    0.0003738807    
0.0653997570    0.0193371400    0.0003742283    
0.0656224180    0.0195668070    0.0003772627    
0.0658450790    0.0197856620    0.0003739139    
0.0660677400    0.0202181170    0.0003795867    
0.0662904010    0.0196601500    0.0003787809    
0.0665130620    0.0196925240    0.0003774482    
0.0667357230    0.0194847230    0.0003821269    
0.0669583840    0.0194513310    0.0003805219    
0.0671810450    0.0192444950    0.0003764036    
0.0674037060    0.0191787790    0.0003821263    
0.0676263670    0.0191240530    0.0003787870    
0.0678490280    0.0194985650    0.0003801388    
0.0680716890    0.0193918950    0.0003799412    
0.0682943500    0.0189111810    0.0003710929    
0.0685170110    0.0191412810    0.0003695393    
0.0687396720    0.0190397050    0.0003675783    
0.0689623330    0.0195820670    0.0003715956    
0.0691849940    0.0196470170    0.0003747902    
0.0694076550    0.0197046130    0.0003751389    
0.0696303160    0.0197523320    0.0003726192    
0.0698529770    0.0196976230    0.0003713229    
0.0700756380    0.0196521850    0.0003661333    
0.0702982990    0.0191275660    0.0003651469    
0.0705209600    0.0197592650    0.0003684481    
0.0707436210    0.0193263220    0.0003627158    
0.0709662820    0.0195249680    0.0003689213    
0.0711889430    0.0194971240    0.0003641302    
0.0714116040    0.0197202050    0.0003669550    
0.0716342650    0.0195739360    0.0003641072    
0.0718569260    0.0190470630    0.0003577268    
0.0720795870    0.0193369310    0.0003618966    
0.0723022480    0.0188795920    0.0003581363    
0.0725249090    0.0191397170    0.0003562766    
0.0727475700    0.0191105500    0.0003590458    
0.0729702310    0.0198823720    0.0003633037    
0.0731928920    0.0194862060    0.0003611034    
0.0734155530    0.0194618390    0.0003601575    
0.0736382140    0.0197129050    0.0003601469    
0.0738608750    0.0196351810    0.0003617583    
0.0740835360    0.0190271470    0.0003552290    
0.0743061970    0.0198488420    0.0003577094    
0.0745288580    0.0196537910    0.0003596075    
0.0747515190    0.0200353660    0.0003637986    
0.0749741800    0.0189788560    0.0003507992    
0.0751968410    0.0191990200    0.0003555984    
0.0754195020    0.0201073380    0.0003617809    
0.0756421630    0.0197735430    0.0003558327    
0.0758648240    0.0197014380    0.0003560372    
0.0760874850    0.0196825210    0.0003556953    
0.0763101460    0.0197666670    0.0003561128    
0.0765328070    0.0197934940    0.0003600007    
0.0767554680    0.0188927930    0.0003493279    
0.0769781290    0.0199277530    0.0003567068    
0.0772007900    0.0197790270    0.0003525231    
0.0774234510    0.0193437800    0.0003506057    
0.0776461120    0.0193578430    0.0003504005    
0.0778687730    0.0192112520    0.0003479180    
0.0780914340    0.0194036890    0.0003521546    
0.0783140950    0.0198946800    0.0003509248    
0.0785367560    0.0198894760    0.0003565361    
0.0787594170    0.0194970040    0.0003498381    
0.0789820780    0.0195027430    0.0003480968    
0.0792047390    0.0193365520    0.0003477437    
0.0794274000    0.0199674650    0.0003548685    
0.0796500610    0.0188127380    0.0003410927    
0.0798727220    0.0196237130    0.0003480454    
0.0800953830    0.0195212690    0.0003463374    
0.0803180440    0.0194452890    0.0003480707    
0.0805407050    0.0199128690    0.0003519032    
0.0807633660    0.0191558660    0.0003448290    
0.0809860270    0.0198094970    0.0003493679    
0.0812086880    0.0195231010    0.0003438359    
0.0814313490    0.0193410410    0.0003437898    
0.0816540100    0.0193686550    0.0003432519    
0.0818766710    0.0194388720    0.0003446587    
0.0820993320    0.0191732470    0.0003416720    
0.0823219930    0.0193808440    0.0003449335    
0.0825446540    0.0197355070    0.0003455464    
0.0827673150    0.0192921480    0.0003393477    
0.0829899760    0.0199194220    0.0003442066    
0.0832126370    0.0189700220    0.0003374082    
0.0834352980    0.0197993810    0.0003439342    
0.0836579590    0.0195388450    0.0003409033    
0.0838806200    0.0190328760    0.0003375133    
0.0841032810    0.0199026830    0.0003429968    
0.0843259420    0.0192985590    0.0003367109    
0.0845486030    0.0198860640    0.0003417980    
0.0847712640    0.0194703210    0.0003361452    
0.0849939250    0.0196022520    0.0003378694    
0.0852165860    0.0192799530    0.0003355192    
0.0854392470    0.0200794680    0.0003391628    
0.0856619080    0.0187020380    0.0003297338    
0.0858845690    0.0194000500    0.0003328060    
0.0861072300    0.0193446780    0.0003346249    
0.0863298910    0.0189394910    0.0003328357    
0.0865525520    0.0195105930    0.0003348995    
0.0867752130    0.0199832070    0.0003361966    
0.0869978740    0.0191585340    0.0003300254    
0.0872205350    0.0197619300    0.0003347557    
0.0874431960    0.0198300080    0.0003353320    
0.0876658570    0.0198225790    0.0003365565    
0.0878885180    0.0196039210    0.0003352690    
0.0881111790    0.0200283280    0.0003384438    
0.0883338400    0.0198292880    0.0003318274    
0.0885565010    0.0195207650    0.0003337005    
0.0887791620    0.0193845610    0.0003282220    
0.0890018230    0.0185839340    0.0003244896    
0.0892244840    0.0193123320    0.0003313500    
0.0894471450    0.0198034410    0.0003341193    
0.0896698060    0.0189605760    0.0003256985    
0.0898924670    0.0194755640    0.0003316221    
0.0901151280    0.0198638210    0.0003312938    
0.0903377890    0.0193549580    0.0003297597    
0.0905604500    0.0196397620    0.0003306526    
0.0907831110    0.0191710410    0.0003258704    
0.0910057720    0.0195150970    0.0003302903    
0.0912284330    0.0192209690    0.0003230985    
0.0914510940    0.0191022900    0.0003256913    
0.0916737550    0.0196375010    0.0003294030    
0.0918964160    0.0196006050    0.0003304620    
0.0921190770    0.0187881780    0.0003206155    
0.0923417380    0.0194825850    0.0003266206    
0.0925643990    0.0192783690    0.0003241092    
0.0927870600    0.0195411900    0.0003276492    
0.0930097210    0.0193933670    0.0003236276    
0.0932323820    0.0193178350    0.0003253710    
