# Diamond Light Source Ltd.
# Data extracted from: /dls/b21/data/2018/cm19678-3/processed/b21-386631_00666.dat
q(1/A)          Column          Error           
0.0035000000    2.0596249000    0.0244639330    
0.0037226610    1.8551783000    0.0227291580    
0.0039453220    1.5947786000    0.0191711140    
0.0041679830    1.3100864000    0.0142696040    
0.0043906440    0.9587011800    0.0116758600    
0.0046133050    0.7790657200    0.0101041120    
0.0048359660    0.5834423700    0.0082709954    
0.0050586270    0.4608094900    0.0072248850    
0.0052812880    0.4259100100    0.0065672450    
0.0055039490    0.3888230100    0.0059663789    
0.0057266100    0.3166868000    0.0052091155    
0.0059492710    0.2654480000    0.0047691256    
0.0061719320    0.2202315300    0.0041859733    
0.0063945930    0.1953650700    0.0039903676    
0.0066172539    0.1872769200    0.0036685720    
0.0068399149    0.1644377400    0.0033834640    
0.0070625759    0.1419184700    0.0031110205    
0.0072852369    0.1198367500    0.0028159881    
0.0075078979    0.1160409900    0.0027574150    
0.0077305589    0.1018262500    0.0025338066    
0.0079532199    0.0990237030    0.0024640692    
0.0081758809    0.0901937840    0.0023735206    
0.0083985419    0.0795479920    0.0020790201    
0.0086212029    0.0784612840    0.0020647706    
0.0088438639    0.0699879110    0.0019344308    
0.0090665249    0.0675316450    0.0018352617    
0.0092891859    0.0625951810    0.0018442282    
0.0095118469    0.0618585900    0.0017630758    
0.0097345079    0.0593442840    0.0016771686    
0.0099571689    0.0536940690    0.0015624329    
0.0101798300    0.0502387450    0.0015113242    
0.0104024910    0.0480026780    0.0014723085    
0.0106251520    0.0448738990    0.0014283520    
0.0108478130    0.0445843990    0.0013865088    
0.0110704740    0.0427968860    0.0012933174    
0.0112931350    0.0406111840    0.0012635589    
0.0115157960    0.0410326730    0.0012626932    
0.0117384570    0.0384961160    0.0012125137    
0.0119611180    0.0369505020    0.0011913320    
0.0121837790    0.0369069780    0.0011706183    
0.0124064400    0.0331780970    0.0010636409    
0.0126291010    0.0351790750    0.0010815375    
0.0128517620    0.0352881450    0.0010859176    
0.0130744230    0.0320011240    0.0010264365    
0.0132970840    0.0325365710    0.0010299272    
0.0135197450    0.0345571170    0.0010462251    
0.0137424060    0.0310453170    0.0009778356    
0.0139650670    0.0297954580    0.0009366122    
0.0141877280    0.0307257600    0.0009532238    
0.0144103890    0.0306178410    0.0009351412    
0.0146330500    0.0302302810    0.0009233042    
0.0148557110    0.0290545070    0.0009013755    
0.0150783720    0.0283012150    0.0008822616    
0.0153010330    0.0278028570    0.0008621300    
0.0155236940    0.0278430180    0.0008576222    
0.0157463550    0.0259427490    0.0008134962    
0.0159690160    0.0272398550    0.0008304217    
0.0161916770    0.0270589550    0.0008229968    
0.0164143380    0.0254883600    0.0008048064    
0.0166369990    0.0258265300    0.0007851496    
0.0168596600    0.0250685840    0.0007667274    
0.0170823210    0.0256734530    0.0007692043    
0.0173049820    0.0250453920    0.0007610507    
0.0175276430    0.0250804570    0.0007696144    
0.0177503040    0.0225396560    0.0007109913    
0.0179729650    0.0235018340    0.0007188080    
0.0181956260    0.0244705680    0.0007194115    
0.0184182870    0.0239261790    0.0007080115    
0.0186409480    0.0228508950    0.0006962983    
0.0188636090    0.0235909760    0.0007030346    
0.0190862700    0.0230995490    0.0006945859    
0.0193089310    0.0249222710    0.0007203450    
0.0195315920    0.0219542520    0.0006530996    
0.0197542530    0.0226612780    0.0006644993    
0.0199769140    0.0241226750    0.0006855911    
0.0201995750    0.0227123190    0.0006548301    
0.0204222360    0.0219708090    0.0006495806    
0.0206448970    0.0212052180    0.0006336271    
0.0208675580    0.0221388710    0.0006340939    
0.0210902190    0.0216980220    0.0006338060    
0.0213128800    0.0217797200    0.0006263818    
0.0215355410    0.0209824850    0.0006074866    
0.0217582020    0.0227940580    0.0006331683    
0.0219808630    0.0219799400    0.0006209419    
0.0222035240    0.0213594730    0.0006065683    
0.0224261850    0.0220300070    0.0006105330    
0.0226488460    0.0215503870    0.0005993159    
0.0228715070    0.0212278510    0.0005933365    
0.0230941680    0.0214932080    0.0005970335    
0.0233168290    0.0212004060    0.0005944299    
0.0235394900    0.0214359890    0.0005911268    
0.0237621510    0.0210845640    0.0005704785    
0.0239848120    0.0208858440    0.0005684407    
0.0242074730    0.0214510550    0.0005714697    
0.0244301340    0.0218815170    0.0005778337    
0.0246527950    0.0215270180    0.0005784409    
0.0248754560    0.0212386190    0.0005616403    
0.0250981170    0.0206621120    0.0005552005    
0.0253207780    0.0221144810    0.0005572325    
0.0255434390    0.0218719380    0.0005600829    
0.0257661000    0.0209165920    0.0005494861    
0.0259887610    0.0212656710    0.0005481644    
0.0262114220    0.0207074250    0.0005438036    
0.0264340830    0.0202450390    0.0005303821    
0.0266567440    0.0208876720    0.0005354053    
0.0268794050    0.0201049760    0.0005231344    
0.0271020660    0.0213062270    0.0005363559    
0.0273247270    0.0205841610    0.0005240228    
0.0275473880    0.0206883480    0.0005243020    
0.0277700490    0.0199455210    0.0005117602    
0.0279927100    0.0209279510    0.0005196385    
0.0282153710    0.0198421340    0.0005084385    
0.0284380320    0.0204111730    0.0005126882    
0.0286606930    0.0203670620    0.0005077505    
0.0288833540    0.0205715770    0.0005112628    
0.0291060150    0.0197082070    0.0004999443    
0.0293286760    0.0201739500    0.0004987688    
0.0295513370    0.0207986270    0.0005009173    
0.0297739980    0.0198903520    0.0004952509    
0.0299966590    0.0207297480    0.0004969577    
0.0302193200    0.0201855780    0.0004975380    
0.0304419810    0.0201245420    0.0004976994    
0.0306646420    0.0208294820    0.0004920503    
0.0308873030    0.0203272740    0.0004839827    
0.0311099640    0.0206183060    0.0004887007    
0.0313326250    0.0193257370    0.0004678930    
0.0315552860    0.0200739940    0.0004830450    
0.0317779470    0.0208076090    0.0004922207    
0.0320006080    0.0206512910    0.0004792270    
0.0322232690    0.0203535610    0.0004777515    
0.0324459300    0.0211002820    0.0004828048    
0.0326685910    0.0199186730    0.0004683183    
0.0328912520    0.0199288920    0.0004699897    
0.0331139130    0.0205906980    0.0004715152    
0.0333365740    0.0199421620    0.0004655370    
0.0335592350    0.0200295310    0.0004620696    
0.0337818960    0.0198380080    0.0004594890    
0.0340045570    0.0197219980    0.0004574158    
0.0342272170    0.0209139690    0.0004691779    
0.0344498780    0.0194780160    0.0004545780    
0.0346725390    0.0194683920    0.0004460490    
0.0348952000    0.0204863730    0.0004554777    
0.0351178610    0.0198056650    0.0004498964    
0.0353405220    0.0198787940    0.0004486730    
0.0355631830    0.0203524800    0.0004522773    
0.0357858440    0.0206439600    0.0004555046    
0.0360085050    0.0200813210    0.0004506119    
0.0362311660    0.0197646980    0.0004417313    
0.0364538270    0.0203035930    0.0004441194    
0.0366764880    0.0191779770    0.0004313199    
0.0368991490    0.0201086570    0.0004394351    
0.0371218100    0.0208817390    0.0004465214    
0.0373444710    0.0194363610    0.0004354821    
0.0375671320    0.0189225360    0.0004290615    
0.0377897930    0.0199864700    0.0004295435    
0.0380124540    0.0192845830    0.0004245811    
0.0382351150    0.0196585100    0.0004286778    
0.0384577760    0.0196477260    0.0004244253    
0.0386804370    0.0196322510    0.0004274957    
0.0389030980    0.0194918910    0.0004227390    
0.0391257590    0.0198160230    0.0004233458    
0.0393484200    0.0194492930    0.0004179986    
0.0395710810    0.0200512020    0.0004249891    
0.0397937420    0.0202313710    0.0004268944    
0.0400164030    0.0197697140    0.0004237124    
0.0402390640    0.0201396540    0.0004219638    
0.0404617250    0.0196843080    0.0004147053    
0.0406843860    0.0202997720    0.0004170697    
0.0409070470    0.0190539730    0.0004082786    
0.0411297080    0.0204974590    0.0004193648    
0.0413523690    0.0198443360    0.0004136931    
0.0415750300    0.0201390460    0.0004202938    
0.0417976910    0.0191107900    0.0003988345    
0.0420203520    0.0192798330    0.0004020997    
0.0422430130    0.0196288870    0.0004072593    
0.0424656740    0.0197221410    0.0004029124    
0.0426883350    0.0194445440    0.0004020524    
0.0429109960    0.0200346920    0.0004093831    
0.0431336570    0.0204254710    0.0004075325    
0.0433563180    0.0201176300    0.0004079388    
0.0435789790    0.0199552990    0.0003999066    
0.0438016400    0.0203917520    0.0004064554    
0.0440243010    0.0195672790    0.0003941141    
0.0442469620    0.0193606380    0.0003943766    
0.0444696230    0.0205300880    0.0004046565    
0.0446922840    0.0197502590    0.0003957181    
0.0449149450    0.0203525680    0.0003963366    
0.0451376060    0.0193950580    0.0003916795    
0.0453602670    0.0204543310    0.0003980165    
0.0455829280    0.0198970710    0.0003921033    
0.0458055890    0.0201454360    0.0003968437    
0.0460282500    0.0191513040    0.0003822623    
0.0462509110    0.0198029930    0.0003862942    
0.0464735720    0.0207683470    0.0003958210    
0.0466962330    0.0196634490    0.0003868989    
0.0469188940    0.0205588700    0.0003944885    
0.0471415550    0.0196158200    0.0003873136    
0.0473642160    0.0194123480    0.0003799047    
0.0475868770    0.0202357890    0.0003859515    
0.0478095380    0.0192637170    0.0003749196    
0.0480321990    0.0200737820    0.0003835599    
0.0482548600    0.0202842970    0.0003838860    
0.0484775210    0.0191255620    0.0003764612    
0.0487001820    0.0191524990    0.0003712115    
0.0489228430    0.0199584320    0.0003787376    
0.0491455040    0.0199739140    0.0003762640    
0.0493681650    0.0193813390    0.0003738257    
0.0495908260    0.0198776730    0.0003722124    
0.0498134870    0.0190077850    0.0003674417    
0.0500361480    0.0195997580    0.0003721324    
0.0502588090    0.0195172510    0.0003657842    
0.0504814700    0.0192499080    0.0003680193    
0.0507041310    0.0192139300    0.0003633038    
0.0509267920    0.0189507210    0.0003622995    
0.0511494530    0.0197581640    0.0003674706    
0.0513721140    0.0195165040    0.0003684327    
0.0515947750    0.0196389830    0.0003646868    
0.0518174360    0.0199718080    0.0003655487    
0.0520400970    0.0197419980    0.0003609195    
0.0522627580    0.0197769880    0.0003643092    
0.0524854190    0.0199975890    0.0003693139    
0.0527080800    0.0207863790    0.0003794424    
0.0529307410    0.0197026050    0.0003711532    
0.0531534020    0.0193234160    0.0003662261    
0.0533760630    0.0195772880    0.0003697779    
0.0535987240    0.0202529080    0.0003743484    
0.0538213850    0.0193654480    0.0003702959    
0.0540440460    0.0195753520    0.0003705354    
0.0542667070    0.0193838950    0.0003712600    
0.0544893680    0.0187069610    0.0003649140    
0.0547120290    0.0195398010    0.0003703937    
0.0549346900    0.0198555650    0.0003735709    
0.0551573510    0.0199228730    0.0003786086    
0.0553800120    0.0191541110    0.0003680761    
0.0556026730    0.0196102520    0.0003801550    
0.0558253340    0.0203971400    0.0003909536    
0.0560479950    0.0197677110    0.0003848744    
0.0562706560    0.0196934470    0.0003878647    
0.0564933170    0.0197727000    0.0003920193    
0.0567159780    0.0196504090    0.0003861195    
0.0569386390    0.0199586200    0.0003952396    
0.0571613000    0.0196928750    0.0003841461    
0.0573839610    0.0194409090    0.0003785116    
0.0576066220    0.0191114800    0.0003763298    
0.0578292830    0.0192796710    0.0003767314    
0.0580519440    0.0191178940    0.0003766022    
0.0582746050    0.0199129510    0.0003826584    
0.0584972660    0.0197680960    0.0003798047    
0.0587199270    0.0189697460    0.0003688491    
0.0589425880    0.0193439010    0.0003702903    
0.0591652490    0.0195794010    0.0003747297    
0.0593879100    0.0194309790    0.0003705342    
0.0596105710    0.0191150210    0.0003671217    
0.0598332320    0.0192280370    0.0003713527    
0.0600558930    0.0195288550    0.0003718602    
0.0602785540    0.0195935760    0.0003720821    
0.0605012150    0.0198558660    0.0003737751    
0.0607238760    0.0193941760    0.0003667120    
0.0609465370    0.0188203030    0.0003640897    
0.0611691980    0.0190637200    0.0003670174    
0.0613918590    0.0199700150    0.0003715392    
0.0616145200    0.0197583980    0.0003722702    
0.0618371810    0.0185263380    0.0003569364    
0.0620598420    0.0193156850    0.0003648367    
0.0622825030    0.0194634650    0.0003718304    
0.0625051640    0.0200116420    0.0003717351    
0.0627278250    0.0198949270    0.0003698862    
0.0629504860    0.0193089070    0.0003614354    
0.0631731470    0.0187148790    0.0003602347    
0.0633958080    0.0192886330    0.0003678198    
0.0636184690    0.0196493830    0.0003764139    
0.0638411300    0.0197025280    0.0003755077    
0.0640637910    0.0195451880    0.0003766359    
0.0642864520    0.0193667470    0.0003741014    
0.0645091130    0.0200679850    0.0003841510    
0.0647317740    0.0192794690    0.0003769435    
0.0649544350    0.0200386170    0.0003838703    
0.0651770960    0.0196387510    0.0003779480    
0.0653997570    0.0201547600    0.0003820507    
0.0656224180    0.0188168770    0.0003699554    
0.0658450790    0.0191630960    0.0003679771    
0.0660677400    0.0187778310    0.0003658096    
0.0662904010    0.0188566780    0.0003709530    
0.0665130620    0.0194819780    0.0003754178    
0.0667357230    0.0197612520    0.0003848216    
0.0669583840    0.0197111220    0.0003830472    
0.0671810450    0.0192658460    0.0003766051    
0.0674037060    0.0198251830    0.0003885051    
0.0676263670    0.0193033790    0.0003805515    
0.0678490280    0.0190012970    0.0003752531    
0.0680716890    0.0193613800    0.0003796349    
0.0682943500    0.0189323050    0.0003712930    
0.0685170110    0.0193046330    0.0003711057    
0.0687396720    0.0190176910    0.0003673587    
0.0689623330    0.0197223450    0.0003729171    
0.0691849940    0.0193531470    0.0003719696    
0.0694076550    0.0199681020    0.0003776315    
0.0696303160    0.0193017210    0.0003683374    
0.0698529770    0.0196268760    0.0003706484    
0.0700756380    0.0199924880    0.0003692827    
0.0702982990    0.0200190500    0.0003735521    
0.0705209600    0.0198203420    0.0003690101    
0.0707436210    0.0198429300    0.0003675247    
0.0709662820    0.0197960710    0.0003714667    
0.0711889430    0.0194555790    0.0003637351    
0.0714116040    0.0193848780    0.0003638148    
0.0716342650    0.0202504630    0.0003703389    
0.0718569260    0.0189254080    0.0003565758    
0.0720795870    0.0201082870    0.0003690371    
0.0723022480    0.0198910890    0.0003675979    
0.0725249090    0.0201138410    0.0003652236    
0.0727475700    0.0191772750    0.0003596652    
0.0729702310    0.0201073140    0.0003653461    
0.0731928920    0.0199739370    0.0003655877    
0.0734155530    0.0196410450    0.0003618050    
0.0736382140    0.0202779890    0.0003652654    
0.0738608750    0.0197077440    0.0003624192    
0.0740835360    0.0187478890    0.0003526058    
0.0743061970    0.0197191590    0.0003565321    
0.0745288580    0.0197780520    0.0003607356    
0.0747515190    0.0199553360    0.0003630644    
0.0749741800    0.0193217740    0.0003539475    
0.0751968410    0.0201598490    0.0003643809    
0.0754195020    0.0195598080    0.0003568144    
0.0756421630    0.0190940600    0.0003496588    
0.0758648240    0.0196685170    0.0003557328    
0.0760874850    0.0195853540    0.0003548095    
0.0763101460    0.0196119430    0.0003547096    
0.0765328070    0.0202903400    0.0003644841    
0.0767554680    0.0194862840    0.0003547655    
0.0769781290    0.0192565870    0.0003506418    
0.0772007900    0.0198285350    0.0003529573    
0.0774234510    0.0193938780    0.0003510528    
0.0776461120    0.0195854320    0.0003524476    
0.0778687730    0.0201808110    0.0003565826    
0.0780914340    0.0197672330    0.0003554315    
0.0783140950    0.0198258340    0.0003503104    
0.0785367560    0.0200421010    0.0003578947    
0.0787594170    0.0200737410    0.0003549679    
0.0789820780    0.0198747680    0.0003513945    
0.0792047390    0.0192295050    0.0003467732    
0.0794274000    0.0195252410    0.0003509101    
0.0796500610    0.0191335930    0.0003439825    
0.0798727220    0.0198945630    0.0003504324    
0.0800953830    0.0204606060    0.0003545654    
0.0803180440    0.0194694680    0.0003482804    
0.0805407050    0.0195016780    0.0003482443    
0.0807633660    0.0190620290    0.0003439768    
0.0809860270    0.0198272250    0.0003495175    
0.0812086880    0.0188381050    0.0003377436    
0.0814313490    0.0191508720    0.0003420890    
0.0816540100    0.0200066190    0.0003488524    
0.0818766710    0.0196336730    0.0003463747    
0.0820993320    0.0195012920    0.0003445759    
0.0823219930    0.0192818840    0.0003440452    
0.0825446540    0.0192084130    0.0003408942    
0.0827673150    0.0195540430    0.0003416368    
0.0829899760    0.0194369030    0.0003400056    
0.0832126370    0.0195333970    0.0003423752    
0.0834352980    0.0199778520    0.0003454742    
0.0836579590    0.0188065360    0.0003344474    
0.0838806200    0.0193972320    0.0003407221    
0.0841032810    0.0192103510    0.0003369719    
0.0843259420    0.0196150470    0.0003394542    
0.0845486030    0.0191627380    0.0003355178    
0.0847712640    0.0196204610    0.0003374323    
0.0849939250    0.0193685680    0.0003358431    
0.0852165860    0.0193025720    0.0003357096    
0.0854392470    0.0191564000    0.0003312690    
0.0856619080    0.0187885230    0.0003304890    
0.0858845690    0.0197075980    0.0003354272    
0.0861072300    0.0197085920    0.0003377513    
0.0863298910    0.0192838540    0.0003358415    
0.0865525520    0.0194063790    0.0003339976    
0.0867752130    0.0199371970    0.0003358030    
0.0869978740    0.0195614250    0.0003334711    
0.0872205350    0.0193642510    0.0003313640    
0.0874431960    0.0194379960    0.0003319947    
0.0876658570    0.0197132570    0.0003356208    
0.0878885180    0.0188176700    0.0003284706    
0.0881111790    0.0192040440    0.0003313999    
0.0883338400    0.0192954760    0.0003273242    
0.0885565010    0.0194173440    0.0003328090    
0.0887791620    0.0191059570    0.0003258486    
0.0890018230    0.0192970930    0.0003306508    
0.0892244840    0.0191410490    0.0003298710    
0.0894471450    0.0193573640    0.0003303285    
0.0896698060    0.0189262860    0.0003253976    
0.0898924670    0.0197402080    0.0003338612    
0.0901151280    0.0193326450    0.0003268280    
0.0903377890    0.0194047820    0.0003301776    
0.0905604500    0.0190767850    0.0003258728    
0.0907831110    0.0195524970    0.0003290901    
0.0910057720    0.0195702520    0.0003307504    
0.0912284330    0.0191116160    0.0003221720    
0.0914510940    0.0190682440    0.0003253948    
0.0916737550    0.0203384600    0.0003352240    
0.0918964160    0.0192321510    0.0003273350    
0.0921190770    0.0191977880    0.0003240854    
0.0923417380    0.0193887580    0.0003258270    
0.0925643990    0.0194410960    0.0003254680    
0.0927870600    0.0195074840    0.0003273602    
0.0930097210    0.0197274480    0.0003263969    
0.0932323820    0.0201555430    0.0003323446    
