# Diamond Light Source Ltd.
# Data extracted from: /dls/b21/data/2018/cm19678-3/processed/b21-386631_00673.dat
q(1/A)          Column          Error           
0.0035000000    2.0217185000    0.0242404620    
0.0037226610    1.8129757000    0.0224716450    
0.0039453220    1.6004354000    0.0192072230    
0.0041679830    1.2794414000    0.0141032920    
0.0043906440    0.9732798700    0.0117656110    
0.0046133050    0.7798945500    0.0101106110    
0.0048359660    0.6006947700    0.0083933255    
0.0050586270    0.4622717100    0.0072371444    
0.0052812880    0.4135467900    0.0064719471    
0.0055039490    0.3816753400    0.0059119431    
0.0057266100    0.3142719400    0.0051897943    
0.0059492710    0.2668783500    0.0047824897    
0.0061719320    0.2285570100    0.0042648358    
0.0063945930    0.1934520400    0.0039712246    
0.0066172539    0.1811369600    0.0036083346    
0.0068399149    0.1641261900    0.0033806335    
0.0070625759    0.1403811800    0.0030944695    
0.0072852369    0.1225108900    0.0028475508    
0.0075078979    0.1190815400    0.0027936178    
0.0077305589    0.0971190930    0.0024748236    
0.0079532199    0.1016215500    0.0024964598    
0.0081758809    0.0894016920    0.0023633384    
0.0083985419    0.0858157430    0.0021596128    
0.0086212029    0.0772830940    0.0020494376    
0.0088438639    0.0682387000    0.0019103169    
0.0090665249    0.0659004180    0.0018131626    
0.0092891859    0.0634243410    0.0018566094    
0.0095118469    0.0598116260    0.0017338524    
0.0097345079    0.0558965570    0.0016279016    
0.0099571689    0.0530238990    0.0015528245    
0.0101798300    0.0490221040    0.0014930783    
0.0104024910    0.0482392050    0.0014760957    
0.0106251520    0.0490675970    0.0014937712    
0.0108478130    0.0448530930    0.0013908354    
0.0110704740    0.0432755260    0.0013006743    
0.0112931350    0.0387720650    0.0012347541    
0.0115157960    0.0408474820    0.0012599808    
0.0117384570    0.0403000450    0.0012407358    
0.0119611180    0.0384570560    0.0012155113    
0.0121837790    0.0376579560    0.0011825997    
0.0124064400    0.0361868430    0.0011109462    
0.0126291010    0.0334242360    0.0010543346    
0.0128517620    0.0348949110    0.0010799704    
0.0130744230    0.0343463000    0.0010635008    
0.0132970840    0.0341416580    0.0010551429    
0.0135197450    0.0326639050    0.0010172759    
0.0137424060    0.0297583870    0.0009574604    
0.0139650670    0.0303910670    0.0009460326    
0.0141877280    0.0292832290    0.0009306821    
0.0144103890    0.0291677020    0.0009128288    
0.0146330500    0.0281497560    0.0008910650    
0.0148557110    0.0297882000    0.0009127870    
0.0150783720    0.0288302010    0.0008905679    
0.0153010330    0.0274614340    0.0008569155    
0.0155236940    0.0268451660    0.0008422078    
0.0157463550    0.0274283820    0.0008365578    
0.0159690160    0.0256253460    0.0008055258    
0.0161916770    0.0259633520    0.0008062531    
0.0164143380    0.0282391550    0.0008472170    
0.0166369990    0.0257845320    0.0007845983    
0.0168596600    0.0249568870    0.0007651025    
0.0170823210    0.0234431920    0.0007351166    
0.0173049820    0.0247040030    0.0007559302    
0.0175276430    0.0259364150    0.0007827242    
0.0177503040    0.0251692790    0.0007514054    
0.0179729650    0.0232431890    0.0007149213    
0.0181956260    0.0248356470    0.0007248388    
0.0184182870    0.0233237880    0.0006991196    
0.0186409480    0.0227710950    0.0006951589    
0.0188636090    0.0245811510    0.0007177170    
0.0190862700    0.0231255830    0.0006950545    
0.0193089310    0.0237824310    0.0007037578    
0.0195315920    0.0228724850    0.0006666918    
0.0197542530    0.0227442810    0.0006657893    
0.0199769140    0.0221985830    0.0006577538    
0.0201995750    0.0219431340    0.0006437179    
0.0204222360    0.0229553870    0.0006640498    
0.0206448970    0.0226870600    0.0006554655    
0.0208675580    0.0223072900    0.0006365722    
0.0210902190    0.0227954030    0.0006497081    
0.0213128800    0.0219107000    0.0006283324    
0.0215355410    0.0237666800    0.0006466077    
0.0217582020    0.0221834160    0.0006246991    
0.0219808630    0.0225989350    0.0006296947    
0.0222035240    0.0221395440    0.0006176140    
0.0224261850    0.0220856840    0.0006113721    
0.0226488460    0.0213384670    0.0005964283    
0.0228715070    0.0234221870    0.0006233186    
0.0230941680    0.0214814050    0.0005969360    
0.0233168290    0.0215885530    0.0005999135    
0.0235394900    0.0218646860    0.0005970749    
0.0237621510    0.0212436450    0.0005726903    
0.0239848120    0.0210607130    0.0005708789    
0.0242074730    0.0211360500    0.0005673213    
0.0244301340    0.0204364540    0.0005584898    
0.0246527950    0.0216561830    0.0005802383    
0.0248754560    0.0210947930    0.0005597977    
0.0250981170    0.0218156920    0.0005705521    
0.0253207780    0.0211784520    0.0005453729    
0.0255434390    0.0203131540    0.0005398160    
0.0257661000    0.0204159060    0.0005429301    
0.0259887610    0.0211856070    0.0005471925    
0.0262114220    0.0218833360    0.0005590931    
0.0264340830    0.0205692030    0.0005346710    
0.0266567440    0.0202608860    0.0005273698    
0.0268794050    0.0208718960    0.0005330781    
0.0271020660    0.0211219010    0.0005340902    
0.0273247270    0.0205220280    0.0005232896    
0.0275473880    0.0206265030    0.0005235760    
0.0277700490    0.0200550310    0.0005132203    
0.0279927100    0.0207519340    0.0005175062    
0.0282153710    0.0203156750    0.0005145270    
0.0284380320    0.0202225090    0.0005103701    
0.0286606930    0.0205741740    0.0005103824    
0.0288833540    0.0213895450    0.0005213862    
0.0291060150    0.0208669360    0.0005144886    
0.0293286760    0.0205484620    0.0005034332    
0.0295513370    0.0200189120    0.0004914929    
0.0297739980    0.0205361500    0.0005032826    
0.0299966590    0.0210918520    0.0005013351    
0.0302193200    0.0207543150    0.0005045547    
0.0304419810    0.0207815240    0.0005058144    
0.0306646420    0.0212061580    0.0004965347    
0.0308873030    0.0200090730    0.0004802331    
0.0311099640    0.0199740870    0.0004810590    
0.0313326250    0.0203271340    0.0004799157    
0.0315552860    0.0196715460    0.0004782316    
0.0317779470    0.0207190710    0.0004912271    
0.0320006080    0.0203666840    0.0004759663    
0.0322232690    0.0204926910    0.0004794350    
0.0324459300    0.0205635440    0.0004766776    
0.0326685910    0.0207821470    0.0004784146    
0.0328912520    0.0197892060    0.0004683918    
0.0331139130    0.0202604880    0.0004677712    
0.0333365740    0.0207727290    0.0004751855    
0.0335592350    0.0202045840    0.0004641360    
0.0337818960    0.0198637160    0.0004598378    
0.0340045570    0.0193868280    0.0004535628    
0.0342272170    0.0197079360    0.0004554998    
0.0344498780    0.0203312570    0.0004644794    
0.0346725390    0.0201780380    0.0004541563    
0.0348952000    0.0209163520    0.0004602840    
0.0351178610    0.0209651510    0.0004629298    
0.0353405220    0.0204605730    0.0004552418    
0.0355631830    0.0197839990    0.0004459658    
0.0357858440    0.0205982930    0.0004550512    
0.0360085050    0.0190744230    0.0004392184    
0.0362311660    0.0205096990    0.0004500296    
0.0364538270    0.0198902910    0.0004396248    
0.0366764880    0.0194345170    0.0004342435    
0.0368991490    0.0200362930    0.0004386925    
0.0371218100    0.0200077650    0.0004371259    
0.0373444710    0.0199579360    0.0004413356    
0.0375671320    0.0196273800    0.0004370281    
0.0377897930    0.0199355180    0.0004290434    
0.0380124540    0.0196348240    0.0004284670    
0.0382351150    0.0193169400    0.0004249846    
0.0384577760    0.0206975230    0.0004356649    
0.0386804370    0.0194410940    0.0004254568    
0.0389030980    0.0198171950    0.0004262995    
0.0391257590    0.0197118790    0.0004222789    
0.0393484200    0.0201904350    0.0004259358    
0.0395710810    0.0193168690    0.0004171808    
0.0397937420    0.0200016220    0.0004245108    
0.0400164030    0.0199648630    0.0004258459    
0.0402390640    0.0195781920    0.0004160866    
0.0404617250    0.0201605900    0.0004197391    
0.0406843860    0.0208442540    0.0004226731    
0.0409070470    0.0197844930    0.0004160779    
0.0411297080    0.0202016590    0.0004163742    
0.0413523690    0.0194950830    0.0004100821    
0.0415750300    0.0202926760    0.0004219408    
0.0417976910    0.0197144710    0.0004051299    
0.0420203520    0.0196196480    0.0004056730    
0.0422430130    0.0198360980    0.0004094489    
0.0424656740    0.0194219070    0.0003998784    
0.0426883350    0.0201140770    0.0004089613    
0.0429109960    0.0197044700    0.0004060405    
0.0431336570    0.0192100730    0.0003952657    
0.0433563180    0.0192781720    0.0003993814    
0.0435789790    0.0200799810    0.0004011986    
0.0438016400    0.0196021580    0.0003985529    
0.0440243010    0.0200956640    0.0003994444    
0.0442469620    0.0191962090    0.0003927420    
0.0444696230    0.0195135110    0.0003945547    
0.0446922840    0.0195643260    0.0003938949    
0.0449149450    0.0195928400    0.0003889122    
0.0451376060    0.0197237540    0.0003950285    
0.0453602670    0.0194983020    0.0003886469    
0.0455829280    0.0196541820    0.0003897461    
0.0458055890    0.0197511460    0.0003929847    
0.0460282500    0.0197584720    0.0003883178    
0.0462509110    0.0195586790    0.0003839466    
0.0464735720    0.0195581340    0.0003841580    
0.0466962330    0.0197972710    0.0003882564    
0.0469188940    0.0196321860    0.0003855382    
0.0471415550    0.0198114170    0.0003892832    
0.0473642160    0.0196769470    0.0003825276    
0.0475868770    0.0193641230    0.0003775895    
0.0478095380    0.0201365260    0.0003833617    
0.0480321990    0.0194185060    0.0003772896    
0.0482548600    0.0198382740    0.0003796842    
0.0484775210    0.0197375870    0.0003824798    
0.0487001820    0.0192575130    0.0003722692    
0.0489228430    0.0205379680    0.0003842398    
0.0491455040    0.0195813460    0.0003725896    
0.0493681650    0.0196524960    0.0003764735    
0.0495908260    0.0194080520    0.0003678301    
0.0498134870    0.0198929920    0.0003759422    
0.0500361480    0.0201270880    0.0003771473    
0.0502588090    0.0199124400    0.0003695100    
0.0504814700    0.0202746110    0.0003777295    
0.0507041310    0.0194724350    0.0003657803    
0.0509267920    0.0194676110    0.0003672480    
0.0511494530    0.0198856100    0.0003686948    
0.0513721140    0.0198339070    0.0003714580    
0.0515947750    0.0194604690    0.0003630659    
0.0518174360    0.0201034070    0.0003667919    
0.0520400970    0.0202809710    0.0003658537    
0.0522627580    0.0199156390    0.0003656247    
0.0524854190    0.0196063670    0.0003657242    
0.0527080800    0.0196132430    0.0003686205    
0.0529307410    0.0195111810    0.0003693869    
0.0531534020    0.0191749850    0.0003648574    
0.0533760630    0.0190018130    0.0003643431    
0.0535987240    0.0195514880    0.0003678499    
0.0538213850    0.0192635270    0.0003693613    
0.0540440460    0.0202040720    0.0003764807    
0.0542667070    0.0193455370    0.0003709337    
0.0544893680    0.0193661580    0.0003713291    
0.0547120290    0.0197618550    0.0003725338    
0.0549346900    0.0189390450    0.0003648877    
0.0551573510    0.0196610360    0.0003761543    
0.0553800120    0.0192715720    0.0003692441    
0.0556026730    0.0196809590    0.0003808821    
0.0558253340    0.0205290990    0.0003922599    
0.0560479950    0.0203942070    0.0003909692    
0.0562706560    0.0196901910    0.0003878758    
0.0564933170    0.0195983000    0.0003903300    
0.0567159780    0.0194878330    0.0003845617    
0.0569386390    0.0193446000    0.0003891557    
0.0571613000    0.0193374930    0.0003807065    
0.0573839610    0.0198506540    0.0003825222    
0.0576066220    0.0199533000    0.0003845716    
0.0578292830    0.0202558930    0.0003861945    
0.0580519440    0.0195228470    0.0003806122    
0.0582746050    0.0198217700    0.0003818238    
0.0584972660    0.0184952040    0.0003674141    
0.0587199270    0.0189452760    0.0003686521    
0.0589425880    0.0193694770    0.0003705762    
0.0591652490    0.0195120250    0.0003741260    
0.0593879100    0.0193363620    0.0003696721    
0.0596105710    0.0187525480    0.0003636647    
0.0598332320    0.0195407810    0.0003744022    
0.0600558930    0.0194198850    0.0003708625    
0.0602785540    0.0194424550    0.0003706857    
0.0605012150    0.0196139690    0.0003715327    
0.0607238760    0.0195302680    0.0003680373    
0.0609465370    0.0193458310    0.0003691791    
0.0611691980    0.0200574070    0.0003765031    
0.0613918590    0.0196909880    0.0003689755    
0.0616145200    0.0200644660    0.0003751843    
0.0618371810    0.0194521720    0.0003657871    
0.0620598420    0.0192924160    0.0003646575    
0.0622825030    0.0189278160    0.0003667190    
0.0625051640    0.0199884700    0.0003715612    
0.0627278250    0.0193490810    0.0003648173    
0.0629504860    0.0198275040    0.0003662977    
0.0631731470    0.0199119600    0.0003716186    
0.0633958080    0.0197489420    0.0003722242    
0.0636184690    0.0195239350    0.0003752522    
0.0638411300    0.0197069150    0.0003755913    
0.0640637910    0.0198979900    0.0003800622    
0.0642864520    0.0195445310    0.0003758564    
0.0645091130    0.0194251920    0.0003779907    
0.0647317740    0.0194459340    0.0003786094    
0.0649544350    0.0191236710    0.0003750460    
0.0651770960    0.0195339960    0.0003769805    
0.0653997570    0.0195869940    0.0003766730    
0.0656224180    0.0198250510    0.0003797791    
0.0658450790    0.0193652560    0.0003699542    
0.0660677400    0.0199082200    0.0003767012    
0.0662904010    0.0195104970    0.0003773713    
0.0665130620    0.0197251010    0.0003777951    
0.0667357230    0.0200654720    0.0003878155    
0.0669583840    0.0195740470    0.0003817555    
0.0671810450    0.0194689490    0.0003786272    
0.0674037060    0.0193498490    0.0003838621    
0.0676263670    0.0195102830    0.0003826281    
0.0678490280    0.0192427270    0.0003776716    
0.0680716890    0.0192837910    0.0003789156    
0.0682943500    0.0197886630    0.0003796397    
0.0685170110    0.0193802870    0.0003718736    
0.0687396720    0.0187877000    0.0003651713    
0.0689623330    0.0189368200    0.0003654559    
0.0691849940    0.0192501930    0.0003710202    
0.0694076550    0.0193510850    0.0003717927    
0.0696303160    0.0198825270    0.0003738797    
0.0698529770    0.0194072090    0.0003686095    
0.0700756380    0.0198195520    0.0003677230    
0.0702982990    0.0194936370    0.0003686585    
0.0705209600    0.0192612790    0.0003638091    
0.0707436210    0.0192686090    0.0003622073    
0.0709662820    0.0197028710    0.0003706324    
0.0711889430    0.0195823430    0.0003649588    
0.0714116040    0.0193140680    0.0003631901    
0.0716342650    0.0193269010    0.0003618356    
0.0718569260    0.0195612810    0.0003625569    
0.0720795870    0.0197808260    0.0003660606    
0.0723022480    0.0200178260    0.0003688082    
0.0725249090    0.0196208340    0.0003607600    
0.0727475700    0.0197213010    0.0003647717    
0.0729702310    0.0193349410    0.0003583003    
0.0731928920    0.0194831080    0.0003611080    
0.0734155530    0.0199987300    0.0003651252    
0.0736382140    0.0188675990    0.0003523731    
0.0738608750    0.0205054170    0.0003697221    
0.0740835360    0.0197735760    0.0003621631    
0.0743061970    0.0192141800    0.0003519766    
0.0745288580    0.0194270830    0.0003575604    
0.0747515190    0.0189026570    0.0003533979    
0.0749741800    0.0193001350    0.0003537886    
0.0751968410    0.0192947870    0.0003565171    
0.0754195020    0.0198180740    0.0003592023    
0.0756421630    0.0200205640    0.0003580814    
0.0758648240    0.0198595220    0.0003574957    
0.0760874850    0.0189017930    0.0003486016    
0.0763101460    0.0187628690    0.0003469849    
0.0765328070    0.0195548390    0.0003578569    
0.0767554680    0.0193161960    0.0003532531    
0.0769781290    0.0192800330    0.0003508942    
0.0772007900    0.0197826770    0.0003525881    
0.0774234510    0.0194490430    0.0003515908    
0.0776461120    0.0192472250    0.0003494301    
0.0778687730    0.0190887570    0.0003468391    
0.0780914340    0.0191835360    0.0003501835    
0.0783140950    0.0195083080    0.0003475325    
0.0785367560    0.0201744120    0.0003591140    
0.0787594170    0.0198521900    0.0003530429    
0.0789820780    0.0186860690    0.0003407621    
0.0792047390    0.0194777270    0.0003490430    
0.0794274000    0.0193718880    0.0003495683    
0.0796500610    0.0197502150    0.0003495203    
0.0798727220    0.0191210600    0.0003435907    
0.0800953830    0.0196047650    0.0003471093    
0.0803180440    0.0194551080    0.0003481907    
0.0805407050    0.0199974030    0.0003526818    
0.0807633660    0.0195567440    0.0003484506    
0.0809860270    0.0195296660    0.0003469235    
0.0812086880    0.0194782490    0.0003434724    
0.0814313490    0.0197113320    0.0003470972    
0.0816540100    0.0198346310    0.0003473884    
0.0818766710    0.0198397430    0.0003482265    
0.0820993320    0.0193412090    0.0003431969    
0.0823219930    0.0196177450    0.0003470673    
0.0825446540    0.0190130000    0.0003391935    
0.0827673150    0.0192121240    0.0003386744    
0.0829899760    0.0197029860    0.0003423630    
0.0832126370    0.0199399060    0.0003459579    
0.0834352980    0.0195102310    0.0003414450    
0.0836579590    0.0199172370    0.0003442202    
0.0838806200    0.0200181380    0.0003461709    
0.0841032810    0.0198472330    0.0003425503    
0.0843259420    0.0195665320    0.0003390719    
0.0845486030    0.0198838570    0.0003418105    
0.0847712640    0.0198860290    0.0003397460    
0.0849939250    0.0192214390    0.0003346023    
0.0852165860    0.0198324650    0.0003403242    
0.0854392470    0.0196820830    0.0003358209    
0.0856619080    0.0202637940    0.0003432570    
0.0858845690    0.0189125430    0.0003286282    
0.0861072300    0.0197419280    0.0003380745    
0.0863298910    0.0190833910    0.0003341285    
0.0865525520    0.0198591700    0.0003379091    
0.0867752130    0.0192458010    0.0003299657    
0.0869978740    0.0192985350    0.0003312596    
0.0872205350    0.0193912500    0.0003316319    
0.0874431960    0.0200208300    0.0003369727    
0.0876658570    0.0194147380    0.0003331070    
0.0878885180    0.0195845990    0.0003351346    
0.0881111790    0.0195629700    0.0003345197    
0.0883338400    0.0193941890    0.0003281969    
0.0885565010    0.0194273730    0.0003329320    
0.0887791620    0.0191491210    0.0003262528    
0.0890018230    0.0193977270    0.0003315487    
0.0892244840    0.0190770770    0.0003293560    
0.0894471450    0.0192150800    0.0003291489    
0.0896698060    0.0194788860    0.0003301506    
0.0898924670    0.0192871340    0.0003300444    
0.0901151280    0.0198122210    0.0003308938    
0.0903377890    0.0192517620    0.0003289098    
0.0905604500    0.0198549640    0.0003324899    
0.0907831110    0.0190637740    0.0003249874    
0.0910057720    0.0194068750    0.0003294036    
0.0912284330    0.0199415640    0.0003291297    
0.0914510940    0.0198778220    0.0003322676    
0.0916737550    0.0195471740    0.0003286748    
0.0918964160    0.0193088760    0.0003280238    
0.0921190770    0.0198477850    0.0003295629    
0.0923417380    0.0200119450    0.0003310587    
0.0925643990    0.0194454240    0.0003255405    
0.0927870600    0.0190008170    0.0003231170    
0.0930097210    0.0188946010    0.0003194683    
0.0932323820    0.0192775490    0.0003250616    
