# Diamond Light Source Ltd.
# Data extracted from: /dls/b21/data/2018/cm19678-3/processed/b21-386631_00678.dat
q(1/A)          Column          Error           
0.0035000000    2.0744582000    0.0245485120    
0.0037226610    1.8440921000    0.0226580450    
0.0039453220    1.5888131000    0.0191326080    
0.0041679830    1.2847114000    0.0141288030    
0.0043906440    0.9733658000    0.0117632120    
0.0046133050    0.7788527100    0.0101013500    
0.0048359660    0.5817590000    0.0082579257    
0.0050586270    0.4604570000    0.0072211339    
0.0052812880    0.4163787300    0.0064924584    
0.0055039490    0.3845064400    0.0059323570    
0.0057266100    0.3150583300    0.0051949947    
0.0059492710    0.2654610900    0.0047685910    
0.0061719320    0.2196940700    0.0041802908    
0.0063945930    0.1962894400    0.0039992498    
0.0066172539    0.1793228600    0.0035893299    
0.0068399149    0.1636271900    0.0033746533    
0.0070625759    0.1466521600    0.0031620466    
0.0072852369    0.1225824400    0.0028476757    
0.0075078979    0.1131270400    0.0027222014    
0.0077305589    0.0983946200    0.0024904045    
0.0079532199    0.0992418210    0.0024664442    
0.0081758809    0.0874215880    0.0023364402    
0.0083985419    0.0830571210    0.0021240911    
0.0086212029    0.0742027770    0.0020076815    
0.0088438639    0.0682583080    0.0019101175    
0.0090665249    0.0665658030    0.0018218413    
0.0092891859    0.0606225020    0.0018146871    
0.0095118469    0.0617914400    0.0017618777    
0.0097345079    0.0576695260    0.0016531075    
0.0099571689    0.0496341170    0.0015019967    
0.0101798300    0.0499522940    0.0015068034    
0.0104024910    0.0508788580    0.0015155679    
0.0106251520    0.0458161330    0.0014430725    
0.0108478130    0.0436669700    0.0013719818    
0.0110704740    0.0441527470    0.0013134650    
0.0112931350    0.0436657200    0.0013100371    
0.0115157960    0.0415264530    0.0012700943    
0.0117384570    0.0377601670    0.0012007035    
0.0119611180    0.0387835790    0.0012203578    
0.0121837790    0.0351151460    0.0011416919    
0.0124064400    0.0356575550    0.0011025181    
0.0126291010    0.0335406250    0.0010559068    
0.0128517620    0.0357127960    0.0010922826    
0.0130744230    0.0335393300    0.0010506723    
0.0132970840    0.0315498890    0.0010140518    
0.0135197450    0.0297977600    0.0009713792    
0.0137424060    0.0310060390    0.0009770832    
0.0139650670    0.0314061870    0.0009614640    
0.0141877280    0.0316929830    0.0009679785    
0.0144103890    0.0303239340    0.0009305148    
0.0146330500    0.0302784000    0.0009239124    
0.0148557110    0.0272014490    0.0008720384    
0.0150783720    0.0271386410    0.0008638325    
0.0153010330    0.0273943620    0.0008556561    
0.0155236940    0.0278089960    0.0008569808    
0.0157463550    0.0278993190    0.0008434997    
0.0159690160    0.0252076930    0.0007987363    
0.0161916770    0.0271516550    0.0008242927    
0.0164143380    0.0277170460    0.0008391403    
0.0166369990    0.0254138020    0.0007787442    
0.0168596600    0.0250851740    0.0007668762    
0.0170823210    0.0255281940    0.0007669203    
0.0173049820    0.0249691860    0.0007597881    
0.0175276430    0.0235153530    0.0007451125    
0.0177503040    0.0234751920    0.0007254973    
0.0179729650    0.0241987320    0.0007292878    
0.0181956260    0.0235969640    0.0007063566    
0.0184182870    0.0235007290    0.0007015924    
0.0186409480    0.0244142890    0.0007196253    
0.0188636090    0.0231656180    0.0006965725    
0.0190862700    0.0229470730    0.0006921950    
0.0193089310    0.0223968520    0.0006827801    
0.0195315920    0.0223949840    0.0006595323    
0.0197542530    0.0230446790    0.0006700054    
0.0199769140    0.0240186810    0.0006840181    
0.0201995750    0.0235554640    0.0006667828    
0.0204222360    0.0219072020    0.0006485509    
0.0206448970    0.0228461610    0.0006575966    
0.0208675580    0.0216062780    0.0006263347    
0.0210902190    0.0213219180    0.0006282030    
0.0213128800    0.0207472110    0.0006112706    
0.0215355410    0.0215218270    0.0006151605    
0.0217582020    0.0227702420    0.0006327509    
0.0219808630    0.0218862450    0.0006195323    
0.0222035240    0.0220596810    0.0006163461    
0.0224261850    0.0212797020    0.0005999640    
0.0226488460    0.0217611060    0.0006021565    
0.0228715070    0.0216862790    0.0005996270    
0.0230941680    0.0221339400    0.0006057844    
0.0233168290    0.0214112220    0.0005972964    
0.0235394900    0.0219679180    0.0005983344    
0.0237621510    0.0215108680    0.0005761380    
0.0239848120    0.0210348010    0.0005703861    
0.0242074730    0.0209885860    0.0005651986    
0.0244301340    0.0212805920    0.0005697661    
0.0246527950    0.0218319070    0.0005824431    
0.0248754560    0.0214258380    0.0005640332    
0.0250981170    0.0214469260    0.0005655690    
0.0253207780    0.0205222420    0.0005367241    
0.0255434390    0.0212350710    0.0005517930    
0.0257661000    0.0207954240    0.0005478174    
0.0259887610    0.0208078200    0.0005421572    
0.0262114220    0.0215726650    0.0005549726    
0.0264340830    0.0196421810    0.0005223541    
0.0266567440    0.0204977980    0.0005303126    
0.0268794050    0.0211201020    0.0005361054    
0.0271020660    0.0215838680    0.0005397654    
0.0273247270    0.0215387760    0.0005359629    
0.0275473880    0.0209882160    0.0005280159    
0.0277700490    0.0209902360    0.0005249200    
0.0279927100    0.0204191660    0.0005132129    
0.0282153710    0.0208786890    0.0005214786    
0.0284380320    0.0212295400    0.0005227936    
0.0286606930    0.0195009700    0.0004967695    
0.0288833540    0.0207183870    0.0005130137    
0.0291060150    0.0200197880    0.0005038119    
0.0293286760    0.0210190590    0.0005090390    
0.0295513370    0.0202622620    0.0004943486    
0.0297739980    0.0211793440    0.0005109765    
0.0299966590    0.0201285600    0.0004896315    
0.0302193200    0.0206582010    0.0005032601    
0.0304419810    0.0206481640    0.0005040638    
0.0306646420    0.0198825340    0.0004806697    
0.0308873030    0.0206327630    0.0004875393    
0.0311099640    0.0206474100    0.0004889787    
0.0313326250    0.0197847780    0.0004733526    
0.0315552860    0.0206843890    0.0004902670    
0.0317779470    0.0203246520    0.0004864083    
0.0320006080    0.0197006360    0.0004680027    
0.0322232690    0.0199892430    0.0004733917    
0.0324459300    0.0202330620    0.0004727144    
0.0326685910    0.0205736990    0.0004758913    
0.0328912520    0.0195023690    0.0004648695    
0.0331139130    0.0200453440    0.0004651656    
0.0333365740    0.0196650920    0.0004622285    
0.0335592350    0.0201732490    0.0004636610    
0.0337818960    0.0204390530    0.0004663340    
0.0340045570    0.0203105430    0.0004641273    
0.0342272170    0.0200454050    0.0004592692    
0.0344498780    0.0202151130    0.0004630360    
0.0346725390    0.0205562710    0.0004582794    
0.0348952000    0.0200758130    0.0004508289    
0.0351178610    0.0195141780    0.0004465124    
0.0353405220    0.0202985660    0.0004533234    
0.0355631830    0.0201861490    0.0004503638    
0.0357858440    0.0192818540    0.0004401607    
0.0360085050    0.0205408300    0.0004556760    
0.0362311660    0.0197000750    0.0004409482    
0.0364538270    0.0200261060    0.0004410138    
0.0366764880    0.0195218570    0.0004351102    
0.0368991490    0.0203239670    0.0004417210    
0.0371218100    0.0197496590    0.0004341895    
0.0373444710    0.0197627010    0.0004390627    
0.0375671320    0.0192480520    0.0004326771    
0.0377897930    0.0197225910    0.0004266401    
0.0380124540    0.0193727630    0.0004254925    
0.0382351150    0.0194942650    0.0004268249    
0.0384577760    0.0195873590    0.0004237148    
0.0386804370    0.0205109770    0.0004368985    
0.0389030980    0.0194498990    0.0004222257    
0.0391257590    0.0196930610    0.0004219726    
0.0393484200    0.0188332640    0.0004112694    
0.0395710810    0.0193793300    0.0004177511    
0.0397937420    0.0200997660    0.0004254455    
0.0400164030    0.0200094330    0.0004262153    
0.0402390640    0.0197894450    0.0004182217    
0.0404617250    0.0194343580    0.0004120076    
0.0406843860    0.0196345950    0.0004101235    
0.0409070470    0.0201769960    0.0004200807    
0.0411297080    0.0203288810    0.0004175796    
0.0413523690    0.0205027940    0.0004204430    
0.0415750300    0.0200458490    0.0004192628    
0.0417976910    0.0200625070    0.0004085889    
0.0420203520    0.0206159840    0.0004157429    
0.0422430130    0.0200036570    0.0004110726    
0.0424656740    0.0203997580    0.0004097196    
0.0426883350    0.0208437730    0.0004162100    
0.0429109960    0.0197448750    0.0004063557    
0.0431336570    0.0196882820    0.0004000560    
0.0433563180    0.0203519530    0.0004102516    
0.0435789790    0.0198937580    0.0003992349    
0.0438016400    0.0210098300    0.0004125129    
0.0440243010    0.0195857370    0.0003942460    
0.0442469620    0.0203271270    0.0004040452    
0.0444696230    0.0198467050    0.0003978102    
0.0446922840    0.0196893730    0.0003950537    
0.0449149450    0.0201386720    0.0003941945    
0.0451376060    0.0199195730    0.0003968861    
0.0453602670    0.0183891530    0.0003773375    
0.0455829280    0.0193972370    0.0003870941    
0.0458055890    0.0201008520    0.0003963501    
0.0460282500    0.0194206720    0.0003848886    
0.0462509110    0.0199557780    0.0003877285    
0.0464735720    0.0185830790    0.0003743668    
0.0466962330    0.0200233800    0.0003903705    
0.0469188940    0.0201900100    0.0003908802    
0.0471415550    0.0198704000    0.0003897656    
0.0473642160    0.0197861130    0.0003834921    
0.0475868770    0.0196856800    0.0003806173    
0.0478095380    0.0196669620    0.0003787715    
0.0480321990    0.0199510630    0.0003823334    
0.0482548600    0.0195814870    0.0003771253    
0.0484775210    0.0201204280    0.0003860756    
0.0487001820    0.0191976120    0.0003715976    
0.0489228430    0.0194859450    0.0003741766    
0.0491455040    0.0197700430    0.0003742877    
0.0493681650    0.0199022490    0.0003787642    
0.0495908260    0.0198792060    0.0003721758    
0.0498134870    0.0200819580    0.0003776299    
0.0500361480    0.0192270930    0.0003685272    
0.0502588090    0.0198477360    0.0003688177    
0.0504814700    0.0191039680    0.0003665715    
0.0507041310    0.0193803660    0.0003648241    
0.0509267920    0.0192225210    0.0003648385    
0.0511494530    0.0197800920    0.0003676241    
0.0513721140    0.0199770440    0.0003727034    
0.0515947750    0.0196471530    0.0003647127    
0.0518174360    0.0191837470    0.0003582151    
0.0520400970    0.0198817220    0.0003621449    
0.0522627580    0.0200533610    0.0003667957    
0.0524854190    0.0196989220    0.0003664955    
0.0527080800    0.0197697050    0.0003699961    
0.0529307410    0.0199208920    0.0003731525    
0.0531534020    0.0195193640    0.0003680279    
0.0533760630    0.0196836560    0.0003707304    
0.0535987240    0.0200675170    0.0003725802    
0.0538213850    0.0196149850    0.0003726231    
0.0540440460    0.0197102360    0.0003717589    
0.0542667070    0.0203311740    0.0003801714    
0.0544893680    0.0196696730    0.0003741348    
0.0547120290    0.0198011890    0.0003728119    
0.0549346900    0.0197517630    0.0003725422    
0.0551573510    0.0198311100    0.0003776841    
0.0553800120    0.0198489250    0.0003746414    
0.0556026730    0.0193175580    0.0003772558    
0.0558253340    0.0197023550    0.0003841849    
0.0560479950    0.0195525470    0.0003827217    
0.0562706560    0.0199018970    0.0003898587    
0.0564933170    0.0200237090    0.0003944458    
0.0567159780    0.0197512260    0.0003870558    
0.0569386390    0.0198592650    0.0003942007    
0.0571613000    0.0199122340    0.0003862269    
0.0573839610    0.0199513220    0.0003833958    
0.0576066220    0.0190840300    0.0003760081    
0.0578292830    0.0196570910    0.0003803490    
0.0580519440    0.0199359130    0.0003845223    
0.0582746050    0.0187827470    0.0003715897    
0.0584972660    0.0198648230    0.0003806807    
0.0587199270    0.0191724880    0.0003707642    
0.0589425880    0.0203448720    0.0003796980    
0.0591652490    0.0195525380    0.0003744213    
0.0593879100    0.0192490690    0.0003687453    
0.0596105710    0.0193001170    0.0003688444    
0.0598332320    0.0198609100    0.0003773630    
0.0600558930    0.0196367770    0.0003728353    
0.0602785540    0.0195458350    0.0003715777    
0.0605012150    0.0198223010    0.0003734080    
0.0607238760    0.0192363690    0.0003651671    
0.0609465370    0.0196953580    0.0003724068    
0.0611691980    0.0197225180    0.0003732542    
0.0613918590    0.0195015480    0.0003671052    
0.0616145200    0.0193322720    0.0003681837    
0.0618371810    0.0195043990    0.0003661870    
0.0620598420    0.0196204170    0.0003676531    
0.0622825030    0.0197066970    0.0003740954    
0.0625051640    0.0195160260    0.0003670528    
0.0627278250    0.0192707340    0.0003639877    
0.0629504860    0.0197094500    0.0003651151    
0.0631731470    0.0193891080    0.0003666162    
0.0633958080    0.0196550020    0.0003712458    
0.0636184690    0.0197305160    0.0003771387    
0.0638411300    0.0202194410    0.0003803497    
0.0640637910    0.0199606790    0.0003805660    
0.0642864520    0.0202500560    0.0003824852    
0.0645091130    0.0195258320    0.0003788746    
0.0647317740    0.0191784160    0.0003759029    
0.0649544350    0.0194156030    0.0003778041    
0.0651770960    0.0195897520    0.0003774245    
0.0653997570    0.0195700400    0.0003764165    
0.0656224180    0.0196552420    0.0003780553    
0.0658450790    0.0194969340    0.0003711178    
0.0660677400    0.0196133710    0.0003738085    
0.0662904010    0.0198145260    0.0003802059    
0.0665130620    0.0196212980    0.0003767063    
0.0667357230    0.0194187190    0.0003814196    
0.0669583840    0.0192443440    0.0003784329    
0.0671810450    0.0199082400    0.0003827800    
0.0674037060    0.0201927150    0.0003920361    
0.0676263670    0.0192005980    0.0003794851    
0.0678490280    0.0203593170    0.0003883782    
0.0680716890    0.0195867820    0.0003817861    
0.0682943500    0.0194731030    0.0003765072    
0.0685170110    0.0196559580    0.0003744162    
0.0687396720    0.0204100510    0.0003805171    
0.0689623330    0.0187582440    0.0003636384    
0.0691849940    0.0199196430    0.0003773228    
0.0694076550    0.0192201120    0.0003704404    
0.0696303160    0.0203364550    0.0003780298    
0.0698529770    0.0197264750    0.0003715369    
0.0700756380    0.0197619880    0.0003670975    
0.0702982990    0.0196860560    0.0003703817    
0.0705209600    0.0199728930    0.0003703768    
0.0707436210    0.0197082030    0.0003662248    
0.0709662820    0.0188638420    0.0003625651    
0.0711889430    0.0194230660    0.0003633814    
0.0714116040    0.0193795780    0.0003637153    
0.0716342650    0.0199063820    0.0003671290    
0.0718569260    0.0197597890    0.0003643015    
0.0720795870    0.0196829940    0.0003650637    
0.0723022480    0.0192064960    0.0003611673    
0.0725249090    0.0196177330    0.0003606420    
0.0727475700    0.0198194170    0.0003655873    
0.0729702310    0.0193784430    0.0003586142    
0.0731928920    0.0187242090    0.0003539175    
0.0734155530    0.0185362900    0.0003514344    
0.0736382140    0.0196015210    0.0003590721    
0.0738608750    0.0200821440    0.0003657956    
0.0740835360    0.0197902890    0.0003622263    
0.0743061970    0.0191079840    0.0003509155    
0.0745288580    0.0190359390    0.0003538548    
0.0747515190    0.0194149770    0.0003580661    
0.0749741800    0.0196211470    0.0003566303    
0.0751968410    0.0195354190    0.0003586443    
0.0754195020    0.0194698650    0.0003559444    
0.0756421630    0.0190312270    0.0003490353    
0.0758648240    0.0195730890    0.0003548203    
0.0760874850    0.0193550890    0.0003526693    
0.0763101460    0.0197412680    0.0003558285    
0.0765328070    0.0195909590    0.0003580984    
0.0767554680    0.0194874130    0.0003547273    
0.0769781290    0.0193726000    0.0003516483    
0.0772007900    0.0192264100    0.0003475094    
0.0774234510    0.0198078560    0.0003547312    
0.0776461120    0.0194025370    0.0003507501    
0.0778687730    0.0196335900    0.0003516668    
0.0780914340    0.0196148770    0.0003540107    
0.0783140950    0.0194738800    0.0003471396    
0.0785367560    0.0192060210    0.0003503023    
0.0787594170    0.0195348570    0.0003501230    
0.0789820780    0.0189935670    0.0003434692    
0.0792047390    0.0201182530    0.0003546478    
0.0794274000    0.0190344270    0.0003464242    
0.0796500610    0.0193942050    0.0003462699    
0.0798727220    0.0195497180    0.0003473345    
0.0800953830    0.0193431930    0.0003447004    
0.0803180440    0.0201243680    0.0003540412    
0.0805407050    0.0191917160    0.0003454184    
0.0807633660    0.0192491850    0.0003456141    
0.0809860270    0.0200743500    0.0003516408    
0.0812086880    0.0196925740    0.0003452713    
0.0814313490    0.0196526840    0.0003464945    
0.0816540100    0.0206031900    0.0003539670    
0.0818766710    0.0192556540    0.0003429771    
0.0820993320    0.0194898730    0.0003444279    
0.0823219930    0.0193257090    0.0003443889    
0.0825446540    0.0195237190    0.0003436337    
0.0827673150    0.0190593820    0.0003372418    
0.0829899760    0.0197407820    0.0003426063    
0.0832126370    0.0195040580    0.0003420712    
0.0834352980    0.0193691570    0.0003401240    
0.0836579590    0.0193008620    0.0003387680    
0.0838806200    0.0197329780    0.0003436112    
0.0841032810    0.0196542030    0.0003407959    
0.0843259420    0.0191163590    0.0003350655    
0.0845486030    0.0199444710    0.0003422462    
0.0847712640    0.0200212060    0.0003408143    
0.0849939250    0.0194797090    0.0003367592    
0.0852165860    0.0191513680    0.0003343464    
0.0854392470    0.0194489670    0.0003337434    
0.0856619080    0.0193180620    0.0003350681    
0.0858845690    0.0192570260    0.0003315253    
0.0861072300    0.0189914580    0.0003315042    
0.0863298910    0.0189452850    0.0003328347    
0.0865525520    0.0194183130    0.0003340546    
0.0867752130    0.0194907030    0.0003319761    
0.0869978740    0.0195674430    0.0003334768    
0.0872205350    0.0191151990    0.0003291812    
0.0874431960    0.0190131900    0.0003283019    
0.0876658570    0.0198678150    0.0003368878    
0.0878885180    0.0191908390    0.0003316662    
0.0881111790    0.0201364350    0.0003393032    
0.0883338400    0.0193901210    0.0003280811    
0.0885565010    0.0197884130    0.0003359280    
0.0887791620    0.0199452100    0.0003328828    
0.0890018230    0.0192974810    0.0003306089    
0.0892244840    0.0192210650    0.0003305146    
0.0894471450    0.0194366030    0.0003309587    
0.0896698060    0.0197936190    0.0003327246    
0.0898924670    0.0199041600    0.0003351990    
0.0901151280    0.0190787930    0.0003246308    
0.0903377890    0.0192141310    0.0003285067    
0.0905604500    0.0199452890    0.0003331627    
0.0907831110    0.0200732070    0.0003333978    
0.0910057720    0.0196878450    0.0003316972    
0.0912284330    0.0197090640    0.0003271242    
0.0914510940    0.0199956430    0.0003331682    
0.0916737550    0.0193551960    0.0003269757    
0.0918964160    0.0194274050    0.0003289475    
0.0921190770    0.0194277280    0.0003259759    
0.0923417380    0.0191699710    0.0003239391    
0.0925643990    0.0190054470    0.0003217567    
0.0927870600    0.0193758340    0.0003262091    
0.0930097210    0.0193549310    0.0003232563    
0.0932323820    0.0187037000    0.0003201075    
