# Diamond Light Source Ltd.
# Data extracted from: /dls/b21/data/2018/cm19678-3/processed/b21-386631_00676.dat
q(1/A)          Column          Error           
0.0035000000    2.0875043000    0.0246254270    
0.0037226610    1.8755270000    0.0228502020    
0.0039453220    1.6254255000    0.0193516750    
0.0041679830    1.2803445000    0.0141046800    
0.0043906440    0.9693730600    0.0117389860    
0.0046133050    0.7534272800    0.0099350408    
0.0048359660    0.5886674700    0.0083067604    
0.0050586270    0.4585260200    0.0072059310    
0.0052812880    0.4254844700    0.0065630243    
0.0055039490    0.3914575600    0.0059857016    
0.0057266100    0.3095721600    0.0051495327    
0.0059492710    0.2660573400    0.0047739132    
0.0061719320    0.2183390900    0.0041673534    
0.0063945930    0.1935166100    0.0039708770    
0.0066172539    0.1799671800    0.0035957497    
0.0068399149    0.1621635600    0.0033595052    
0.0070625759    0.1466503100    0.0031620066    
0.0072852369    0.1217870500    0.0028384041    
0.0075078979    0.1156147600    0.0027519525    
0.0077305589    0.0984564060    0.0024911706    
0.0079532199    0.0972790450    0.0024419167    
0.0081758809    0.0901679820    0.0023728416    
0.0083985419    0.0802857230    0.0020883395    
0.0086212029    0.0766462600    0.0020404571    
0.0088438639    0.0690592150    0.0019212787    
0.0090665249    0.0626757710    0.0017677956    
0.0092891859    0.0602414900    0.0018089640    
0.0095118469    0.0579224610    0.0017058167    
0.0097345079    0.0538779140    0.0015978299    
0.0099571689    0.0535423530    0.0015600007    
0.0101798300    0.0527242280    0.0015480366    
0.0104024910    0.0471763380    0.0014593722    
0.0106251520    0.0478154380    0.0014742131    
0.0108478130    0.0434508870    0.0013685743    
0.0110704740    0.0419250420    0.0012798930    
0.0112931350    0.0422502740    0.0012886213    
0.0115157960    0.0404770960    0.0012539363    
0.0117384570    0.0389050790    0.0012187629    
0.0119611180    0.0380919040    0.0012094192    
0.0121837790    0.0353002970    0.0011446905    
0.0124064400    0.0335435840    0.0010693304    
0.0126291010    0.0321108360    0.0010331492    
0.0128517620    0.0343760540    0.0010716386    
0.0130744230    0.0330122890    0.0010423778    
0.0132970840    0.0320383760    0.0010218655    
0.0135197450    0.0319506470    0.0010058520    
0.0137424060    0.0310364360    0.0009775558    
0.0139650670    0.0288744890    0.0009218915    
0.0141877280    0.0307465340    0.0009534095    
0.0144103890    0.0294383990    0.0009168216    
0.0146330500    0.0300242900    0.0009200214    
0.0148557110    0.0291580190    0.0009028505    
0.0150783720    0.0277432040    0.0008733957    
0.0153010330    0.0287837600    0.0008770809    
0.0155236940    0.0277822340    0.0008565630    
0.0157463550    0.0267003810    0.0008251713    
0.0159690160    0.0266246560    0.0008208733    
0.0161916770    0.0252744920    0.0007952831    
0.0164143380    0.0259129510    0.0008113659    
0.0166369990    0.0259623160    0.0007870983    
0.0168596600    0.0250848560    0.0007668664    
0.0170823210    0.0245602080    0.0007522348    
0.0173049820    0.0253850170    0.0007660838    
0.0175276430    0.0246955300    0.0007635764    
0.0177503040    0.0249771080    0.0007483410    
0.0179729650    0.0241324890    0.0007282843    
0.0181956260    0.0248441590    0.0007247786    
0.0184182870    0.0236261020    0.0007034569    
0.0186409480    0.0231413130    0.0007006088    
0.0188636090    0.0231862700    0.0006968785    
0.0190862700    0.0230511810    0.0006937590    
0.0193089310    0.0238952230    0.0007052452    
0.0195315920    0.0224335460    0.0006600957    
0.0197542530    0.0227716720    0.0006660206    
0.0199769140    0.0225379250    0.0006625936    
0.0201995750    0.0230644330    0.0006597922    
0.0204222360    0.0231549080    0.0006667598    
0.0206448970    0.0230919330    0.0006611201    
0.0208675580    0.0220417560    0.0006326111    
0.0210902190    0.0226357420    0.0006472641    
0.0213128800    0.0210170900    0.0006152295    
0.0215355410    0.0220314600    0.0006223974    
0.0217582020    0.0227875370    0.0006329871    
0.0219808630    0.0222542410    0.0006247151    
0.0222035240    0.0216461100    0.0006105373    
0.0224261850    0.0210595330    0.0005968485    
0.0226488460    0.0224273180    0.0006113006    
0.0228715070    0.0216860040    0.0005996194    
0.0230941680    0.0209067760    0.0005887481    
0.0233168290    0.0216442210    0.0006005337    
0.0235394900    0.0211039270    0.0005864465    
0.0237621510    0.0224055850    0.0005879941    
0.0239848120    0.0211428000    0.0005718449    
0.0242074730    0.0214905790    0.0005719140    
0.0244301340    0.0201362200    0.0005542312    
0.0246527950    0.0211790120    0.0005736642    
0.0248754560    0.0212770870    0.0005620683    
0.0250981170    0.0214019120    0.0005649716    
0.0253207780    0.0210974960    0.0005441911    
0.0255434390    0.0220090630    0.0005617555    
0.0257661000    0.0220073690    0.0005635510    
0.0259887610    0.0219941380    0.0005573945    
0.0262114220    0.0207300540    0.0005440228    
0.0264340830    0.0213505300    0.0005445926    
0.0266567440    0.0210463350    0.0005373581    
0.0268794050    0.0200311840    0.0005220988    
0.0271020660    0.0201527870    0.0005215611    
0.0273247270    0.0210450510    0.0005297811    
0.0275473880    0.0207621310    0.0005251609    
0.0277700490    0.0207011770    0.0005212898    
0.0279927100    0.0201093350    0.0005093011    
0.0282153710    0.0204616380    0.0005162408    
0.0284380320    0.0210232870    0.0005202445    
0.0286606930    0.0213736030    0.0005200713    
0.0288833540    0.0206800170    0.0005125352    
0.0291060150    0.0214268600    0.0005212129    
0.0293286760    0.0209941370    0.0005087339    
0.0295513370    0.0216248660    0.0005106970    
0.0297739980    0.0203038060    0.0005003002    
0.0299966590    0.0203307790    0.0004920818    
0.0302193200    0.0208540980    0.0005056375    
0.0304419810    0.0198111590    0.0004937384    
0.0306646420    0.0196614970    0.0004779873    
0.0308873030    0.0198606550    0.0004783270    
0.0311099640    0.0204271280    0.0004863602    
0.0313326250    0.0199091010    0.0004748344    
0.0315552860    0.0198590860    0.0004803836    
0.0317779470    0.0203360350    0.0004865414    
0.0320006080    0.0198560330    0.0004698419    
0.0322232690    0.0199329350    0.0004727215    
0.0324459300    0.0197579090    0.0004671279    
0.0326685910    0.0202762290    0.0004724354    
0.0328912520    0.0202999360    0.0004742769    
0.0331139130    0.0197104660    0.0004612607    
0.0333365740    0.0201320190    0.0004676809    
0.0335592350    0.0200024880    0.0004616915    
0.0337818960    0.0205345510    0.0004674192    
0.0340045570    0.0204481620    0.0004656941    
0.0342272170    0.0200030610    0.0004587810    
0.0344498780    0.0193982020    0.0004535808    
0.0346725390    0.0200043080    0.0004520820    
0.0348952000    0.0201869210    0.0004520719    
0.0351178610    0.0202904010    0.0004553035    
0.0353405220    0.0196402590    0.0004459091    
0.0355631830    0.0195227430    0.0004428987    
0.0357858440    0.0201658110    0.0004501342    
0.0360085050    0.0196813430    0.0004460379    
0.0362311660    0.0196702160    0.0004406112    
0.0364538270    0.0197150730    0.0004375729    
0.0366764880    0.0191821880    0.0004313055    
0.0368991490    0.0200069020    0.0004382591    
0.0371218100    0.0197207730    0.0004338692    
0.0373444710    0.0199185220    0.0004407875    
0.0375671320    0.0194812320    0.0004352873    
0.0377897930    0.0204975760    0.0004349389    
0.0380124540    0.0203631050    0.0004362299    
0.0382351150    0.0196155050    0.0004281474    
0.0384577760    0.0199904020    0.0004280492    
0.0386804370    0.0193846750    0.0004247309    
0.0389030980    0.0201645780    0.0004299103    
0.0391257590    0.0194758110    0.0004196360    
0.0393484200    0.0204136700    0.0004281751    
0.0395710810    0.0190188790    0.0004138452    
0.0397937420    0.0196582580    0.0004207442    
0.0400164030    0.0195643300    0.0004214454    
0.0402390640    0.0189495460    0.0004092479    
0.0404617250    0.0193205650    0.0004107970    
0.0406843860    0.0187520010    0.0004007972    
0.0409070470    0.0192409310    0.0004102180    
0.0411297080    0.0197882420    0.0004119869    
0.0413523690    0.0199248770    0.0004144724    
0.0415750300    0.0191687100    0.0004099849    
0.0417976910    0.0200456100    0.0004084142    
0.0420203520    0.0195593660    0.0004049463    
0.0422430130    0.0191417710    0.0004021167    
0.0424656740    0.0197576430    0.0004032172    
0.0426883350    0.0196633740    0.0004042506    
0.0429109960    0.0194602880    0.0004034141    
0.0431336570    0.0200131860    0.0004033408    
0.0433563180    0.0193758720    0.0004002903    
0.0435789790    0.0193887580    0.0003941326    
0.0438016400    0.0198756630    0.0004012216    
0.0440243010    0.0192839290    0.0003911942    
0.0442469620    0.0199172810    0.0003999486    
0.0444696230    0.0190809810    0.0003900581    
0.0446922840    0.0197763140    0.0003959224    
0.0449149450    0.0192588080    0.0003854847    
0.0451376060    0.0204570400    0.0004022023    
0.0453602670    0.0198368060    0.0003919062    
0.0455829280    0.0195283130    0.0003883973    
0.0458055890    0.0200146310    0.0003954966    
0.0460282500    0.0197865620    0.0003884949    
0.0462509110    0.0195562640    0.0003838253    
0.0464735720    0.0198573970    0.0003869875    
0.0466962330    0.0195284460    0.0003855133    
0.0469188940    0.0200384070    0.0003894074    
0.0471415550    0.0196713710    0.0003878062    
0.0473642160    0.0199047860    0.0003846380    
0.0475868770    0.0193101200    0.0003769668    
0.0478095380    0.0197907240    0.0003799590    
0.0480321990    0.0194232830    0.0003772400    
0.0482548600    0.0194287150    0.0003756490    
0.0484775210    0.0198460760    0.0003834319    
0.0487001820    0.0195929690    0.0003754021    
0.0489228430    0.0199742770    0.0003788338    
0.0491455040    0.0202303800    0.0003786178    
0.0493681650    0.0200894120    0.0003805386    
0.0495908260    0.0192100520    0.0003658560    
0.0498134870    0.0194639140    0.0003717711    
0.0500361480    0.0197989930    0.0003739655    
0.0502588090    0.0199365790    0.0003696398    
0.0504814700    0.0188786450    0.0003644010    
0.0507041310    0.0195930140    0.0003668178    
0.0509267920    0.0195338780    0.0003677790    
0.0511494530    0.0203674290    0.0003730398    
0.0513721140    0.0194135750    0.0003674073    
0.0515947750    0.0197755370    0.0003659001    
0.0518174360    0.0194711230    0.0003608859    
0.0520400970    0.0196835790    0.0003603335    
0.0522627580    0.0198317110    0.0003647606    
0.0524854190    0.0192213770    0.0003620237    
0.0527080800    0.0193193620    0.0003657553    
0.0529307410    0.0190049890    0.0003644710    
0.0531534020    0.0195121770    0.0003679579    
0.0533760630    0.0197741780    0.0003715795    
0.0535987240    0.0196176350    0.0003683779    
0.0538213850    0.0198129370    0.0003744962    
0.0540440460    0.0195767630    0.0003704957    
0.0542667070    0.0195418500    0.0003727162    
0.0544893680    0.0189862610    0.0003675755    
0.0547120290    0.0195903640    0.0003708195    
0.0549346900    0.0197866460    0.0003728686    
0.0551573510    0.0198380520    0.0003777477    
0.0553800120    0.0196082550    0.0003723609    
0.0556026730    0.0198182960    0.0003821116    
0.0558253340    0.0190353810    0.0003776237    
0.0560479950    0.0198444600    0.0003855656    
0.0562706560    0.0198329140    0.0003891800    
0.0564933170    0.0189511860    0.0003837342    
0.0567159780    0.0201529730    0.0003909699    
0.0569386390    0.0198981370    0.0003945838    
0.0571613000    0.0197621550    0.0003847662    
0.0573839610    0.0194279800    0.0003783316    
0.0576066220    0.0195727360    0.0003807896    
0.0578292830    0.0194139830    0.0003779873    
0.0580519440    0.0191495070    0.0003768595    
0.0582746050    0.0193044500    0.0003767125    
0.0584972660    0.0195071120    0.0003772352    
0.0587199270    0.0188854510    0.0003679760    
0.0589425880    0.0189627960    0.0003665720    
0.0591652490    0.0198462560    0.0003772207    
0.0593879100    0.0195243130    0.0003713699    
0.0596105710    0.0191518460    0.0003674225    
0.0598332320    0.0192368760    0.0003713849    
0.0600558930    0.0195091100    0.0003716189    
0.0602785540    0.0194466940    0.0003706318    
0.0605012150    0.0190483000    0.0003660428    
0.0607238760    0.0185706600    0.0003587905    
0.0609465370    0.0204274250    0.0003792624    
0.0611691980    0.0198423540    0.0003743840    
0.0613918590    0.0193216300    0.0003654056    
0.0616145200    0.0196405540    0.0003711053    
0.0618371810    0.0198616480    0.0003695230    
0.0620598420    0.0196890600    0.0003682933    
0.0622825030    0.0200047070    0.0003769110    
0.0625051640    0.0189842210    0.0003620149    
0.0627278250    0.0200817340    0.0003715655    
0.0629504860    0.0194318920    0.0003625328    
0.0631731470    0.0197354640    0.0003698738    
0.0633958080    0.0190867770    0.0003658378    
0.0636184690    0.0198600230    0.0003783720    
0.0638411300    0.0194250130    0.0003728004    
0.0640637910    0.0194888060    0.0003760384    
0.0642864520    0.0192672900    0.0003730862    
0.0645091130    0.0194741240    0.0003783702    
0.0647317740    0.0194139400    0.0003782016    
0.0649544350    0.0194668180    0.0003782997    
0.0651770960    0.0195967750    0.0003774898    
0.0653997570    0.0202213950    0.0003826270    
0.0656224180    0.0191605280    0.0003732649    
0.0658450790    0.0196732870    0.0003727901    
0.0660677400    0.0191429210    0.0003692958    
0.0662904010    0.0200258410    0.0003822254    
0.0665130620    0.0197150680    0.0003776029    
0.0667357230    0.0193810140    0.0003810468    
0.0669583840    0.0190208510    0.0003762266    
0.0671810450    0.0205188430    0.0003886033    
0.0674037060    0.0199945680    0.0003901054    
0.0676263670    0.0200253700    0.0003875475    
0.0678490280    0.0199960340    0.0003848951    
0.0680716890    0.0204348860    0.0003899617    
0.0682943500    0.0197203620    0.0003788876    
0.0685170110    0.0197626880    0.0003754290    
0.0687396720    0.0190831910    0.0003679382    
0.0689623330    0.0193712900    0.0003695304    
0.0691849940    0.0203053420    0.0003809559    
0.0694076550    0.0197838990    0.0003758319    
0.0696303160    0.0195421440    0.0003705713    
0.0698529770    0.0195162980    0.0003695500    
0.0700756380    0.0203549990    0.0003725623    
0.0702982990    0.0194349440    0.0003680095    
0.0705209600    0.0194781320    0.0003657583    
0.0707436210    0.0188913260    0.0003585525    
0.0709662820    0.0194559220    0.0003682088    
0.0711889430    0.0193684330    0.0003628677    
0.0714116040    0.0196250720    0.0003660095    
0.0716342650    0.0194254040    0.0003626643    
0.0718569260    0.0195378990    0.0003622480    
0.0720795870    0.0198723270    0.0003668129    
0.0723022480    0.0200280190    0.0003688082    
0.0725249090    0.0197633390    0.0003619756    
0.0727475700    0.0190032020    0.0003579779    
0.0729702310    0.0192919250    0.0003578105    
0.0731928920    0.0200284290    0.0003660336    
0.0734155530    0.0202683970    0.0003674852    
0.0736382140    0.0197196690    0.0003601503    
0.0738608750    0.0197087690    0.0003623768    
0.0740835360    0.0196640720    0.0003610671    
0.0743061970    0.0193655190    0.0003532701    
0.0745288580    0.0197395060    0.0003603324    
0.0747515190    0.0193552980    0.0003575131    
0.0749741800    0.0199190690    0.0003593253    
0.0751968410    0.0200684870    0.0003635023    
0.0754195020    0.0191312430    0.0003528333    
0.0756421630    0.0197543300    0.0003556021    
0.0758648240    0.0192641010    0.0003520062    
0.0760874850    0.0197982320    0.0003566815    
0.0763101460    0.0198243940    0.0003565746    
0.0765328070    0.0202256260    0.0003638503    
0.0767554680    0.0189576940    0.0003498706    
0.0769781290    0.0192383120    0.0003504252    
0.0772007900    0.0192764150    0.0003479588    
0.0774234510    0.0194772670    0.0003517563    
0.0776461120    0.0198841780    0.0003550746    
0.0778687730    0.0194191830    0.0003497391    
0.0780914340    0.0200299220    0.0003577342    
0.0783140950    0.0201543140    0.0003531499    
0.0785367560    0.0189438230    0.0003479007    
0.0787594170    0.0197228650    0.0003518016    
0.0789820780    0.0198193940    0.0003508544    
0.0792047390    0.0192990250    0.0003473498    
0.0794274000    0.0199483810    0.0003546414    
0.0796500610    0.0197958110    0.0003498345    
0.0798727220    0.0196173510    0.0003479326    
0.0800953830    0.0195702230    0.0003467152    
0.0803180440    0.0195635530    0.0003490710    
0.0805407050    0.0194214970    0.0003474779    
0.0807633660    0.0190813970    0.0003441023    
0.0809860270    0.0190454450    0.0003425085    
0.0812086880    0.0200131650    0.0003480682    
0.0814313490    0.0191576120    0.0003421002    
0.0816540100    0.0196603510    0.0003457709    
0.0818766710    0.0200373560    0.0003498674    
0.0820993320    0.0194774530    0.0003443160    
0.0823219930    0.0195095740    0.0003460211    
0.0825446540    0.0193964600    0.0003425098    
0.0827673150    0.0195663500    0.0003416954    
0.0829899760    0.0197048560    0.0003422922    
0.0832126370    0.0201157430    0.0003473916    
0.0834352980    0.0192315430    0.0003389114    
0.0836579590    0.0197644040    0.0003428098    
0.0838806200    0.0194933980    0.0003415168    
0.0841032810    0.0193525850    0.0003381687    
0.0843259420    0.0195976900    0.0003392554    
0.0845486030    0.0193040760    0.0003367047    
0.0847712640    0.0194175970    0.0003356353    
0.0849939250    0.0193222760    0.0003353935    
0.0852165860    0.0190985930    0.0003338833    
0.0854392470    0.0195059900    0.0003342302    
0.0856619080    0.0195096010    0.0003367229    
0.0858845690    0.0195592750    0.0003341148    
0.0861072300    0.0192979000    0.0003341659    
0.0863298910    0.0194303660    0.0003370667    
0.0865525520    0.0194927750    0.0003346923    
0.0867752130    0.0190946540    0.0003285839    
0.0869978740    0.0190954910    0.0003294285    
0.0872205350    0.0199482600    0.0003362756    
0.0874431960    0.0195854910    0.0003332042    
0.0876658570    0.0196504940    0.0003350382    
0.0878885180    0.0196778120    0.0003358458    
0.0881111790    0.0201190280    0.0003391543    
0.0883338400    0.0196008160    0.0003298567    
0.0885565010    0.0194174910    0.0003327626    
0.0887791620    0.0192393840    0.0003269376    
0.0890018230    0.0190593480    0.0003285606    
0.0892244840    0.0194879360    0.0003327991    
0.0894471450    0.0195716050    0.0003321040    
0.0896698060    0.0196591380    0.0003315903    
0.0898924670    0.0191531360    0.0003288122    
0.0901151280    0.0194652040    0.0003278997    
0.0903377890    0.0197699160    0.0003332219    
0.0905604500    0.0195053990    0.0003294662    
0.0907831110    0.0191260630    0.0003254351    
0.0910057720    0.0187711140    0.0003238807    
0.0912284330    0.0189704130    0.0003209337    
0.0914510940    0.0196512160    0.0003302842    
0.0916737550    0.0199791260    0.0003322020    
0.0918964160    0.0193157640    0.0003279989    
0.0921190770    0.0194602980    0.0003262470    
0.0923417380    0.0193284720    0.0003252735    
0.0925643990    0.0195989490    0.0003267399    
0.0927870600    0.0190790230    0.0003236989    
0.0930097210    0.0196246260    0.0003254987    
0.0932323820    0.0196950650    0.0003284793    
