# Diamond Light Source Ltd.
# Data extracted from: /dls/b21/data/2018/cm19678-3/processed/b21-386631_00689.dat
q(1/A)          Column          Error           
0.0035000000    2.0897768000    0.0246402370    
0.0037226610    1.8484560000    0.0226859930    
0.0039453220    1.6064866000    0.0192397060    
0.0041679830    1.2804910000    0.0141062930    
0.0043906440    0.9603848400    0.0116851050    
0.0046133050    0.7752633100    0.0100785590    
0.0048359660    0.5911966800    0.0083250625    
0.0050586270    0.4635618000    0.0072458071    
0.0052812880    0.4274568100    0.0065785946    
0.0055039490    0.3821656100    0.0059145726    
0.0057266100    0.3176604600    0.0052166692    
0.0059492710    0.2654881000    0.0047690763    
0.0061719320    0.2170117300    0.0041549043    
0.0063945930    0.2003024200    0.0040401292    
0.0066172539    0.1835084900    0.0036311628    
0.0068399149    0.1689339000    0.0034291140    
0.0070625759    0.1438032900    0.0031313423    
0.0072852369    0.1267630000    0.0028959747    
0.0075078979    0.1137281600    0.0027295631    
0.0077305589    0.1008631700    0.0025215793    
0.0079532199    0.1014588800    0.0024939691    
0.0081758809    0.0891790930    0.0023599291    
0.0083985419    0.0850213350    0.0021491699    
0.0086212029    0.0774699310    0.0020515089    
0.0088438639    0.0672495610    0.0018960471    
0.0090665249    0.0624834740    0.0017651826    
0.0092891859    0.0651921190    0.0018819344    
0.0095118469    0.0620489370    0.0017656348    
0.0097345079    0.0552110390    0.0016175695    
0.0099571689    0.0530029940    0.0015522123    
0.0101798300    0.0485482050    0.0014855510    
0.0104024910    0.0467753860    0.0014532405    
0.0106251520    0.0478209090    0.0014743818    
0.0108478130    0.0449216320    0.0013916232    
0.0110704740    0.0413827580    0.0012716613    
0.0112931350    0.0435129350    0.0013078097    
0.0115157960    0.0392385270    0.0012346732    
0.0117384570    0.0395968430    0.0012296208    
0.0119611180    0.0379810520    0.0012077272    
0.0121837790    0.0370120110    0.0011721822    
0.0124064400    0.0365135050    0.0011157292    
0.0126291010    0.0346743620    0.0010736589    
0.0128517620    0.0327762560    0.0010464653    
0.0130744230    0.0320285470    0.0010267881    
0.0132970840    0.0327591580    0.0010333554    
0.0135197450    0.0340128060    0.0010378637    
0.0137424060    0.0308244320    0.0009742671    
0.0139650670    0.0294076600    0.0009304172    
0.0141877280    0.0305726480    0.0009507641    
0.0144103890    0.0296131060    0.0009195907    
0.0146330500    0.0286461680    0.0008987102    
0.0148557110    0.0295527820    0.0009089937    
0.0150783720    0.0285163470    0.0008855325    
0.0153010330    0.0274506070    0.0008565776    
0.0155236940    0.0293965450    0.0008811477    
0.0157463550    0.0262443510    0.0008181410    
0.0159690160    0.0268555060    0.0008244715    
0.0161916770    0.0264036040    0.0008128997    
0.0164143380    0.0270084490    0.0008283865    
0.0166369990    0.0271108140    0.0008043654    
0.0168596600    0.0248063690    0.0007626414    
0.0170823210    0.0243325960    0.0007487839    
0.0173049820    0.0243474330    0.0007503070    
0.0175276430    0.0246039070    0.0007622022    
0.0177503040    0.0250248140    0.0007490982    
0.0179729650    0.0235197800    0.0007190207    
0.0181956260    0.0252699290    0.0007310045    
0.0184182870    0.0233774350    0.0006997852    
0.0186409480    0.0239712890    0.0007131028    
0.0188636090    0.0241315620    0.0007109829    
0.0190862700    0.0232417570    0.0006966608    
0.0193089310    0.0237106040    0.0007025557    
0.0195315920    0.0235822000    0.0006768228    
0.0197542530    0.0223456770    0.0006597992    
0.0199769140    0.0231639230    0.0006717709    
0.0201995750    0.0216890880    0.0006398546    
0.0204222360    0.0223894800    0.0006556842    
0.0206448970    0.0226970450    0.0006554804    
0.0208675580    0.0237874830    0.0006572231    
0.0210902190    0.0221200380    0.0006398850    
0.0213128800    0.0223343390    0.0006342526    
0.0215355410    0.0219284710    0.0006209765    
0.0217582020    0.0213481750    0.0006127050    
0.0219808630    0.0220638600    0.0006220728    
0.0222035240    0.0214074730    0.0006071973    
0.0224261850    0.0212987840    0.0006002635    
0.0226488460    0.0214633670    0.0005980533    
0.0228715070    0.0215392530    0.0005976213    
0.0230941680    0.0213734480    0.0005953168    
0.0233168290    0.0208134920    0.0005889301    
0.0235394900    0.0214975020    0.0005919235    
0.0237621510    0.0229637220    0.0005953068    
0.0239848120    0.0202171190    0.0005592184    
0.0242074730    0.0219649100    0.0005782242    
0.0244301340    0.0209013460    0.0005646950    
0.0246527950    0.0215388630    0.0005785503    
0.0248754560    0.0217398600    0.0005681803    
0.0250981170    0.0215087720    0.0005664127    
0.0253207780    0.0206927920    0.0005389772    
0.0255434390    0.0207640190    0.0005456663    
0.0257661000    0.0212305210    0.0005535468    
0.0259887610    0.0204002370    0.0005368484    
0.0262114220    0.0211465030    0.0005494916    
0.0264340830    0.0213390810    0.0005444777    
0.0266567440    0.0206919850    0.0005328457    
0.0268794050    0.0213400060    0.0005389165    
0.0271020660    0.0198715980    0.0005179393    
0.0273247270    0.0204205700    0.0005218915    
0.0275473880    0.0208043610    0.0005257248    
0.0277700490    0.0206510320    0.0005206878    
0.0279927100    0.0198665290    0.0005062460    
0.0282153710    0.0204900310    0.0005166284    
0.0284380320    0.0208068090    0.0005175887    
0.0286606930    0.0213633920    0.0005199768    
0.0288833540    0.0201233990    0.0005056194    
0.0291060150    0.0211249900    0.0005175580    
0.0293286760    0.0213047680    0.0005125131    
0.0295513370    0.0202281370    0.0004939572    
0.0297739980    0.0201951660    0.0004989884    
0.0299966590    0.0215957350    0.0005071882    
0.0302193200    0.0201330670    0.0004968478    
0.0304419810    0.0199857160    0.0004959372    
0.0306646420    0.0205237440    0.0004883838    
0.0308873030    0.0204735630    0.0004856794    
0.0311099640    0.0196882600    0.0004775104    
0.0313326250    0.0201832060    0.0004781193    
0.0315552860    0.0195708170    0.0004769116    
0.0317779470    0.0209204560    0.0004935113    
0.0320006080    0.0205810320    0.0004783700    
0.0322232690    0.0207424910    0.0004822531    
0.0324459300    0.0205664820    0.0004766177    
0.0326685910    0.0194088400    0.0004622463    
0.0328912520    0.0201138650    0.0004721252    
0.0331139130    0.0198422680    0.0004628269    
0.0333365740    0.0201343220    0.0004677344    
0.0335592350    0.0204204330    0.0004665167    
0.0337818960    0.0196324260    0.0004570627    
0.0340045570    0.0203550380    0.0004646591    
0.0342272170    0.0201421560    0.0004603997    
0.0344498780    0.0205035620    0.0004663515    
0.0346725390    0.0200270330    0.0004523646    
0.0348952000    0.0204119810    0.0004546109    
0.0351178610    0.0200577110    0.0004527112    
0.0353405220    0.0199766310    0.0004497371    
0.0355631830    0.0205198160    0.0004540938    
0.0357858440    0.0201781670    0.0004502978    
0.0360085050    0.0199060080    0.0004486021    
0.0362311660    0.0193368610    0.0004368866    
0.0364538270    0.0193968010    0.0004340513    
0.0366764880    0.0202512590    0.0004431868    
0.0368991490    0.0196731440    0.0004346131    
0.0371218100    0.0188447530    0.0004241475    
0.0373444710    0.0201842000    0.0004437428    
0.0375671320    0.0198822740    0.0004397700    
0.0377897930    0.0203430100    0.0004333207    
0.0380124540    0.0204495510    0.0004371798    
0.0382351150    0.0199729060    0.0004320550    
0.0384577760    0.0194151840    0.0004218699    
0.0386804370    0.0194706580    0.0004256962    
0.0389030980    0.0195252120    0.0004230639    
0.0391257590    0.0197945350    0.0004230799    
0.0393484200    0.0196435570    0.0004200449    
0.0395710810    0.0201918590    0.0004264406    
0.0397937420    0.0195344210    0.0004194409    
0.0400164030    0.0188038800    0.0004131973    
0.0402390640    0.0202776270    0.0004233703    
0.0404617250    0.0203186150    0.0004212979    
0.0406843860    0.0199364540    0.0004132851    
0.0409070470    0.0200565920    0.0004188467    
0.0411297080    0.0193615830    0.0004075445    
0.0413523690    0.0199444020    0.0004146992    
0.0415750300    0.0204863820    0.0004238663    
0.0417976910    0.0194487140    0.0004023107    
0.0420203520    0.0202910770    0.0004124748    
0.0422430130    0.0197015520    0.0004079775    
0.0424656740    0.0198010530    0.0004036830    
0.0426883350    0.0199980940    0.0004077001    
0.0429109960    0.0199894330    0.0004088853    
0.0431336570    0.0197634530    0.0004008394    
0.0433563180    0.0191878650    0.0003983664    
0.0435789790    0.0197435390    0.0003977449    
0.0438016400    0.0197402330    0.0003998752    
0.0440243010    0.0199766270    0.0003981810    
0.0442469620    0.0199436560    0.0004002362    
0.0444696230    0.0202873260    0.0004022224    
0.0446922840    0.0192633030    0.0003907758    
0.0449149450    0.0193613300    0.0003865315    
0.0451376060    0.0194866310    0.0003925694    
0.0453602670    0.0197074350    0.0003906485    
0.0455829280    0.0200867970    0.0003939345    
0.0458055890    0.0199309440    0.0003946915    
0.0460282500    0.0195599650    0.0003862861    
0.0462509110    0.0188879680    0.0003772316    
0.0464735720    0.0200406920    0.0003887916    
0.0466962330    0.0205277650    0.0003952767    
0.0469188940    0.0206083180    0.0003949287    
0.0471415550    0.0196812680    0.0003879259    
0.0473642160    0.0193941480    0.0003796939    
0.0475868770    0.0197686420    0.0003814379    
0.0478095380    0.0199461960    0.0003814704    
0.0480321990    0.0193888670    0.0003769272    
0.0482548600    0.0202299670    0.0003833386    
0.0484775210    0.0194408600    0.0003795190    
0.0487001820    0.0197606620    0.0003770267    
0.0489228430    0.0193010960    0.0003724166    
0.0491455040    0.0201122190    0.0003775320    
0.0493681650    0.0195942840    0.0003758415    
0.0495908260    0.0197697320    0.0003711685    
0.0498134870    0.0197999270    0.0003749879    
0.0500361480    0.0193138210    0.0003693762    
0.0502588090    0.0197537970    0.0003679625    
0.0504814700    0.0196546090    0.0003718358    
0.0507041310    0.0193754700    0.0003647965    
0.0509267920    0.0197646460    0.0003699662    
0.0511494530    0.0200076000    0.0003697511    
0.0513721140    0.0190194130    0.0003636792    
0.0515947750    0.0198116540    0.0003662550    
0.0518174360    0.0198078290    0.0003640137    
0.0520400970    0.0195340970    0.0003589832    
0.0522627580    0.0200352720    0.0003666489    
0.0524854190    0.0193667810    0.0003634112    
0.0527080800    0.0196886140    0.0003692553    
0.0529307410    0.0200137950    0.0003740406    
0.0531534020    0.0195005300    0.0003678691    
0.0533760630    0.0197554910    0.0003714252    
0.0535987240    0.0196544700    0.0003687446    
0.0538213850    0.0195886640    0.0003723919    
0.0540440460    0.0196280910    0.0003710023    
0.0542667070    0.0190961860    0.0003684628    
0.0544893680    0.0203122140    0.0003802159    
0.0547120290    0.0196277050    0.0003711940    
0.0549346900    0.0190299600    0.0003656904    
0.0551573510    0.0198547090    0.0003779279    
0.0553800120    0.0200560310    0.0003766100    
0.0556026730    0.0196731990    0.0003807320    
0.0558253340    0.0197418210    0.0003845890    
0.0560479950    0.0198841920    0.0003859735    
0.0562706560    0.0197817190    0.0003886996    
0.0564933170    0.0199868910    0.0003941030    
0.0567159780    0.0197532360    0.0003870952    
0.0569386390    0.0192821940    0.0003884509    
0.0571613000    0.0189627510    0.0003769253    
0.0573839610    0.0196217790    0.0003802356    
0.0576066220    0.0187673780    0.0003728945    
0.0578292830    0.0194750860    0.0003786034    
0.0580519440    0.0194187240    0.0003795210    
0.0582746050    0.0198360110    0.0003818857    
0.0584972660    0.0197209260    0.0003793187    
0.0587199270    0.0193967310    0.0003729451    
0.0589425880    0.0191067060    0.0003679814    
0.0591652490    0.0193609180    0.0003726010    
0.0593879100    0.0192368990    0.0003686474    
0.0596105710    0.0199365540    0.0003748956    
0.0598332320    0.0199633210    0.0003783539    
0.0600558930    0.0192140000    0.0003688186    
0.0602785540    0.0202118990    0.0003778750    
0.0605012150    0.0193318750    0.0003687785    
0.0607238760    0.0190580750    0.0003634893    
0.0609465370    0.0199649700    0.0003749662    
0.0611691980    0.0191946760    0.0003682442    
0.0613918590    0.0194482430    0.0003666218    
0.0616145200    0.0199163000    0.0003737227    
0.0618371810    0.0201802030    0.0003724959    
0.0620598420    0.0198980100    0.0003702636    
0.0622825030    0.0191760340    0.0003690429    
0.0625051640    0.0199874940    0.0003714788    
0.0627278250    0.0197264940    0.0003682855    
0.0629504860    0.0191973620    0.0003603590    
0.0631731470    0.0193009550    0.0003658004    
0.0633958080    0.0197060920    0.0003717469    
0.0636184690    0.0194008850    0.0003739940    
0.0638411300    0.0192698140    0.0003713294    
0.0640637910    0.0197087320    0.0003781759    
0.0642864520    0.0194573490    0.0003749432    
0.0645091130    0.0192337250    0.0003760491    
0.0647317740    0.0194972160    0.0003790336    
0.0649544350    0.0197116730    0.0003806932    
0.0651770960    0.0194244810    0.0003758482    
0.0653997570    0.0190579300    0.0003714777    
0.0656224180    0.0202244870    0.0003835103    
0.0658450790    0.0200005200    0.0003758992    
0.0660677400    0.0195583670    0.0003733029    
0.0662904010    0.0195246930    0.0003774341    
0.0665130620    0.0200138790    0.0003804755    
0.0667357230    0.0192333800    0.0003796144    
0.0669583840    0.0192760720    0.0003787640    
0.0671810450    0.0193508650    0.0003774028    
0.0674037060    0.0196771500    0.0003870187    
0.0676263670    0.0198176330    0.0003855541    
0.0678490280    0.0194277880    0.0003794085    
0.0680716890    0.0199162470    0.0003850033    
0.0682943500    0.0194823650    0.0003766159    
0.0685170110    0.0198220120    0.0003760135    
0.0687396720    0.0192769380    0.0003698224    
0.0689623330    0.0195568070    0.0003713169    
0.0691849940    0.0198215970    0.0003764122    
0.0694076550    0.0197647420    0.0003756714    
0.0696303160    0.0196849370    0.0003719439    
0.0698529770    0.0191476160    0.0003660637    
0.0700756380    0.0202209310    0.0003713546    
0.0702982990    0.0191235520    0.0003650703    
0.0705209600    0.0190476160    0.0003617143    
0.0707436210    0.0194447740    0.0003637875    
0.0709662820    0.0195557180    0.0003691730    
0.0711889430    0.0192278680    0.0003615692    
0.0714116040    0.0196409710    0.0003661787    
0.0716342650    0.0192177080    0.0003607409    
0.0718569260    0.0198155370    0.0003648336    
0.0720795870    0.0195495650    0.0003638427    
0.0723022480    0.0192084500    0.0003612041    
0.0725249090    0.0197059260    0.0003614702    
0.0727475700    0.0192886360    0.0003606770    
0.0729702310    0.0186768790    0.0003520807    
0.0731928920    0.0200106500    0.0003658921    
0.0734155530    0.0195177280    0.0003606364    
0.0736382140    0.0192811750    0.0003561440    
0.0738608750    0.0200375420    0.0003654077    
0.0740835360    0.0198851310    0.0003631117    
0.0743061970    0.0193226180    0.0003528988    
0.0745288580    0.0195773040    0.0003588694    
0.0747515190    0.0194235570    0.0003581634    
0.0749741800    0.0198305900    0.0003585468    
0.0751968410    0.0192871800    0.0003563765    
0.0754195020    0.0198753400    0.0003596500    
0.0756421630    0.0198910320    0.0003568508    
0.0758648240    0.0193306330    0.0003526337    
0.0760874850    0.0196076980    0.0003549813    
0.0763101460    0.0193969030    0.0003527293    
0.0765328070    0.0198613490    0.0003605794    
0.0767554680    0.0194312770    0.0003542340    
0.0769781290    0.0192277460    0.0003503490    
0.0772007900    0.0194984810    0.0003499773    
0.0774234510    0.0197399840    0.0003541410    
0.0776461120    0.0201274240    0.0003572603    
0.0778687730    0.0193710080    0.0003493250    
0.0780914340    0.0197574500    0.0003553130    
0.0783140950    0.0196800890    0.0003489904    
0.0785367560    0.0192079760    0.0003503379    
0.0787594170    0.0198192590    0.0003526804    
0.0789820780    0.0191942750    0.0003452967    
0.0792047390    0.0194450390    0.0003486813    
0.0794274000    0.0197678040    0.0003530528    
0.0796500610    0.0191983210    0.0003445343    
0.0798727220    0.0194282750    0.0003462716    
0.0800953830    0.0195294590    0.0003463737    
0.0803180440    0.0193353130    0.0003470486    
0.0805407050    0.0197594680    0.0003505083    
0.0807633660    0.0197476270    0.0003500780    
0.0809860270    0.0198361410    0.0003495661    
0.0812086880    0.0194281900    0.0003429632    
0.0814313490    0.0199907140    0.0003494795    
0.0816540100    0.0190604990    0.0003404746    
0.0818766710    0.0191842980    0.0003423585    
0.0820993320    0.0195283810    0.0003447855    
0.0823219930    0.0197389030    0.0003480687    
0.0825446540    0.0194168260    0.0003427092    
0.0827673150    0.0189658360    0.0003364303    
0.0829899760    0.0196357510    0.0003417110    
0.0832126370    0.0199920450    0.0003463417    
0.0834352980    0.0196399220    0.0003425105    
0.0836579590    0.0184762410    0.0003314691    
0.0838806200    0.0194836610    0.0003414510    
0.0841032810    0.0192188730    0.0003370176    
0.0843259420    0.0198583670    0.0003415238    
0.0845486030    0.0197996620    0.0003410189    
0.0847712640    0.0197969590    0.0003389175    
0.0849939250    0.0193827100    0.0003359368    
0.0852165860    0.0193517960    0.0003361085    
0.0854392470    0.0193650320    0.0003330394    
0.0856619080    0.0194188360    0.0003359580    
0.0858845690    0.0192190290    0.0003312149    
0.0861072300    0.0196415500    0.0003371474    
0.0863298910    0.0197366800    0.0003397326    
0.0865525520    0.0195294890    0.0003350265    
0.0867752130    0.0199563940    0.0003359358    
0.0869978740    0.0197626840    0.0003351534    
0.0872205350    0.0196160490    0.0003334828    
0.0874431960    0.0193156020    0.0003309194    
0.0876658570    0.0202069040    0.0003397678    
0.0878885180    0.0193246420    0.0003328374    
0.0881111790    0.0185832120    0.0003259711    
0.0883338400    0.0193532320    0.0003277856    
0.0885565010    0.0197333940    0.0003354778    
0.0887791620    0.0195916340    0.0003299359    
0.0890018230    0.0194127370    0.0003316116    
0.0892244840    0.0193708030    0.0003318164    
0.0894471450    0.0190158800    0.0003273738    
0.0896698060    0.0196502000    0.0003315339    
0.0898924670    0.0193811490    0.0003307826    
0.0901151280    0.0192077920    0.0003257430    
0.0903377890    0.0196486030    0.0003322169    
0.0905604500    0.0194686710    0.0003291747    
0.0907831110    0.0190119540    0.0003244814    
0.0910057720    0.0192147880    0.0003277047    
0.0912284330    0.0193038160    0.0003237601    
0.0914510940    0.0195479790    0.0003294343    
0.0916737550    0.0193958360    0.0003273355    
0.0918964160    0.0202203710    0.0003356107    
0.0921190770    0.0196211570    0.0003276113    
0.0923417380    0.0192540400    0.0003246652    
0.0925643990    0.0192634280    0.0003239496    
0.0927870600    0.0197458080    0.0003293256    
0.0930097210    0.0198752450    0.0003275892    
0.0932323820    0.0193411770    0.0003255334    
