# Diamond Light Source Ltd.
# Data extracted from: /dls/b21/data/2018/cm19678-3/processed/b21-386631_00684.dat
q(1/A)          Column          Error           
0.0035000000    2.0782608000    0.0245677210    
0.0037226610    1.8497229000    0.0226895820    
0.0039453220    1.6121134000    0.0192698170    
0.0041679830    1.2977279000    0.0141983020    
0.0043906440    0.9604571500    0.0116833910    
0.0046133050    0.7756323800    0.0100790990    
0.0048359660    0.5899240400    0.0083145642    
0.0050586270    0.4516165000    0.0071505225    
0.0052812880    0.4102963200    0.0064440032    
0.0055039490    0.3711358800    0.0058275226    
0.0057266100    0.3213113900    0.0052455944    
0.0059492710    0.2625641900    0.0047418675    
0.0061719320    0.2267127400    0.0042459738    
0.0063945930    0.1962370400    0.0039981822    
0.0066172539    0.1840154400    0.0036355046    
0.0068399149    0.1744380600    0.0034838871    
0.0070625759    0.1449090100    0.0031427783    
0.0072852369    0.1256581000    0.0028827945    
0.0075078979    0.1131623300    0.0027222625    
0.0077305589    0.0974231100    0.0024777486    
0.0079532199    0.0995830200    0.0024703507    
0.0081758809    0.0888965070    0.0023557527    
0.0083985419    0.0826004960    0.0021179614    
0.0086212029    0.0766267700    0.0020399382    
0.0088438639    0.0709654150    0.0019473666    
0.0090665249    0.0694392580    0.0018604993    
0.0092891859    0.0607692390    0.0018166395    
0.0095118469    0.0585104150    0.0017142344    
0.0097345079    0.0552380590    0.0016176670    
0.0099571689    0.0548465080    0.0015786845    
0.0101798300    0.0511658490    0.0015247933    
0.0104024910    0.0465776090    0.0014498976    
0.0106251520    0.0460765450    0.0014469747    
0.0108478130    0.0460686380    0.0014090179    
0.0110704740    0.0446878400    0.0013212237    
0.0112931350    0.0396069270    0.0012475010    
0.0115157960    0.0405056390    0.0012542189    
0.0117384570    0.0375592380    0.0011973448    
0.0119611180    0.0373528200    0.0011974764    
0.0121837790    0.0385198640    0.0011956004    
0.0124064400    0.0348982680    0.0010905709    
0.0126291010    0.0356917890    0.0010890960    
0.0128517620    0.0334989450    0.0010577442    
0.0130744230    0.0341555760    0.0010601393    
0.0132970840    0.0331380910    0.0010391231    
0.0135197450    0.0301696960    0.0009772923    
0.0137424060    0.0314594960    0.0009840707    
0.0139650670    0.0302501800    0.0009434772    
0.0141877280    0.0287288770    0.0009214791    
0.0144103890    0.0306583910    0.0009355074    
0.0146330500    0.0283537610    0.0008939468    
0.0148557110    0.0287872700    0.0008969782    
0.0150783720    0.0283958790    0.0008834971    
0.0153010330    0.0276008020    0.0008587595    
0.0155236940    0.0273527340    0.0008498081    
0.0157463550    0.0275349370    0.0008378615    
0.0159690160    0.0247708270    0.0007916791    
0.0161916770    0.0280200330    0.0008372586    
0.0164143380    0.0253729950    0.0008027660    
0.0166369990    0.0256694380    0.0007825466    
0.0168596600    0.0251253530    0.0007673876    
0.0170823210    0.0255213800    0.0007667156    
0.0173049820    0.0254941300    0.0007676309    
0.0175276430    0.0255153720    0.0007760489    
0.0177503040    0.0248586800    0.0007464699    
0.0179729650    0.0243021370    0.0007307468    
0.0181956260    0.0244150700    0.0007184011    
0.0184182870    0.0234316360    0.0007004668    
0.0186409480    0.0242381260    0.0007169286    
0.0188636090    0.0226987580    0.0006894257    
0.0190862700    0.0239220440    0.0007066526    
0.0193089310    0.0236602440    0.0007016798    
0.0195315920    0.0237094320    0.0006785210    
0.0197542530    0.0227269330    0.0006652814    
0.0199769140    0.0223179730    0.0006592687    
0.0201995750    0.0225679610    0.0006525694    
0.0204222360    0.0228227080    0.0006618754    
0.0206448970    0.0227265240    0.0006557851    
0.0208675580    0.0224536400    0.0006384133    
0.0210902190    0.0220193650    0.0006383095    
0.0213128800    0.0224341350    0.0006355509    
0.0215355410    0.0218676520    0.0006200004    
0.0217582020    0.0217094530    0.0006177538    
0.0219808630    0.0219330000    0.0006201109    
0.0222035240    0.0223808970    0.0006207344    
0.0224261850    0.0219504610    0.0006092651    
0.0226488460    0.0217552970    0.0006019958    
0.0228715070    0.0212992580    0.0005941730    
0.0230941680    0.0209180350    0.0005888317    
0.0233168290    0.0214221640    0.0005973692    
0.0235394900    0.0214244080    0.0005908074    
0.0237621510    0.0202401180    0.0005587868    
0.0239848120    0.0213539010    0.0005746195    
0.0242074730    0.0214394660    0.0005711609    
0.0244301340    0.0200700960    0.0005532501    
0.0246527950    0.0202260180    0.0005605378    
0.0248754560    0.0209747930    0.0005579903    
0.0250981170    0.0207404110    0.0005561011    
0.0253207780    0.0208675970    0.0005411491    
0.0255434390    0.0213440790    0.0005531336    
0.0257661000    0.0204147600    0.0005427078    
0.0259887610    0.0210847130    0.0005456797    
0.0262114220    0.0212528940    0.0005507706    
0.0264340830    0.0212617760    0.0005433904    
0.0266567440    0.0213290280    0.0005408862    
0.0268794050    0.0202301600    0.0005246188    
0.0271020660    0.0194324410    0.0005120898    
0.0273247270    0.0210397000    0.0005296464    
0.0275473880    0.0212083760    0.0005307072    
0.0277700490    0.0211421160    0.0005267453    
0.0279927100    0.0207103140    0.0005167898    
0.0282153710    0.0208991580    0.0005216645    
0.0284380320    0.0203615330    0.0005119260    
0.0286606930    0.0201789390    0.0005052636    
0.0288833540    0.0199889860    0.0005038351    
0.0291060150    0.0205341340    0.0005101747    
0.0293286760    0.0206930080    0.0005050080    
0.0295513370    0.0202689100    0.0004943637    
0.0297739980    0.0207916270    0.0005062103    
0.0299966590    0.0206232900    0.0004955460    
0.0302193200    0.0202727260    0.0004984762    
0.0304419810    0.0213315610    0.0005122690    
0.0306646420    0.0199236950    0.0004811027    
0.0308873030    0.0205005660    0.0004859100    
0.0311099640    0.0198315040    0.0004791560    
0.0313326250    0.0199832920    0.0004756579    
0.0315552860    0.0201212340    0.0004834824    
0.0317779470    0.0208312800    0.0004923676    
0.0320006080    0.0200843950    0.0004724759    
0.0322232690    0.0205106840    0.0004794624    
0.0324459300    0.0211109650    0.0004827965    
0.0326685910    0.0200289650    0.0004694862    
0.0328912520    0.0209262170    0.0004814761    
0.0331139130    0.0209249040    0.0004751980    
0.0333365740    0.0203549970    0.0004702039    
0.0335592350    0.0200400170    0.0004620657    
0.0337818960    0.0201995840    0.0004635322    
0.0340045570    0.0201990890    0.0004627903    
0.0342272170    0.0199979750    0.0004586643    
0.0344498780    0.0201779070    0.0004625479    
0.0346725390    0.0203260730    0.0004556453    
0.0348952000    0.0203032430    0.0004533148    
0.0351178610    0.0201524580    0.0004536955    
0.0353405220    0.0207384830    0.0004581482    
0.0355631830    0.0200501730    0.0004487845    
0.0357858440    0.0202812250    0.0004513631    
0.0360085050    0.0201513190    0.0004512746    
0.0362311660    0.0194974730    0.0004386164    
0.0364538270    0.0203120420    0.0004440918    
0.0366764880    0.0199141530    0.0004394016    
0.0368991490    0.0201649770    0.0004399311    
0.0371218100    0.0199066170    0.0004358533    
0.0373444710    0.0200597360    0.0004422910    
0.0375671320    0.0200985860    0.0004420743    
0.0377897930    0.0191083680    0.0004198881    
0.0380124540    0.0206195250    0.0004389120    
0.0382351150    0.0201150280    0.0004335095    
0.0384577760    0.0196096210    0.0004238989    
0.0386804370    0.0197053770    0.0004281755    
0.0389030980    0.0203152280    0.0004314583    
0.0391257590    0.0201126560    0.0004263875    
0.0393484200    0.0192861480    0.0004161294    
0.0395710810    0.0198783170    0.0004230387    
0.0397937420    0.0196082450    0.0004201552    
0.0400164030    0.0197862610    0.0004237752    
0.0402390640    0.0192981740    0.0004129428    
0.0404617250    0.0194815640    0.0004124526    
0.0406843860    0.0190812400    0.0004042490    
0.0409070470    0.0195245790    0.0004131781    
0.0411297080    0.0198089360    0.0004121499    
0.0413523690    0.0204542230    0.0004198886    
0.0415750300    0.0191638360    0.0004098806    
0.0417976910    0.0204731020    0.0004126937    
0.0420203520    0.0195963010    0.0004052769    
0.0422430130    0.0194493770    0.0004052833    
0.0424656740    0.0194564530    0.0004000812    
0.0426883350    0.0196999170    0.0004045746    
0.0429109960    0.0196476360    0.0004052998    
0.0431336570    0.0197805480    0.0004009387    
0.0433563180    0.0199662110    0.0004062909    
0.0435789790    0.0194078570    0.0003942765    
0.0438016400    0.0200163590    0.0004025880    
0.0440243010    0.0207705720    0.0004059417    
0.0442469620    0.0202735260    0.0004034583    
0.0444696230    0.0193232500    0.0003924767    
0.0446922840    0.0189630000    0.0003876464    
0.0449149450    0.0198093120    0.0003909056    
0.0451376060    0.0200802740    0.0003984307    
0.0453602670    0.0197853170    0.0003913475    
0.0455829280    0.0192839390    0.0003859104    
0.0458055890    0.0189938280    0.0003852299    
0.0460282500    0.0191562080    0.0003822080    
0.0462509110    0.0198751380    0.0003868926    
0.0464735720    0.0194074990    0.0003825298    
0.0466962330    0.0194245690    0.0003844377    
0.0469188940    0.0197912170    0.0003869489    
0.0471415550    0.0193529910    0.0003846062    
0.0473642160    0.0196247840    0.0003818745    
0.0475868770    0.0197392830    0.0003810843    
0.0478095380    0.0191001570    0.0003732237    
0.0480321990    0.0195648420    0.0003785641    
0.0482548600    0.0198594480    0.0003797419    
0.0484775210    0.0198854670    0.0003837635    
0.0487001820    0.0198971950    0.0003782573    
0.0489228430    0.0189707380    0.0003691476    
0.0491455040    0.0196372510    0.0003729787    
0.0493681650    0.0199257620    0.0003789373    
0.0495908260    0.0199923210    0.0003731834    
0.0498134870    0.0198849180    0.0003757225    
0.0500361480    0.0199705010    0.0003755340    
0.0502588090    0.0195409640    0.0003659074    
0.0504814700    0.0192113800    0.0003675515    
0.0507041310    0.0198283330    0.0003689671    
0.0509267920    0.0201173400    0.0003731838    
0.0511494530    0.0194810930    0.0003647863    
0.0513721140    0.0196171840    0.0003692820    
0.0515947750    0.0194388560    0.0003627258    
0.0518174360    0.0189111420    0.0003556134    
0.0520400970    0.0194015960    0.0003576977    
0.0522627580    0.0196321580    0.0003628747    
0.0524854190    0.0206411950    0.0003751085    
0.0527080800    0.0198682690    0.0003708678    
0.0529307410    0.0198037670    0.0003720042    
0.0531534020    0.0198193870    0.0003707961    
0.0533760630    0.0196923620    0.0003707629    
0.0535987240    0.0196264770    0.0003684140    
0.0538213850    0.0195389810    0.0003718508    
0.0540440460    0.0193124170    0.0003679390    
0.0542667070    0.0199704020    0.0003767330    
0.0544893680    0.0200414900    0.0003776040    
0.0547120290    0.0197327470    0.0003721173    
0.0549346900    0.0199291340    0.0003741612    
0.0551573510    0.0204586310    0.0003835619    
0.0553800120    0.0202253710    0.0003781269    
0.0556026730    0.0197764290    0.0003816592    
0.0558253340    0.0191578600    0.0003787885    
0.0560479950    0.0195023910    0.0003821795    
0.0562706560    0.0187818870    0.0003786794    
0.0564933170    0.0199018420    0.0003931911    
0.0567159780    0.0199279440    0.0003887316    
0.0569386390    0.0191186320    0.0003867285    
0.0571613000    0.0193976370    0.0003811527    
0.0573839610    0.0199459970    0.0003832935    
0.0576066220    0.0192566890    0.0003776547    
0.0578292830    0.0193428290    0.0003772460    
0.0580519440    0.0204125430    0.0003890398    
0.0582746050    0.0193803850    0.0003774047    
0.0584972660    0.0195094450    0.0003772098    
0.0587199270    0.0196476300    0.0003752802    
0.0589425880    0.0191563380    0.0003683911    
0.0591652490    0.0205150070    0.0003834748    
0.0593879100    0.0202820440    0.0003784596    
0.0596105710    0.0196402730    0.0003720309    
0.0598332320    0.0192749930    0.0003717054    
0.0600558930    0.0196456890    0.0003728701    
0.0602785540    0.0192934470    0.0003691216    
0.0605012150    0.0198873320    0.0003739701    
0.0607238760    0.0194183490    0.0003668413    
0.0609465370    0.0196830600    0.0003722409    
0.0611691980    0.0195760120    0.0003718156    
0.0613918590    0.0195516120    0.0003675271    
0.0616145200    0.0192079380    0.0003669488    
0.0618371810    0.0192929970    0.0003641485    
0.0620598420    0.0194912080    0.0003663916    
0.0622825030    0.0194458500    0.0003715617    
0.0625051640    0.0192830640    0.0003648067    
0.0627278250    0.0193961800    0.0003651218    
0.0629504860    0.0194337130    0.0003625037    
0.0631731470    0.0188918840    0.0003618365    
0.0633958080    0.0201685140    0.0003760140    
0.0636184690    0.0197180430    0.0003769691    
0.0638411300    0.0195488260    0.0003739391    
0.0640637910    0.0195926590    0.0003769911    
0.0642864520    0.0201074230    0.0003810849    
0.0645091130    0.0193809770    0.0003774163    
0.0647317740    0.0196962720    0.0003808933    
0.0649544350    0.0198807970    0.0003822523    
0.0651770960    0.0196572200    0.0003780235    
0.0653997570    0.0193549080    0.0003742919    
0.0656224180    0.0195482190    0.0003769743    
0.0658450790    0.0198307150    0.0003742311    
0.0660677400    0.0193588500    0.0003713255    
0.0662904010    0.0195685500    0.0003777881    
0.0665130620    0.0197534370    0.0003779221    
0.0667357230    0.0195408610    0.0003825663    
0.0669583840    0.0192392070    0.0003783318    
0.0671810450    0.0193658040    0.0003774788    
0.0674037060    0.0190459380    0.0003806904    
0.0676263670    0.0193454370    0.0003808629    
0.0678490280    0.0195539480    0.0003805682    
0.0680716890    0.0200502600    0.0003862252    
0.0682943500    0.0194096830    0.0003758434    
0.0685170110    0.0193512440    0.0003714531    
0.0687396720    0.0195038780    0.0003719243    
0.0689623330    0.0196834990    0.0003724490    
0.0691849940    0.0196785260    0.0003749821    
0.0694076550    0.0192934980    0.0003710974    
0.0696303160    0.0197338820    0.0003723374    
0.0698529770    0.0193924060    0.0003683283    
0.0700756380    0.0196203650    0.0003657309    
0.0702982990    0.0184964700    0.0003589687    
0.0705209600    0.0194251140    0.0003652137    
0.0707436210    0.0197913880    0.0003669479    
0.0709662820    0.0191235410    0.0003650036    
0.0711889430    0.0198324730    0.0003671421    
0.0714116040    0.0195108920    0.0003648968    
0.0716342650    0.0194610790    0.0003629510    
0.0718569260    0.0195463600    0.0003622804    
0.0720795870    0.0189399090    0.0003580585    
0.0723022480    0.0192217380    0.0003612624    
0.0725249090    0.0196787770    0.0003611545    
0.0727475700    0.0186477960    0.0003545695    
0.0729702310    0.0198775060    0.0003631541    
0.0731928920    0.0199832090    0.0003655737    
0.0734155530    0.0196304330    0.0003616095    
0.0736382140    0.0191557000    0.0003549178    
0.0738608750    0.0193107480    0.0003586534    
0.0740835360    0.0189763730    0.0003546521    
0.0743061970    0.0192768380    0.0003524155    
0.0745288580    0.0197279100    0.0003601807    
0.0747515190    0.0195352320    0.0003591254    
0.0749741800    0.0197390350    0.0003576523    
0.0751968410    0.0196355230    0.0003595140    
0.0754195020    0.0193931060    0.0003551946    
0.0756421630    0.0188213580    0.0003470591    
0.0758648240    0.0194135330    0.0003533239    
0.0760874850    0.0199666530    0.0003581499    
0.0763101460    0.0197103500    0.0003555023    
0.0765328070    0.0193305200    0.0003556627    
0.0767554680    0.0189786950    0.0003500198    
0.0769781290    0.0191696070    0.0003497545    
0.0772007900    0.0194410570    0.0003493972    
0.0774234510    0.0195040690    0.0003519535    
0.0776461120    0.0193973580    0.0003506565    
0.0778687730    0.0194583250    0.0003500469    
0.0780914340    0.0200376040    0.0003577573    
0.0783140950    0.0191717330    0.0003443900    
0.0785367560    0.0194947210    0.0003528781    
0.0787594170    0.0190528500    0.0003457304    
0.0789820780    0.0194852530    0.0003478400    
0.0792047390    0.0192316160    0.0003466986    
0.0794274000    0.0195272980    0.0003508338    
0.0796500610    0.0192654130    0.0003450722    
0.0798727220    0.0195630070    0.0003474061    
0.0800953830    0.0197801820    0.0003485258    
0.0803180440    0.0206856410    0.0003588964    
0.0805407050    0.0199510730    0.0003521387    
0.0807633660    0.0197341430    0.0003498939    
0.0809860270    0.0202414160    0.0003530539    
0.0812086880    0.0197841500    0.0003460270    
0.0814313490    0.0197573710    0.0003473698    
0.0816540100    0.0195641580    0.0003448801    
0.0818766710    0.0188046740    0.0003388917    
0.0820993320    0.0193568820    0.0003432050    
0.0823219930    0.0188297140    0.0003398954    
0.0825446540    0.0195850190    0.0003441268    
0.0827673150    0.0195255810    0.0003412958    
0.0829899760    0.0196998460    0.0003422052    
0.0832126370    0.0196128100    0.0003429778    
0.0834352980    0.0194475810    0.0003407664    
0.0836579590    0.0197772110    0.0003428772    
0.0838806200    0.0199370700    0.0003453375    
0.0841032810    0.0192649570    0.0003373593    
0.0843259420    0.0198275610    0.0003411959    
0.0845486030    0.0188353310    0.0003325493    
0.0847712640    0.0190646590    0.0003325287    
0.0849939250    0.0192475200    0.0003347015    
0.0852165860    0.0190645590    0.0003335433    
0.0854392470    0.0194265990    0.0003335069    
0.0856619080    0.0204110220    0.0003443703    
0.0858845690    0.0195485960    0.0003339811    
0.0861072300    0.0196632340    0.0003372713    
0.0863298910    0.0195131110    0.0003377407    
0.0865525520    0.0193269510    0.0003332233    
0.0867752130    0.0192254670    0.0003296656    
0.0869978740    0.0195679010    0.0003334361    
0.0872205350    0.0193991270    0.0003315727    
0.0874431960    0.0195408400    0.0003327818    
0.0876658570    0.0196055210    0.0003346120    
0.0878885180    0.0191742550    0.0003314786    
0.0881111790    0.0192851210    0.0003320090    
0.0883338400    0.0196735270    0.0003304259    
0.0885565010    0.0194638640    0.0003331174    
0.0887791620    0.0192789260    0.0003272318    
0.0890018230    0.0195471440    0.0003326963    
0.0892244840    0.0200170720    0.0003372440    
0.0894471450    0.0192398610    0.0003292354    
0.0896698060    0.0200231780    0.0003346038    
0.0898924670    0.0200568630    0.0003364374    
0.0901151280    0.0188859450    0.0003229429    
0.0903377890    0.0196975090    0.0003325688    
0.0905604500    0.0195838930    0.0003300865    
0.0907831110    0.0191212000    0.0003253524    
0.0910057720    0.0203083210    0.0003368386    
0.0912284330    0.0198177920    0.0003279815    
0.0914510940    0.0189136480    0.0003239854    
0.0916737550    0.0195543530    0.0003286098    
0.0918964160    0.0194611970    0.0003291895    
0.0921190770    0.0190889900    0.0003230785    
0.0923417380    0.0191867440    0.0003240375    
0.0925643990    0.0194197000    0.0003252010    
0.0927870600    0.0198922640    0.0003304837    
0.0930097210    0.0191716500    0.0003216792    
0.0932323820    0.0193285700    0.0003253673    
