# Diamond Light Source Ltd.
# Data extracted from: /dls/b21/data/2018/cm19678-3/processed/b21-386631_00688.dat
q(1/A)          Column          Error           
0.0035000000    2.0622947000    0.0244783830    
0.0037226610    1.8343615000    0.0225999840    
0.0039453220    1.5865310000    0.0191203830    
0.0041679830    1.2570977000    0.0139772460    
0.0043906440    0.9339939900    0.0115237660    
0.0046133050    0.7703285600    0.0100467190    
0.0048359660    0.5834928500    0.0082708799    
0.0050586270    0.4627955100    0.0072400231    
0.0052812880    0.4259625300    0.0065672741    
0.0055039490    0.3834690900    0.0059248203    
0.0057266100    0.3199918500    0.0052359273    
0.0059492710    0.2698726700    0.0048084337    
0.0061719320    0.2220360800    0.0042028475    
0.0063945930    0.2002324000    0.0040395387    
0.0066172539    0.1822974600    0.0036192650    
0.0068399149    0.1674817700    0.0034144419    
0.0070625759    0.1493348800    0.0031910910    
0.0072852369    0.1261086200    0.0028885729    
0.0075078979    0.1166828600    0.0027648725    
0.0077305589    0.0998602590    0.0025090834    
0.0079532199    0.0970505170    0.0024392561    
0.0081758809    0.0886221160    0.0023526153    
0.0083985419    0.0852435240    0.0021520379    
0.0086212029    0.0727476710    0.0019880569    
0.0088438639    0.0709421930    0.0019474627    
0.0090665249    0.0669753480    0.0018275824    
0.0092891859    0.0617730710    0.0018319725    
0.0095118469    0.0608968580    0.0017492165    
0.0097345079    0.0587213690    0.0016682476    
0.0099571689    0.0529151100    0.0015509693    
0.0101798300    0.0491419630    0.0014946505    
0.0104024910    0.0460104720    0.0014413505    
0.0106251520    0.0450051440    0.0014303574    
0.0108478130    0.0447517510    0.0013890291    
0.0110704740    0.0420494790    0.0012819010    
0.0112931350    0.0432009530    0.0013031502    
0.0115157960    0.0412610910    0.0012661304    
0.0117384570    0.0384535250    0.0012117734    
0.0119611180    0.0378296050    0.0012053514    
0.0121837790    0.0372368840    0.0011757713    
0.0124064400    0.0347426640    0.0010883687    
0.0126291010    0.0334462190    0.0010545035    
0.0128517620    0.0351504550    0.0010837350    
0.0130744230    0.0326887650    0.0010373466    
0.0132970840    0.0312615240    0.0010094873    
0.0135197450    0.0311960270    0.0009939881    
0.0137424060    0.0321196040    0.0009945532    
0.0139650670    0.0308812840    0.0009534713    
0.0141877280    0.0295690510    0.0009350555    
0.0144103890    0.0294720120    0.0009174237    
0.0146330500    0.0274635490    0.0008799889    
0.0148557110    0.0284080860    0.0008912409    
0.0150783720    0.0264554450    0.0008529578    
0.0153010330    0.0276392930    0.0008595411    
0.0155236940    0.0269946000    0.0008444063    
0.0157463550    0.0268835090    0.0008280673    
0.0159690160    0.0264520370    0.0008182782    
0.0161916770    0.0267805440    0.0008187051    
0.0164143380    0.0251551230    0.0007994823    
0.0166369990    0.0249166470    0.0007711509    
0.0168596600    0.0258160460    0.0007780295    
0.0170823210    0.0252326880    0.0007625292    
0.0173049820    0.0242100880    0.0007482092    
0.0175276430    0.0246525430    0.0007629770    
0.0177503040    0.0241965240    0.0007366179    
0.0179729650    0.0256753990    0.0007512695    
0.0181956260    0.0231989120    0.0007004293    
0.0184182870    0.0241957740    0.0007119484    
0.0186409480    0.0232301450    0.0007020125    
0.0188636090    0.0237139690    0.0007048246    
0.0190862700    0.0236816370    0.0007032426    
0.0193089310    0.0227543230    0.0006882621    
0.0195315920    0.0233504350    0.0006735080    
0.0197542530    0.0221521280    0.0006569544    
0.0199769140    0.0236912900    0.0006793943    
0.0201995750    0.0236724760    0.0006684900    
0.0204222360    0.0214690150    0.0006420831    
0.0206448970    0.0226604830    0.0006549710    
0.0208675580    0.0209378150    0.0006166187    
0.0210902190    0.0211957280    0.0006263911    
0.0213128800    0.0228219590    0.0006411573    
0.0215355410    0.0227386830    0.0006323624    
0.0217582020    0.0218242200    0.0006195164    
0.0219808630    0.0221177440    0.0006228497    
0.0222035240    0.0216670500    0.0006108850    
0.0224261850    0.0211815770    0.0005986268    
0.0226488460    0.0214645960    0.0005980876    
0.0228715070    0.0211922570    0.0005928049    
0.0230941680    0.0219053070    0.0006026955    
0.0233168290    0.0209813350    0.0005913168    
0.0235394900    0.0214824340    0.0005917330    
0.0237621510    0.0201098410    0.0005571042    
0.0239848120    0.0210072080    0.0005700572    
0.0242074730    0.0208092530    0.0005628235    
0.0244301340    0.0220468440    0.0005799793    
0.0246527950    0.0214779320    0.0005777480    
0.0248754560    0.0210282820    0.0005588203    
0.0250981170    0.0206597470    0.0005551369    
0.0253207780    0.0205816630    0.0005375433    
0.0255434390    0.0212671300    0.0005522533    
0.0257661000    0.0209719330    0.0005501811    
0.0259887610    0.0210089270    0.0005448142    
0.0262114220    0.0213333460    0.0005519296    
0.0264340830    0.0212430490    0.0005432667    
0.0266567440    0.0218183960    0.0005471725    
0.0268794050    0.0205790420    0.0005292359    
0.0271020660    0.0212902890    0.0005361246    
0.0273247270    0.0213554580    0.0005337197    
0.0275473880    0.0214299850    0.0005335863    
0.0277700490    0.0200745310    0.0005133832    
0.0279927100    0.0207191390    0.0005170100    
0.0282153710    0.0201004000    0.0005117074    
0.0284380320    0.0206534860    0.0005156929    
0.0286606930    0.0209342860    0.0005147429    
0.0288833540    0.0206708630    0.0005124657    
0.0291060150    0.0206696920    0.0005119649    
0.0293286760    0.0200730030    0.0004974909    
0.0295513370    0.0203740490    0.0004957498    
0.0297739980    0.0202456420    0.0004996259    
0.0299966590    0.0207392880    0.0004970436    
0.0302193200    0.0196192160    0.0004904804    
0.0304419810    0.0194576520    0.0004893555    
0.0306646420    0.0208503440    0.0004922684    
0.0308873030    0.0198755870    0.0004785479    
0.0311099640    0.0205348730    0.0004876831    
0.0313326250    0.0205015130    0.0004818886    
0.0315552860    0.0195022040    0.0004760885    
0.0317779470    0.0205025220    0.0004885709    
0.0320006080    0.0205710910    0.0004782682    
0.0322232690    0.0201606140    0.0004754544    
0.0324459300    0.0199601290    0.0004695526    
0.0326685910    0.0197952880    0.0004668388    
0.0328912520    0.0201150170    0.0004721523    
0.0331139130    0.0200917170    0.0004657404    
0.0333365740    0.0211569190    0.0004794788    
0.0335592350    0.0199952640    0.0004616478    
0.0337818960    0.0197612480    0.0004585729    
0.0340045570    0.0197091330    0.0004572405    
0.0342272170    0.0200170200    0.0004589804    
0.0344498780    0.0191893790    0.0004511715    
0.0346725390    0.0205084480    0.0004577824    
0.0348952000    0.0196739830    0.0004463298    
0.0351178610    0.0201303900    0.0004535436    
0.0353405220    0.0204739290    0.0004553136    
0.0355631830    0.0194457000    0.0004420619    
0.0357858440    0.0204205100    0.0004530068    
0.0360085050    0.0198768180    0.0004482859    
0.0362311660    0.0199697340    0.0004439912    
0.0364538270    0.0204761130    0.0004459767    
0.0366764880    0.0204270090    0.0004451185    
0.0368991490    0.0202599860    0.0004410602    
0.0371218100    0.0205261090    0.0004426774    
0.0373444710    0.0191024300    0.0004317002    
0.0375671320    0.0203600700    0.0004450355    
0.0377897930    0.0203164840    0.0004330505    
0.0380124540    0.0193571500    0.0004253548    
0.0382351150    0.0193010830    0.0004247385    
0.0384577760    0.0203605260    0.0004320308    
0.0386804370    0.0200674680    0.0004321835    
0.0389030980    0.0199296910    0.0004274357    
0.0391257590    0.0196600200    0.0004216520    
0.0393484200    0.0200938060    0.0004248437    
0.0395710810    0.0195895660    0.0004200444    
0.0397937420    0.0189140770    0.0004127390    
0.0400164030    0.0199308940    0.0004254118    
0.0402390640    0.0194831950    0.0004150060    
0.0404617250    0.0195160730    0.0004129057    
0.0406843860    0.0203745610    0.0004178134    
0.0409070470    0.0190692870    0.0004084193    
0.0411297080    0.0195256920    0.0004092798    
0.0413523690    0.0200059070    0.0004153500    
0.0415750300    0.0199174820    0.0004179515    
0.0417976910    0.0192667310    0.0004004355    
0.0420203520    0.0197220440    0.0004066617    
0.0422430130    0.0191366090    0.0004020970    
0.0424656740    0.0192342940    0.0003978752    
0.0426883350    0.0196667500    0.0004043200    
0.0429109960    0.0193130730    0.0004019198    
0.0431336570    0.0196832830    0.0004000370    
0.0433563180    0.0199995320    0.0004067164    
0.0435789790    0.0196084450    0.0003963932    
0.0438016400    0.0195469470    0.0003979241    
0.0440243010    0.0194062970    0.0003924671    
0.0442469620    0.0197198870    0.0003979960    
0.0444696230    0.0194670590    0.0003940184    
0.0446922840    0.0198510590    0.0003967039    
0.0449149450    0.0199412280    0.0003922886    
0.0451376060    0.0190606610    0.0003882661    
0.0453602670    0.0202893660    0.0003963856    
0.0455829280    0.0196707370    0.0003898445    
0.0458055890    0.0196663240    0.0003920739    
0.0460282500    0.0203087400    0.0003936216    
0.0462509110    0.0192582410    0.0003809221    
0.0464735720    0.0196571450    0.0003850643    
0.0466962330    0.0192273280    0.0003825624    
0.0469188940    0.0192774110    0.0003819744    
0.0471415550    0.0199194400    0.0003902773    
0.0473642160    0.0196108440    0.0003818202    
0.0475868770    0.0200273850    0.0003839370    
0.0478095380    0.0198597870    0.0003806541    
0.0480321990    0.0202033890    0.0003847741    
0.0482548600    0.0202311260    0.0003833606    
0.0484775210    0.0199087580    0.0003840700    
0.0487001820    0.0205890990    0.0003848598    
0.0489228430    0.0189141460    0.0003686751    
0.0491455040    0.0190715580    0.0003676456    
0.0493681650    0.0193791210    0.0003737829    
0.0495908260    0.0193596980    0.0003673097    
0.0498134870    0.0197939590    0.0003749421    
0.0500361480    0.0193502510    0.0003697350    
0.0502588090    0.0201319300    0.0003714783    
0.0504814700    0.0191562510    0.0003671019    
0.0507041310    0.0199466810    0.0003701454    
0.0509267920    0.0193640910    0.0003662086    
0.0511494530    0.0193663890    0.0003637883    
0.0513721140    0.0192500000    0.0003658876    
0.0515947750    0.0197450760    0.0003656495    
0.0518174360    0.0190596890    0.0003570833    
0.0520400970    0.0196341780    0.0003599119    
0.0522627580    0.0199894490    0.0003662398    
0.0524854190    0.0190882840    0.0003607991    
0.0527080800    0.0196135590    0.0003685613    
0.0529307410    0.0198471600    0.0003724909    
0.0531534020    0.0200290940    0.0003728320    
0.0533760630    0.0197077370    0.0003709866    
0.0535987240    0.0195656550    0.0003679211    
0.0538213850    0.0193703120    0.0003703212    
0.0540440460    0.0193557100    0.0003684296    
0.0542667070    0.0196731840    0.0003739987    
0.0544893680    0.0201212050    0.0003784348    
0.0547120290    0.0200360080    0.0003750457    
0.0549346900    0.0196846280    0.0003719381    
0.0551573510    0.0196759930    0.0003762340    
0.0553800120    0.0200359630    0.0003764324    
0.0556026730    0.0198216990    0.0003821772    
0.0558253340    0.0197804150    0.0003849758    
0.0560479950    0.0192409680    0.0003796902    
0.0562706560    0.0197064700    0.0003879707    
0.0564933170    0.0198170660    0.0003924364    
0.0567159780    0.0197012640    0.0003865967    
0.0569386390    0.0205276350    0.0004008111    
0.0571613000    0.0198105040    0.0003852696    
0.0573839610    0.0195639530    0.0003796858    
0.0576066220    0.0192130270    0.0003773067    
0.0578292830    0.0185266810    0.0003692802    
0.0580519440    0.0195088500    0.0003804116    
0.0582746050    0.0191680670    0.0003754117    
0.0584972660    0.0193572380    0.0003758156    
0.0587199270    0.0198137660    0.0003769438    
0.0589425880    0.0197527600    0.0003741617    
0.0591652490    0.0198998610    0.0003777622    
0.0593879100    0.0195700560    0.0003718366    
0.0596105710    0.0191057830    0.0003670119    
0.0598332320    0.0190107030    0.0003692269    
0.0600558930    0.0197461000    0.0003739014    
0.0602785540    0.0194076430    0.0003702913    
0.0605012150    0.0193189120    0.0003686654    
0.0607238760    0.0198426100    0.0003709061    
0.0609465370    0.0192266270    0.0003679779    
0.0611691980    0.0194713120    0.0003708990    
0.0613918590    0.0197672920    0.0003696274    
0.0616145200    0.0197140590    0.0003718310    
0.0618371810    0.0200025810    0.0003708636    
0.0620598420    0.0193754870    0.0003653802    
0.0622825030    0.0196103940    0.0003732099    
0.0625051640    0.0197055530    0.0003688601    
0.0627278250    0.0194732070    0.0003659240    
0.0629504860    0.0201252370    0.0003689755    
0.0631731470    0.0194268580    0.0003670021    
0.0633958080    0.0203524390    0.0003778051    
0.0636184690    0.0192073270    0.0003721344    
0.0638411300    0.0196358710    0.0003748505    
0.0640637910    0.0198912850    0.0003799341    
0.0642864520    0.0194801400    0.0003751735    
0.0645091130    0.0197348150    0.0003809270    
0.0647317740    0.0192330490    0.0003764678    
0.0649544350    0.0201833790    0.0003852323    
0.0651770960    0.0196583230    0.0003781146    
0.0653997570    0.0203624500    0.0003839922    
0.0656224180    0.0194110930    0.0003757299    
0.0658450790    0.0201288400    0.0003771139    
0.0660677400    0.0202577850    0.0003799299    
0.0662904010    0.0196863380    0.0003790041    
0.0665130620    0.0192265770    0.0003729276    
0.0667357230    0.0193169050    0.0003804487    
0.0669583840    0.0197609670    0.0003835093    
0.0671810450    0.0194550270    0.0003784280    
0.0674037060    0.0192824270    0.0003831282    
0.0676263670    0.0197962640    0.0003853573    
0.0678490280    0.0199179580    0.0003841759    
0.0680716890    0.0200364750    0.0003861747    
0.0682943500    0.0199057690    0.0003806972    
0.0685170110    0.0192239590    0.0003703083    
0.0687396720    0.0203281520    0.0003797831    
0.0689623330    0.0199104500    0.0003746698    
0.0691849940    0.0208092220    0.0003856868    
0.0694076550    0.0200158030    0.0003780607    
0.0696303160    0.0200374760    0.0003752705    
0.0698529770    0.0195756390    0.0003701432    
0.0700756380    0.0194582190    0.0003642941    
0.0702982990    0.0191734350    0.0003655566    
0.0705209600    0.0193372200    0.0003644642    
0.0707436210    0.0194526940    0.0003638720    
0.0709662820    0.0194453240    0.0003681400    
0.0711889430    0.0194941500    0.0003640747    
0.0714116040    0.0195738230    0.0003655626    
0.0716342650    0.0188395790    0.0003571845    
0.0718569260    0.0196487340    0.0003633052    
0.0720795870    0.0189886110    0.0003585950    
0.0723022480    0.0193589880    0.0003626271    
0.0725249090    0.0196208530    0.0003606994    
0.0727475700    0.0191143790    0.0003590544    
0.0729702310    0.0200386390    0.0003647008    
0.0731928920    0.0193828720    0.0003601172    
0.0734155530    0.0197520860    0.0003628055    
0.0736382140    0.0200190980    0.0003629055    
0.0738608750    0.0198520980    0.0003637233    
0.0740835360    0.0196342930    0.0003608246    
0.0743061970    0.0195235370    0.0003547389    
0.0745288580    0.0199271010    0.0003620716    
0.0747515190    0.0199398430    0.0003629027    
0.0749741800    0.0193065970    0.0003537882    
0.0751968410    0.0197426690    0.0003605704    
0.0754195020    0.0190824610    0.0003524134    
0.0756421630    0.0192967510    0.0003514897    
0.0758648240    0.0196919990    0.0003559247    
0.0760874850    0.0189725470    0.0003491946    
0.0763101460    0.0195391380    0.0003540303    
0.0765328070    0.0194238630    0.0003565963    
0.0767554680    0.0198198750    0.0003577688    
0.0769781290    0.0197331900    0.0003549341    
0.0772007900    0.0190912620    0.0003463134    
0.0774234510    0.0192645840    0.0003498606    
0.0776461120    0.0195895320    0.0003524643    
0.0778687730    0.0189878260    0.0003458626    
0.0780914340    0.0193559970    0.0003516948    
0.0783140950    0.0203558240    0.0003549415    
0.0785367560    0.0194455150    0.0003525076    
0.0787594170    0.0194438200    0.0003493340    
0.0789820780    0.0196674940    0.0003495373    
0.0792047390    0.0197025170    0.0003509922    
0.0794274000    0.0198635240    0.0003539167    
0.0796500610    0.0198610440    0.0003504405    
0.0798727220    0.0197318140    0.0003489761    
0.0800953830    0.0197701790    0.0003485119    
0.0803180440    0.0192242890    0.0003460607    
0.0805407050    0.0191139350    0.0003447451    
0.0807633660    0.0196556620    0.0003492719    
0.0809860270    0.0196462970    0.0003478992    
0.0812086880    0.0193990290    0.0003427155    
0.0814313490    0.0194480700    0.0003447134    
0.0816540100    0.0196029050    0.0003452950    
0.0818766710    0.0201080070    0.0003505138    
0.0820993320    0.0191581470    0.0003415113    
0.0823219930    0.0196909290    0.0003476554    
0.0825446540    0.0195389220    0.0003437948    
0.0827673150    0.0194861550    0.0003410237    
0.0829899760    0.0190302860    0.0003364111    
0.0832126370    0.0199391860    0.0003458934    
0.0834352980    0.0193244490    0.0003397582    
0.0836579590    0.0195477580    0.0003409550    
0.0838806200    0.0188624130    0.0003359728    
0.0841032810    0.0197400710    0.0003415667    
0.0843259420    0.0194424610    0.0003379382    
0.0845486030    0.0196187060    0.0003394667    
0.0847712640    0.0193803140    0.0003353417    
0.0849939250    0.0193721750    0.0003358551    
0.0852165860    0.0189967880    0.0003330208    
0.0854392470    0.0194119650    0.0003334523    
0.0856619080    0.0197396430    0.0003387314    
0.0858845690    0.0194941330    0.0003335866    
0.0861072300    0.0197815740    0.0003383567    
0.0863298910    0.0196149970    0.0003386934    
0.0865525520    0.0193351870    0.0003333653    
0.0867752130    0.0195842880    0.0003327986    
0.0869978740    0.0196103440    0.0003338687    
0.0872205350    0.0192146230    0.0003300624    
0.0874431960    0.0189538470    0.0003278153    
0.0876658570    0.0193510620    0.0003325042    
0.0878885180    0.0196353280    0.0003355118    
0.0881111790    0.0187329500    0.0003272911    
0.0883338400    0.0199484070    0.0003327972    
0.0885565010    0.0196546740    0.0003348175    
0.0887791620    0.0191704510    0.0003263794    
0.0890018230    0.0194648340    0.0003320658    
0.0892244840    0.0192866490    0.0003311043    
0.0894471450    0.0193100580    0.0003299058    
0.0896698060    0.0191814390    0.0003275650    
0.0898924670    0.0198113450    0.0003344431    
0.0901151280    0.0194353990    0.0003276767    
0.0903377890    0.0192115690    0.0003285109    
0.0905604500    0.0191191300    0.0003262156    
0.0907831110    0.0192290370    0.0003263380    
0.0910057720    0.0190873360    0.0003266254    
0.0912284330    0.0200162990    0.0003296902    
0.0914510940    0.0190271970    0.0003250257    
0.0916737550    0.0193140770    0.0003266542    
0.0918964160    0.0190238350    0.0003255388    
0.0921190770    0.0194691100    0.0003263489    
0.0923417380    0.0196548090    0.0003280361    
0.0925643990    0.0194770080    0.0003257498    
0.0927870600    0.0197139820    0.0003290695    
0.0930097210    0.0193472100    0.0003232176    
0.0932323820    0.0193148880    0.0003253214    
