# Diamond Light Source Ltd.
# Data extracted from: /dls/b21/data/2018/cm19678-3/processed/b21-386631_00692.dat
q(1/A)          Column          Error           
0.0035000000    2.0470258000    0.0243883720    
0.0037226610    1.8651084000    0.0227893270    
0.0039453220    1.5972324000    0.0191853690    
0.0041679830    1.2661918000    0.0140281580    
0.0043906440    0.9754309500    0.0117769950    
0.0046133050    0.7727362100    0.0100627270    
0.0048359660    0.5967786500    0.0083647773    
0.0050586270    0.4650903400    0.0072581818    
0.0052812880    0.4181927800    0.0065073102    
0.0055039490    0.3749795200    0.0058590550    
0.0057266100    0.3221541700    0.0052537551    
0.0059492710    0.2701468600    0.0048110286    
0.0061719320    0.2236413800    0.0042181473    
0.0063945930    0.1991041300    0.0040282696    
0.0066172539    0.1794346400    0.0035908480    
0.0068399149    0.1747323200    0.0034876779    
0.0070625759    0.1470257800    0.0031664243    
0.0072852369    0.1245286000    0.0028705115    
0.0075078979    0.1149212500    0.0027440091    
0.0077305589    0.0952011200    0.0024499295    
0.0079532199    0.0910481210    0.0023626955    
0.0081758809    0.0870663000    0.0023319472    
0.0083985419    0.0792179450    0.0020746499    
0.0086212029    0.0794896240    0.0020782045    
0.0088438639    0.0723367650    0.0019665735    
0.0090665249    0.0660818890    0.0018154091    
0.0092891859    0.0624833290    0.0018425329    
0.0095118469    0.0611519690    0.0017529323    
0.0097345079    0.0570188030    0.0016439374    
0.0099571689    0.0547824400    0.0015781484    
0.0101798300    0.0488268470    0.0014898980    
0.0104024910    0.0480453910    0.0014729260    
0.0106251520    0.0471447480    0.0014640096    
0.0108478130    0.0450132920    0.0013931264    
0.0110704740    0.0451787060    0.0013287855    
0.0112931350    0.0424174610    0.0012913202    
0.0115157960    0.0427401930    0.0012886653    
0.0117384570    0.0389906090    0.0012202453    
0.0119611180    0.0387153960    0.0012194203    
0.0121837790    0.0352343460    0.0011437553    
0.0124064400    0.0385296420    0.0011461877    
0.0126291010    0.0362079990    0.0010972121    
0.0128517620    0.0342838960    0.0010703270    
0.0130744230    0.0348307270    0.0010708280    
0.0132970840    0.0312635110    0.0010095514    
0.0135197450    0.0305962200    0.0009844172    
0.0137424060    0.0317828740    0.0009893577    
0.0139650670    0.0306182810    0.0009494326    
0.0141877280    0.0294230760    0.0009327742    
0.0144103890    0.0302450040    0.0009294064    
0.0146330500    0.0278882710    0.0008867954    
0.0148557110    0.0297241280    0.0009116801    
0.0150783720    0.0293173570    0.0008979377    
0.0153010330    0.0275608530    0.0008583478    
0.0155236940    0.0271812210    0.0008473470    
0.0157463550    0.0259414290    0.0008134548    
0.0159690160    0.0278966480    0.0008403520    
0.0161916770    0.0270075170    0.0008221933    
0.0164143380    0.0256903500    0.0008079685    
0.0166369990    0.0268992780    0.0008012696    
0.0168596600    0.0249266130    0.0007645337    
0.0170823210    0.0257643270    0.0007705448    
0.0173049820    0.0243041260    0.0007496847    
0.0175276430    0.0251027960    0.0007699375    
0.0177503040    0.0239289450    0.0007325569    
0.0179729650    0.0242920530    0.0007307740    
0.0181956260    0.0243424290    0.0007175072    
0.0184182870    0.0232545590    0.0006979859    
0.0186409480    0.0245258030    0.0007213472    
0.0188636090    0.0223746720    0.0006846538    
0.0190862700    0.0233907580    0.0006989326    
0.0193089310    0.0225475740    0.0006851499    
0.0195315920    0.0229633680    0.0006679237    
0.0197542530    0.0222509560    0.0006584391    
0.0199769140    0.0229523960    0.0006687370    
0.0201995750    0.0232397690    0.0006623732    
0.0204222360    0.0222001420    0.0006529454    
0.0206448970    0.0224347360    0.0006517211    
0.0208675580    0.0226280800    0.0006410453    
0.0210902190    0.0221597360    0.0006404976    
0.0213128800    0.0226072440    0.0006381544    
0.0215355410    0.0220014690    0.0006220468    
0.0217582020    0.0227049620    0.0006319135    
0.0219808630    0.0225401320    0.0006287890    
0.0222035240    0.0227535710    0.0006260344    
0.0224261850    0.0208614570    0.0005941048    
0.0226488460    0.0207826490    0.0005885287    
0.0228715070    0.0217906070    0.0006011345    
0.0230941680    0.0220891170    0.0006052381    
0.0233168290    0.0208326730    0.0005892370    
0.0235394900    0.0204731800    0.0005776842    
0.0237621510    0.0211143600    0.0005708669    
0.0239848120    0.0217201720    0.0005796685    
0.0242074730    0.0216021990    0.0005734648    
0.0244301340    0.0213768790    0.0005711172    
0.0246527950    0.0207954410    0.0005685126    
0.0248754560    0.0210890240    0.0005596446    
0.0250981170    0.0222572580    0.0005762186    
0.0253207780    0.0218465910    0.0005538331    
0.0255434390    0.0215983360    0.0005565547    
0.0257661000    0.0207278800    0.0005469878    
0.0259887610    0.0212363310    0.0005477722    
0.0262114220    0.0203350840    0.0005388787    
0.0264340830    0.0210776670    0.0005411651    
0.0266567440    0.0205572540    0.0005311402    
0.0268794050    0.0207981310    0.0005320625    
0.0271020660    0.0202925420    0.0005234280    
0.0273247270    0.0210500020    0.0005299058    
0.0275473880    0.0206872950    0.0005242753    
0.0277700490    0.0205222270    0.0005190928    
0.0279927100    0.0198689300    0.0005063072    
0.0282153710    0.0205185620    0.0005170192    
0.0284380320    0.0213630360    0.0005244931    
0.0286606930    0.0212647130    0.0005188059    
0.0288833540    0.0204942960    0.0005102886    
0.0291060150    0.0212416770    0.0005190168    
0.0293286760    0.0203578830    0.0005010246    
0.0295513370    0.0205924880    0.0004984161    
0.0297739980    0.0206661710    0.0005048043    
0.0299966590    0.0213362580    0.0005041624    
0.0302193200    0.0210674720    0.0005082774    
0.0304419810    0.0203942940    0.0005010112    
0.0306646420    0.0200845500    0.0004831592    
0.0308873030    0.0195196430    0.0004742585    
0.0311099640    0.0202350270    0.0004841248    
0.0313326250    0.0192114780    0.0004664959    
0.0315552860    0.0198172660    0.0004799340    
0.0317779470    0.0194210000    0.0004755252    
0.0320006080    0.0206613600    0.0004793316    
0.0322232690    0.0199936920    0.0004734971    
0.0324459300    0.0199834910    0.0004698423    
0.0326685910    0.0204351440    0.0004743389    
0.0328912520    0.0192739600    0.0004621907    
0.0331139130    0.0200606030    0.0004653944    
0.0333365740    0.0202128250    0.0004686737    
0.0335592350    0.0203802630    0.0004660858    
0.0337818960    0.0205925930    0.0004681344    
0.0340045570    0.0198058610    0.0004583757    
0.0342272170    0.0203445630    0.0004627351    
0.0344498780    0.0201241370    0.0004620443    
0.0346725390    0.0208469810    0.0004615599    
0.0348952000    0.0209005060    0.0004600467    
0.0351178610    0.0200805730    0.0004529965    
0.0353405220    0.0208296480    0.0004592665    
0.0355631830    0.0201403920    0.0004499032    
0.0357858440    0.0208841120    0.0004581348    
0.0360085050    0.0201409650    0.0004512691    
0.0362311660    0.0204942180    0.0004497982    
0.0364538270    0.0200305640    0.0004411120    
0.0366764880    0.0197493040    0.0004376862    
0.0368991490    0.0193490360    0.0004310442    
0.0371218100    0.0196967700    0.0004336560    
0.0373444710    0.0196597770    0.0004379667    
0.0375671320    0.0196220120    0.0004369086    
0.0377897930    0.0194223530    0.0004234274    
0.0380124540    0.0200313910    0.0004327131    
0.0382351150    0.0195359940    0.0004273290    
0.0384577760    0.0192525090    0.0004201242    
0.0386804370    0.0203666090    0.0004354067    
0.0389030980    0.0195734110    0.0004236113    
0.0391257590    0.0198873650    0.0004240964    
0.0393484200    0.0197896590    0.0004216296    
0.0395710810    0.0196178330    0.0004203607    
0.0397937420    0.0203564430    0.0004282010    
0.0400164030    0.0202499860    0.0004288173    
0.0402390640    0.0203508010    0.0004241592    
0.0404617250    0.0197444610    0.0004153279    
0.0406843860    0.0206243420    0.0004203800    
0.0409070470    0.0196128710    0.0004142127    
0.0411297080    0.0197242620    0.0004113687    
0.0413523690    0.0202055250    0.0004174303    
0.0415750300    0.0200678540    0.0004195396    
0.0417976910    0.0198505720    0.0004064703    
0.0420203520    0.0199077840    0.0004085851    
0.0422430130    0.0195180460    0.0004060975    
0.0424656740    0.0194659810    0.0004002771    
0.0426883350    0.0190611680    0.0003980590    
0.0429109960    0.0191720990    0.0004004630    
0.0431336570    0.0199040640    0.0004022870    
0.0433563180    0.0202820380    0.0004095919    
0.0435789790    0.0201866820    0.0004022081    
0.0438016400    0.0200018570    0.0004025407    
0.0440243010    0.0198599760    0.0003970407    
0.0442469620    0.0197532720    0.0003983454    
0.0444696230    0.0195321010    0.0003946886    
0.0446922840    0.0200267420    0.0003984682    
0.0449149450    0.0195025880    0.0003879624    
0.0451376060    0.0192279720    0.0003899788    
0.0453602670    0.0195471810    0.0003890805    
0.0455829280    0.0192856550    0.0003860220    
0.0458055890    0.0196832080    0.0003922546    
0.0460282500    0.0191808480    0.0003825473    
0.0462509110    0.0193348150    0.0003816908    
0.0464735720    0.0190398260    0.0003789818    
0.0466962330    0.0192742240    0.0003830408    
0.0469188940    0.0194830040    0.0003840180    
0.0471415550    0.0198824710    0.0003899273    
0.0473642160    0.0194708360    0.0003804669    
0.0475868770    0.0194618790    0.0003784897    
0.0478095380    0.0203499140    0.0003853349    
0.0480321990    0.0197356490    0.0003803060    
0.0482548600    0.0202324120    0.0003833849    
0.0484775210    0.0196729110    0.0003818004    
0.0487001820    0.0204968800    0.0003840091    
0.0489228430    0.0199214830    0.0003783773    
0.0491455040    0.0200933870    0.0003773780    
0.0493681650    0.0191856840    0.0003719246    
0.0495908260    0.0201345290    0.0003745999    
0.0498134870    0.0193193360    0.0003704314    
0.0500361480    0.0198107160    0.0003741202    
0.0502588090    0.0194819830    0.0003654442    
0.0504814700    0.0194037080    0.0003694772    
0.0507041310    0.0194052880    0.0003650992    
0.0509267920    0.0199817430    0.0003720150    
0.0511494530    0.0198801710    0.0003685940    
0.0513721140    0.0202249130    0.0003750503    
0.0515947750    0.0203693290    0.0003713965    
0.0518174360    0.0196295830    0.0003623940    
0.0520400970    0.0199323330    0.0003626459    
0.0522627580    0.0193196650    0.0003600632    
0.0524854190    0.0196964870    0.0003665137    
0.0527080800    0.0187836690    0.0003606912    
0.0529307410    0.0193869920    0.0003681591    
0.0531534020    0.0194473630    0.0003673894    
0.0533760630    0.0200791440    0.0003744780    
0.0535987240    0.0197744680    0.0003698909    
0.0538213850    0.0196759930    0.0003732436    
0.0540440460    0.0198899580    0.0003734915    
0.0542667070    0.0197099860    0.0003743602    
0.0544893680    0.0199089440    0.0003764454    
0.0547120290    0.0204936320    0.0003793166    
0.0549346900    0.0198264420    0.0003732873    
0.0551573510    0.0196124920    0.0003756383    
0.0553800120    0.0193087380    0.0003695495    
0.0556026730    0.0198892810    0.0003828403    
0.0558253340    0.0194744560    0.0003819990    
0.0560479950    0.0197067610    0.0003842708    
0.0562706560    0.0202577050    0.0003933720    
0.0564933170    0.0195385360    0.0003896812    
0.0567159780    0.0198087290    0.0003876620    
0.0569386390    0.0196601970    0.0003922636    
0.0571613000    0.0195195320    0.0003824420    
0.0573839610    0.0198820710    0.0003827724    
0.0576066220    0.0195921610    0.0003810234    
0.0578292830    0.0196393830    0.0003802200    
0.0580519440    0.0191540120    0.0003769482    
0.0582746050    0.0197575250    0.0003811524    
0.0584972660    0.0200954470    0.0003829267    
0.0587199270    0.0199584560    0.0003783296    
0.0589425880    0.0194563230    0.0003713553    
0.0591652490    0.0197792090    0.0003766273    
0.0593879100    0.0194441210    0.0003706501    
0.0596105710    0.0198896090    0.0003744766    
0.0598332320    0.0202525970    0.0003811083    
0.0600558930    0.0198181590    0.0003745949    
0.0602785540    0.0198610670    0.0003746038    
0.0605012150    0.0197493200    0.0003727614    
0.0607238760    0.0196705320    0.0003693061    
0.0609465370    0.0193475830    0.0003691453    
0.0611691980    0.0193029770    0.0003693040    
0.0613918590    0.0198584050    0.0003704901    
0.0616145200    0.0197784340    0.0003724495    
0.0618371810    0.0197287900    0.0003683284    
0.0620598420    0.0199004140    0.0003703084    
0.0622825030    0.0195121970    0.0003722861    
0.0625051640    0.0196584700    0.0003684308    
0.0627278250    0.0192750240    0.0003640687    
0.0629504860    0.0203903590    0.0003714097    
0.0631731470    0.0192270170    0.0003651211    
0.0633958080    0.0197154870    0.0003718580    
0.0636184690    0.0195690690    0.0003756343    
0.0638411300    0.0197587770    0.0003760338    
0.0640637910    0.0189781160    0.0003711225    
0.0642864520    0.0194452480    0.0003748492    
0.0645091130    0.0196772430    0.0003803831    
0.0647317740    0.0200522810    0.0003844143    
0.0649544350    0.0199787710    0.0003832869    
0.0651770960    0.0192449970    0.0003741303    
0.0653997570    0.0195019790    0.0003758032    
0.0656224180    0.0202996640    0.0003842456    
0.0658450790    0.0199181480    0.0003751469    
0.0660677400    0.0195037220    0.0003728036    
0.0662904010    0.0200013640    0.0003820367    
0.0665130620    0.0196690690    0.0003772065    
0.0667357230    0.0191008220    0.0003783268    
0.0669583840    0.0190476560    0.0003765359    
0.0671810450    0.0190955530    0.0003749275    
0.0674037060    0.0199079160    0.0003893050    
0.0676263670    0.0197600130    0.0003850165    
0.0678490280    0.0197487840    0.0003825531    
0.0680716890    0.0188467970    0.0003745465    
0.0682943500    0.0193536560    0.0003753924    
0.0685170110    0.0195176600    0.0003731382    
0.0687396720    0.0198398350    0.0003752057    
0.0689623330    0.0192700840    0.0003686072    
0.0691849940    0.0195809280    0.0003741427    
0.0694076550    0.0196957170    0.0003750375    
0.0696303160    0.0203901830    0.0003785709    
0.0698529770    0.0187859680    0.0003626121    
0.0700756380    0.0195685870    0.0003653375    
0.0702982990    0.0199971210    0.0003733380    
0.0705209600    0.0197094170    0.0003679667    
0.0707436210    0.0199440230    0.0003684503    
0.0709662820    0.0188959220    0.0003629137    
0.0711889430    0.0196313870    0.0003653656    
0.0714116040    0.0200598350    0.0003700850    
0.0716342650    0.0195857390    0.0003642007    
0.0718569260    0.0198918280    0.0003655573    
0.0720795870    0.0190101350    0.0003588095    
0.0723022480    0.0196998710    0.0003658174    
0.0725249090    0.0197348330    0.0003617570    
0.0727475700    0.0191290840    0.0003592039    
0.0729702310    0.0188450850    0.0003536840    
0.0731928920    0.0196985860    0.0003630497    
0.0734155530    0.0199066230    0.0003642336    
0.0736382140    0.0193492970    0.0003567941    
0.0738608750    0.0192535600    0.0003582096    
0.0740835360    0.0198344830    0.0003626709    
0.0743061970    0.0192089260    0.0003518803    
0.0745288580    0.0193165020    0.0003564926    
0.0747515190    0.0193334310    0.0003573531    
0.0749741800    0.0192559560    0.0003533352    
0.0751968410    0.0195792810    0.0003590867    
0.0754195020    0.0196564440    0.0003576856    
0.0756421630    0.0202840050    0.0003603804    
0.0758648240    0.0200277980    0.0003589580    
0.0760874850    0.0200792690    0.0003592464    
0.0763101460    0.0197649080    0.0003560811    
0.0765328070    0.0198964850    0.0003609200    
0.0767554680    0.0194336250    0.0003542768    
0.0769781290    0.0197855200    0.0003554158    
0.0772007900    0.0197395720    0.0003521556    
0.0774234510    0.0192022660    0.0003493054    
0.0776461120    0.0197556720    0.0003539670    
0.0778687730    0.0202490870    0.0003571762    
0.0780914340    0.0192549780    0.0003507870    
0.0783140950    0.0203756860    0.0003551259    
0.0785367560    0.0195553920    0.0003535133    
0.0787594170    0.0187546240    0.0003430979    
0.0789820780    0.0199172440    0.0003517608    
0.0792047390    0.0194286290    0.0003485552    
0.0794274000    0.0185341610    0.0003418796    
0.0796500610    0.0194974630    0.0003472291    
0.0798727220    0.0199429290    0.0003508492    
0.0800953830    0.0191938980    0.0003434058    
0.0803180440    0.0189513940    0.0003436066    
0.0805407050    0.0189534730    0.0003433059    
0.0807633660    0.0191417470    0.0003446866    
0.0809860270    0.0189944760    0.0003420901    
0.0812086880    0.0194063170    0.0003427908    
0.0814313490    0.0198648110    0.0003483982    
0.0816540100    0.0197866290    0.0003469203    
0.0818766710    0.0196693370    0.0003466803    
0.0820993320    0.0194759470    0.0003443432    
0.0823219930    0.0196430730    0.0003472437    
0.0825446540    0.0192195350    0.0003409842    
0.0827673150    0.0187651960    0.0003346662    
0.0829899760    0.0200247010    0.0003450996    
0.0832126370    0.0195984110    0.0003429358    
0.0834352980    0.0190090590    0.0003369850    
0.0836579590    0.0189840000    0.0003360132    
0.0838806200    0.0194560910    0.0003412299    
0.0841032810    0.0192862120    0.0003376280    
0.0843259420    0.0194671930    0.0003381638    
0.0845486030    0.0190090320    0.0003341610    
0.0847712640    0.0193351230    0.0003349611    
0.0849939250    0.0195480990    0.0003373874    
0.0852165860    0.0195117700    0.0003375153    
0.0854392470    0.0193272740    0.0003327347    
0.0856619080    0.0197874010    0.0003391517    
0.0858845690    0.0194782460    0.0003334612    
0.0861072300    0.0192503500    0.0003337932    
0.0863298910    0.0188500760    0.0003320343    
0.0865525520    0.0192444470    0.0003325927    
0.0867752130    0.0196534000    0.0003333959    
0.0869978740    0.0197252810    0.0003348563    
0.0872205350    0.0194086270    0.0003317351    
0.0874431960    0.0193746370    0.0003314447    
0.0876658570    0.0192951550    0.0003320341    
0.0878885180    0.0193269770    0.0003328776    
0.0881111790    0.0192430970    0.0003317282    
0.0883338400    0.0189335900    0.0003242319    
0.0885565010    0.0198612660    0.0003365833    
0.0887791620    0.0197162560    0.0003310035    
0.0890018230    0.0195227240    0.0003325698    
0.0892244840    0.0192139740    0.0003304904    
0.0894471450    0.0194691130    0.0003312722    
0.0896698060    0.0193392970    0.0003289205    
0.0898924670    0.0194060760    0.0003310152    
0.0901151280    0.0196134310    0.0003291845    
0.0903377890    0.0200554560    0.0003356591    
0.0905604500    0.0195378200    0.0003297786    
0.0907831110    0.0195293470    0.0003288869    
0.0910057720    0.0196139730    0.0003311112    
0.0912284330    0.0193387330    0.0003240724    
0.0914510940    0.0191505620    0.0003260881    
0.0916737550    0.0193318800    0.0003268151    
0.0918964160    0.0189971890    0.0003253210    
0.0921190770    0.0200119500    0.0003308778    
0.0923417380    0.0198093640    0.0003293338    
0.0925643990    0.0197670140    0.0003281765    
0.0927870600    0.0192098560    0.0003248451    
0.0930097210    0.0198992470    0.0003278068    
0.0932323820    0.0197106580    0.0003286479    
