# Diamond Light Source Ltd.
# Data extracted from: /dls/b21/data/2018/cm19678-3/processed/b21-386631_00702.dat
q(1/A)          Column          Error           
0.0035000000    2.0458766000    0.0243816040    
0.0037226610    1.8344898000    0.0226015650    
0.0039453220    1.6073824000    0.0192462930    
0.0041679830    1.3058318000    0.0142460970    
0.0043906440    0.9730199300    0.0117624680    
0.0046133050    0.7526920800    0.0099313922    
0.0048359660    0.5852923500    0.0082839136    
0.0050586270    0.4614686200    0.0072298896    
0.0052812880    0.4238659100    0.0065513210    
0.0055039490    0.3723270200    0.0058383143    
0.0057266100    0.3208710300    0.0052432987    
0.0059492710    0.2588388500    0.0047092755    
0.0061719320    0.2195057000    0.0041789767    
0.0063945930    0.1978013900    0.0040150824    
0.0066172539    0.1821664900    0.0036180912    
0.0068399149    0.1608104500    0.0033458640    
0.0070625759    0.1520049000    0.0032196046    
0.0072852369    0.1240662200    0.0028651866    
0.0075078979    0.1153151000    0.0027487159    
0.0077305589    0.0998041970    0.0025084668    
0.0079532199    0.0976704280    0.0024471196    
0.0081758809    0.0905020640    0.0023775206    
0.0083985419    0.0810114620    0.0020980105    
0.0086212029    0.0786207950    0.0020668224    
0.0088438639    0.0708936910    0.0019468650    
0.0090665249    0.0646858550    0.0017961365    
0.0092891859    0.0643310750    0.0018695839    
0.0095118469    0.0572329810    0.0016958386    
0.0097345079    0.0547440890    0.0016108171    
0.0099571689    0.0519186280    0.0015363500    
0.0101798300    0.0502819730    0.0015119407    
0.0104024910    0.0454266660    0.0014322270    
0.0106251520    0.0450992180    0.0014319016    
0.0108478130    0.0462208410    0.0014116936    
0.0110704740    0.0416225170    0.0012754209    
0.0112931350    0.0422604850    0.0012889327    
0.0115157960    0.0401760380    0.0012494154    
0.0117384570    0.0392963700    0.0012250244    
0.0119611180    0.0367952250    0.0011887997    
0.0121837790    0.0372394890    0.0011758536    
0.0124064400    0.0360748870    0.0011090781    
0.0126291010    0.0346787740    0.0010737955    
0.0128517620    0.0322123660    0.0010374904    
0.0130744230    0.0350614000    0.0010743714    
0.0132970840    0.0322091210    0.0010247086    
0.0135197450    0.0320850610    0.0010080873    
0.0137424060    0.0330457780    0.0010088257    
0.0139650670    0.0294408430    0.0009310012    
0.0141877280    0.0309905330    0.0009573008    
0.0144103890    0.0299310360    0.0009245728    
0.0146330500    0.0310466970    0.0009356679    
0.0148557110    0.0281304460    0.0008869061    
0.0150783720    0.0287674960    0.0008894801    
0.0153010330    0.0276412260    0.0008596012    
0.0155236940    0.0289248090    0.0008741047    
0.0157463550    0.0277526600    0.0008413761    
0.0159690160    0.0257957050    0.0008080911    
0.0161916770    0.0252055090    0.0007942930    
0.0164143380    0.0242674980    0.0007852778    
0.0166369990    0.0254673580    0.0007796536    
0.0168596600    0.0262868410    0.0007851192    
0.0170823210    0.0246352790    0.0007534746    
0.0173049820    0.0235411590    0.0007378260    
0.0175276430    0.0256933360    0.0007789437    
0.0177503040    0.0246243200    0.0007431271    
0.0179729650    0.0234568210    0.0007181033    
0.0181956260    0.0248713120    0.0007252622    
0.0184182870    0.0245955200    0.0007178306    
0.0186409480    0.0221285270    0.0006851889    
0.0188636090    0.0244279350    0.0007153811    
0.0190862700    0.0236206400    0.0007023609    
0.0193089310    0.0236719810    0.0007020279    
0.0195315920    0.0237600490    0.0006794134    
0.0197542530    0.0233617050    0.0006746755    
0.0199769140    0.0228161520    0.0006667514    
0.0201995750    0.0226546720    0.0006539840    
0.0204222360    0.0228148250    0.0006619252    
0.0206448970    0.0212232070    0.0006338817    
0.0208675580    0.0228643140    0.0006443848    
0.0210902190    0.0210305950    0.0006239681    
0.0213128800    0.0212923770    0.0006193204    
0.0215355410    0.0216322790    0.0006168076    
0.0217582020    0.0212277810    0.0006110137    
0.0219808630    0.0223297840    0.0006258501    
0.0222035240    0.0207901110    0.0005984160    
0.0224261850    0.0215722040    0.0006041425    
0.0226488460    0.0215494290    0.0005992893    
0.0228715070    0.0213264080    0.0005946990    
0.0230941680    0.0220560910    0.0006047874    
0.0233168290    0.0211994640    0.0005944035    
0.0235394900    0.0215980400    0.0005933438    
0.0237621510    0.0208984110    0.0005679419    
0.0239848120    0.0214263760    0.0005757366    
0.0242074730    0.0201104210    0.0005533116    
0.0244301340    0.0211023650    0.0005674401    
0.0246527950    0.0199718330    0.0005571426    
0.0248754560    0.0204356920    0.0005509093    
0.0250981170    0.0214518370    0.0005656985    
0.0253207780    0.0206813850    0.0005388629    
0.0255434390    0.0210678350    0.0005496788    
0.0257661000    0.0205692330    0.0005448923    
0.0259887610    0.0220277120    0.0005578871    
0.0262114220    0.0209349890    0.0005467714    
0.0264340830    0.0204525540    0.0005330815    
0.0266567440    0.0206534480    0.0005323832    
0.0268794050    0.0216013390    0.0005422408    
0.0271020660    0.0210082480    0.0005325802    
0.0273247270    0.0213169320    0.0005332567    
0.0275473880    0.0204748400    0.0005215779    
0.0277700490    0.0205748790    0.0005197599    
0.0279927100    0.0218430610    0.0005308661    
0.0282153710    0.0194634460    0.0005035521    
0.0284380320    0.0197535310    0.0005043500    
0.0286606930    0.0211003000    0.0005167980    
0.0288833540    0.0203927810    0.0005090248    
0.0291060150    0.0210389060    0.0005165353    
0.0293286760    0.0202100450    0.0004992037    
0.0295513370    0.0208097650    0.0005010403    
0.0297739980    0.0201114210    0.0004979844    
0.0299966590    0.0210266530    0.0005004928    
0.0302193200    0.0198290570    0.0004931137    
0.0304419810    0.0208128970    0.0005061284    
0.0306646420    0.0206077170    0.0004894130    
0.0308873030    0.0195082450    0.0004741216    
0.0311099640    0.0210459530    0.0004937318    
0.0313326250    0.0205482580    0.0004824545    
0.0315552860    0.0204334170    0.0004873394    
0.0317779470    0.0202943760    0.0004861016    
0.0320006080    0.0196829070    0.0004678457    
0.0322232690    0.0201732380    0.0004756199    
0.0324459300    0.0198621050    0.0004684146    
0.0326685910    0.0201049630    0.0004704927    
0.0328912520    0.0200166730    0.0004710131    
0.0331139130    0.0193589300    0.0004571842    
0.0333365740    0.0201694860    0.0004681724    
0.0335592350    0.0199327070    0.0004609412    
0.0337818960    0.0204011640    0.0004659549    
0.0340045570    0.0207607490    0.0004692968    
0.0342272170    0.0198605460    0.0004571990    
0.0344498780    0.0199969640    0.0004605835    
0.0346725390    0.0202952790    0.0004554130    
0.0348952000    0.0207892500    0.0004588221    
0.0351178610    0.0191916330    0.0004428576    
0.0353405220    0.0206677610    0.0004574798    
0.0355631830    0.0201103710    0.0004495692    
0.0357858440    0.0201103830    0.0004495695    
0.0360085050    0.0204646450    0.0004548822    
0.0362311660    0.0206325580    0.0004513152    
0.0364538270    0.0194478400    0.0004346497    
0.0366764880    0.0207388420    0.0004485188    
0.0368991490    0.0193107500    0.0004306189    
0.0371218100    0.0194486560    0.0004309174    
0.0373444710    0.0201184710    0.0004430478    
0.0375671320    0.0199918160    0.0004410079    
0.0377897930    0.0201609740    0.0004314050    
0.0380124540    0.0200969510    0.0004334220    
0.0382351150    0.0197230670    0.0004293715    
0.0384577760    0.0205819800    0.0004343892    
0.0386804370    0.0203667390    0.0004354094    
0.0389030980    0.0196652150    0.0004246049    
0.0391257590    0.0201135890    0.0004265031    
0.0393484200    0.0197179210    0.0004208660    
0.0395710810    0.0201313760    0.0004258285    
0.0397937420    0.0196179720    0.0004203637    
0.0400164030    0.0196961880    0.0004229143    
0.0402390640    0.0196436880    0.0004167264    
0.0404617250    0.0199280550    0.0004172557    
0.0406843860    0.0200332450    0.0004143135    
0.0409070470    0.0192105890    0.0004099440    
0.0411297080    0.0200075130    0.0004143133    
0.0413523690    0.0196019860    0.0004111501    
0.0415750300    0.0192435110    0.0004108336    
0.0417976910    0.0199755470    0.0004077491    
0.0420203520    0.0199917690    0.0004094474    
0.0422430130    0.0203208670    0.0004143666    
0.0424656740    0.0196307240    0.0004019686    
0.0426883350    0.0200920800    0.0004086830    
0.0429109960    0.0200254360    0.0004092794    
0.0431336570    0.0191805500    0.0003949091    
0.0433563180    0.0198437690    0.0004051437    
0.0435789790    0.0197781070    0.0003981183    
0.0438016400    0.0199290730    0.0004018089    
0.0440243010    0.0193838420    0.0003922537    
0.0442469620    0.0196088030    0.0003968873    
0.0444696230    0.0202659800    0.0004020363    
0.0446922840    0.0199713720    0.0003979182    
0.0449149450    0.0193483570    0.0003864265    
0.0451376060    0.0200981450    0.0003987068    
0.0453602670    0.0205850790    0.0003992777    
0.0455829280    0.0198266460    0.0003914001    
0.0458055890    0.0200585530    0.0003959782    
0.0460282500    0.0199439370    0.0003900840    
0.0462509110    0.0194328950    0.0003826589    
0.0464735720    0.0195151920    0.0003836848    
0.0466962330    0.0200431900    0.0003906082    
0.0469188940    0.0197631890    0.0003867707    
0.0471415550    0.0201120120    0.0003921730    
0.0473642160    0.0201400660    0.0003869514    
0.0475868770    0.0194472820    0.0003783489    
0.0478095380    0.0193431220    0.0003756831    
0.0480321990    0.0201241890    0.0003840326    
0.0482548600    0.0195787070    0.0003771417    
0.0484775210    0.0194507430    0.0003796396    
0.0487001820    0.0195545370    0.0003750791    
0.0489228430    0.0190951370    0.0003704478    
0.0491455040    0.0198241840    0.0003748427    
0.0493681650    0.0193804770    0.0003738091    
0.0495908260    0.0197443700    0.0003709539    
0.0498134870    0.0194188980    0.0003713858    
0.0500361480    0.0197613860    0.0003736553    
0.0502588090    0.0189885420    0.0003607877    
0.0504814700    0.0199385280    0.0003745357    
0.0507041310    0.0198931230    0.0003696610    
0.0509267920    0.0198641270    0.0003709197    
0.0511494530    0.0202971770    0.0003724409    
0.0513721140    0.0191192030    0.0003646552    
0.0515947750    0.0201933940    0.0003697903    
0.0518174360    0.0193219490    0.0003595442    
0.0520400970    0.0200644200    0.0003638467    
0.0522627580    0.0196888710    0.0003634886    
0.0524854190    0.0193760660    0.0003635214    
0.0527080800    0.0196841920    0.0003692373    
0.0529307410    0.0202959970    0.0003766924    
0.0531534020    0.0199541490    0.0003721468    
0.0533760630    0.0195764180    0.0003697615    
0.0535987240    0.0199614080    0.0003716364    
0.0538213850    0.0193929080    0.0003705501    
0.0540440460    0.0195324000    0.0003701204    
0.0542667070    0.0197883270    0.0003751047    
0.0544893680    0.0196884140    0.0003743559    
0.0547120290    0.0194406410    0.0003694444    
0.0549346900    0.0194048760    0.0003692986    
0.0551573510    0.0194327510    0.0003739142    
0.0553800120    0.0198039610    0.0003742597    
0.0556026730    0.0194693650    0.0003787786    
0.0558253340    0.0196469230    0.0003836880    
0.0560479950    0.0194521210    0.0003817813    
0.0562706560    0.0193870230    0.0003848268    
0.0564933170    0.0196941010    0.0003912306    
0.0567159780    0.0190274260    0.0003799411    
0.0569386390    0.0189481050    0.0003850955    
0.0571613000    0.0194222460    0.0003814889    
0.0573839610    0.0196979680    0.0003809973    
0.0576066220    0.0191106300    0.0003763131    
0.0578292830    0.0188886730    0.0003728835    
0.0580519440    0.0192209000    0.0003776070    
0.0582746050    0.0201914810    0.0003853168    
0.0584972660    0.0198839660    0.0003809077    
0.0587199270    0.0194565720    0.0003735437    
0.0589425880    0.0198888130    0.0003754612    
0.0591652490    0.0197865070    0.0003766980    
0.0593879100    0.0191262990    0.0003676096    
0.0596105710    0.0196218140    0.0003719483    
0.0598332320    0.0198726300    0.0003775175    
0.0600558930    0.0193438940    0.0003700868    
0.0602785540    0.0197976050    0.0003740060    
0.0605012150    0.0191373330    0.0003669416    
0.0607238760    0.0196845250    0.0003694386    
0.0609465370    0.0197984730    0.0003734232    
0.0611691980    0.0198400830    0.0003744079    
0.0613918590    0.0192018810    0.0003643155    
0.0616145200    0.0191823980    0.0003667957    
0.0618371810    0.0198045590    0.0003690362    
0.0620598420    0.0202588610    0.0003736297    
0.0622825030    0.0189440710    0.0003668274    
0.0625051640    0.0198105060    0.0003698540    
0.0627278250    0.0202378730    0.0003730523    
0.0629504860    0.0195313020    0.0003635028    
0.0631731470    0.0195530240    0.0003682047    
0.0633958080    0.0198067910    0.0003727192    
0.0636184690    0.0197927180    0.0003777759    
0.0638411300    0.0198233110    0.0003766486    
0.0640637910    0.0197184970    0.0003782936    
0.0642864520    0.0193658860    0.0003740847    
0.0645091130    0.0198244340    0.0003818043    
0.0647317740    0.0194996960    0.0003790818    
0.0649544350    0.0186920730    0.0003707402    
0.0651770960    0.0192814870    0.0003744861    
0.0653997570    0.0200090280    0.0003806585    
0.0656224180    0.0195070040    0.0003766701    
0.0658450790    0.0199324080    0.0003752824    
0.0660677400    0.0197105010    0.0003747758    
0.0662904010    0.0190893480    0.0003732263    
0.0665130620    0.0191049450    0.0003717591    
0.0667357230    0.0197079180    0.0003842934    
0.0669583840    0.0199707650    0.0003855532    
0.0671810450    0.0195594480    0.0003794555    
0.0674037060    0.0193903590    0.0003842124    
0.0676263670    0.0193475320    0.0003809780    
0.0678490280    0.0193265130    0.0003784423    
0.0680716890    0.0202314070    0.0003880622    
0.0682943500    0.0198634730    0.0003803059    
0.0685170110    0.0192966410    0.0003710206    
0.0687396720    0.0192651990    0.0003697333    
0.0689623330    0.0199118430    0.0003746960    
0.0691849940    0.0195882030    0.0003742134    
0.0694076550    0.0193602000    0.0003718305    
0.0696303160    0.0197928720    0.0003729860    
0.0698529770    0.0199059740    0.0003732662    
0.0700756380    0.0197596930    0.0003671182    
0.0702982990    0.0196626840    0.0003702041    
0.0705209600    0.0195309270    0.0003662979    
0.0707436210    0.0198760820    0.0003678234    
0.0709662820    0.0198858020    0.0003722993    
0.0711889430    0.0188835160    0.0003583397    
0.0714116040    0.0191109050    0.0003612267    
0.0716342650    0.0191998360    0.0003605961    
0.0718569260    0.0194351330    0.0003613377    
0.0720795870    0.0198500400    0.0003666515    
0.0723022480    0.0194214800    0.0003632246    
0.0725249090    0.0194033900    0.0003587075    
0.0727475700    0.0201747030    0.0003688917    
0.0729702310    0.0194758130    0.0003595552    
0.0731928920    0.0190898180    0.0003573970    
0.0734155530    0.0199134150    0.0003642969    
0.0736382140    0.0194612670    0.0003578261    
0.0738608750    0.0194336240    0.0003598819    
0.0740835360    0.0200070270    0.0003642461    
0.0743061970    0.0191768190    0.0003515872    
0.0745288580    0.0197508560    0.0003604795    
0.0747515190    0.0195052910    0.0003589391    
0.0749741800    0.0188476170    0.0003495698    
0.0751968410    0.0196847780    0.0003600539    
0.0754195020    0.0201837830    0.0003624530    
0.0756421630    0.0195798250    0.0003540708    
0.0758648240    0.0195711380    0.0003548432    
0.0760874850    0.0189481640    0.0003489823    
0.0763101460    0.0196559770    0.0003550997    
0.0765328070    0.0202894370    0.0003644678    
0.0767554680    0.0198793880    0.0003583181    
0.0769781290    0.0193706520    0.0003516709    
0.0772007900    0.0198465010    0.0003531093    
0.0774234510    0.0189799920    0.0003472789    
0.0776461120    0.0194133220    0.0003508877    
0.0778687730    0.0195372810    0.0003508433    
0.0780914340    0.0193381790    0.0003515452    
0.0783140950    0.0196702140    0.0003489250    
0.0785367560    0.0196961120    0.0003547841    
0.0787594170    0.0197527380    0.0003521105    
0.0789820780    0.0198117580    0.0003508292    
0.0792047390    0.0195850840    0.0003499569    
0.0794274000    0.0196252730    0.0003518001    
0.0796500610    0.0199119040    0.0003509012    
0.0798727220    0.0193258160    0.0003453793    
0.0800953830    0.0198391470    0.0003491315    
0.0803180440    0.0198174790    0.0003513715    
0.0805407050    0.0199360970    0.0003520938    
0.0807633660    0.0194956600    0.0003478596    
0.0809860270    0.0189453090    0.0003416482    
0.0812086880    0.0193701110    0.0003424719    
0.0814313490    0.0195838590    0.0003459268    
0.0816540100    0.0193913850    0.0003434390    
0.0818766710    0.0197366770    0.0003472744    
0.0820993320    0.0190316350    0.0003403938    
0.0823219930    0.0201956630    0.0003520952    
0.0825446540    0.0192862040    0.0003415762    
0.0827673150    0.0190816520    0.0003374774    
0.0829899760    0.0190078270    0.0003362243    
0.0832126370    0.0192504920    0.0003398792    
0.0834352980    0.0196902130    0.0003429705    
0.0836579590    0.0197870220    0.0003430473    
0.0838806200    0.0195220480    0.0003418089    
0.0841032810    0.0195936870    0.0003403097    
0.0843259420    0.0194027010    0.0003376043    
0.0845486030    0.0199784090    0.0003425765    
0.0847712640    0.0195209390    0.0003365679    
0.0849939250    0.0193735300    0.0003358786    
0.0852165860    0.0194009660    0.0003365567    
0.0854392470    0.0198601330    0.0003372914    
0.0856619080    0.0192527300    0.0003345393    
0.0858845690    0.0196953040    0.0003353151    
0.0861072300    0.0195398670    0.0003362950    
0.0863298910    0.0194993970    0.0003377057    
0.0865525520    0.0193135470    0.0003331903    
0.0867752130    0.0193877090    0.0003311358    
0.0869978740    0.0200835340    0.0003378845    
0.0872205350    0.0193804000    0.0003314948    
0.0874431960    0.0194484720    0.0003320767    
0.0876658570    0.0198209410    0.0003365287    
0.0878885180    0.0191207000    0.0003310975    
0.0881111790    0.0191631590    0.0003310396    
0.0883338400    0.0194722950    0.0003288132    
0.0885565010    0.0194164800    0.0003327942    
0.0887791620    0.0200053480    0.0003334225    
0.0890018230    0.0198457750    0.0003353112    
0.0892244840    0.0196233920    0.0003339940    
0.0894471450    0.0189957530    0.0003272213    
0.0896698060    0.0197366150    0.0003322832    
0.0898924670    0.0195981730    0.0003326506    
0.0901151280    0.0197516800    0.0003303437    
0.0903377890    0.0199713180    0.0003349554    
0.0905604500    0.0200834490    0.0003343529    
0.0907831110    0.0195903980    0.0003294016    
0.0910057720    0.0200053750    0.0003343997    
0.0912284330    0.0192899800    0.0003236647    
0.0914510940    0.0192506300    0.0003269400    
0.0916737550    0.0193320030    0.0003268172    
0.0918964160    0.0196101280    0.0003305286    
0.0921190770    0.0194650010    0.0003263258    
0.0923417380    0.0193386190    0.0003253982    
0.0925643990    0.0198107280    0.0003285402    
0.0927870600    0.0191825130    0.0003246148    
0.0930097210    0.0192189610    0.0003221558    
0.0932323820    0.0200340910    0.0003313344    
