# Diamond Light Source Ltd.
# Data extracted from: /dls/b21/data/2018/cm19678-3/processed/b21-386631_00701.dat
q(1/A)          Column          Error           
0.0035000000    2.0617922000    0.0244758670    
0.0037226610    1.8475186000    0.0226813220    
0.0039453220    1.5988049000    0.0191945670    
0.0041679830    1.2950667000    0.0141870280    
0.0043906440    0.9704296100    0.0117466140    
0.0046133050    0.7782200700    0.0100982420    
0.0048359660    0.5931289700    0.0083390542    
0.0050586270    0.4664377400    0.0072685956    
0.0052812880    0.4155495400    0.0064866300    
0.0055039490    0.3798219000    0.0058966898    
0.0057266100    0.3198327000    0.0052347249    
0.0059492710    0.2621720200    0.0047394248    
0.0061719320    0.2204534000    0.0041879216    
0.0063945930    0.1982025900    0.0040190883    
0.0066172539    0.1804361000    0.0036008089    
0.0068399149    0.1635202300    0.0033738828    
0.0070625759    0.1489996100    0.0031875677    
0.0072852369    0.1238637700    0.0028628024    
0.0075078979    0.1186528500    0.0027881680    
0.0077305589    0.0982248850    0.0024885009    
0.0079532199    0.0988322170    0.0024615917    
0.0081758809    0.0935595440    0.0024173091    
0.0083985419    0.0814435410    0.0021035645    
0.0086212029    0.0754670420    0.0020249122    
0.0088438639    0.0684856180    0.0019134839    
0.0090665249    0.0615917430    0.0017526250    
0.0092891859    0.0670999580    0.0019093642    
0.0095118469    0.0622055990    0.0017679466    
0.0097345079    0.0540788040    0.0016009739    
0.0099571689    0.0511895940    0.0015255010    
0.0101798300    0.0502803740    0.0015118926    
0.0104024910    0.0484957130    0.0014797938    
0.0106251520    0.0443704000    0.0014202619    
0.0108478130    0.0451846090    0.0013957572    
0.0110704740    0.0421683260    0.0012837358    
0.0112931350    0.0413943020    0.0012756349    
0.0115157960    0.0421951550    0.0012804059    
0.0117384570    0.0402116250    0.0012391887    
0.0119611180    0.0380614900    0.0012090631    
0.0121837790    0.0371269240    0.0011740564    
0.0124064400    0.0355282010    0.0011006250    
0.0126291010    0.0356086150    0.0010880788    
0.0128517620    0.0335144970    0.0010582353    
0.0130744230    0.0331179780    0.0010441546    
0.0132970840    0.0335772660    0.0010462289    
0.0135197450    0.0319573520    0.0010060630    
0.0137424060    0.0321824230    0.0009955443    
0.0139650670    0.0316184600    0.0009648028    
0.0141877280    0.0300137320    0.0009420783    
0.0144103890    0.0299586430    0.0009249844    
0.0146330500    0.0288462860    0.0009018869    
0.0148557110    0.0281575130    0.0008873186    
0.0150783720    0.0283540590    0.0008830512    
0.0153010330    0.0271324490    0.0008516399    
0.0155236940    0.0277352360    0.0008559280    
0.0157463550    0.0260172920    0.0008146330    
0.0159690160    0.0252886060    0.0008000961    
0.0161916770    0.0285586600    0.0008454638    
0.0164143380    0.0259692090    0.0008123315    
0.0166369990    0.0252756090    0.0007767006    
0.0168596600    0.0247618390    0.0007619929    
0.0170823210    0.0251645170    0.0007615129    
0.0173049820    0.0262228150    0.0007787047    
0.0175276430    0.0244881820    0.0007604439    
0.0177503040    0.0246235370    0.0007431034    
0.0179729650    0.0245552350    0.0007347126    
0.0181956260    0.0256741600    0.0007368633    
0.0184182870    0.0234425140    0.0007007920    
0.0186409480    0.0236129110    0.0007077860    
0.0188636090    0.0240500660    0.0007098153    
0.0190862700    0.0236407730    0.0007026490    
0.0193089310    0.0226927340    0.0006873431    
0.0195315920    0.0231182010    0.0006701632    
0.0197542530    0.0233025110    0.0006738095    
0.0199769140    0.0227764590    0.0006661606    
0.0201995750    0.0236922570    0.0006687820    
0.0204222360    0.0231405640    0.0006666232    
0.0206448970    0.0224530980    0.0006519795    
0.0208675580    0.0222279830    0.0006353446    
0.0210902190    0.0213076100    0.0006280541    
0.0213128800    0.0217780590    0.0006263340    
0.0215355410    0.0226164440    0.0006306724    
0.0217582020    0.0216140120    0.0006165374    
0.0219808630    0.0214169670    0.0006129148    
0.0222035240    0.0215128600    0.0006087191    
0.0224261850    0.0226881610    0.0006195622    
0.0226488460    0.0214987460    0.0005985746    
0.0228715070    0.0229508630    0.0006169230    
0.0230941680    0.0218729770    0.0006022621    
0.0233168290    0.0217820890    0.0006025065    
0.0235394900    0.0204400610    0.0005772094    
0.0237621510    0.0211909940    0.0005718947    
0.0239848120    0.0214411640    0.0005759261    
0.0242074730    0.0222410230    0.0005818749    
0.0244301340    0.0209948880    0.0005659843    
0.0246527950    0.0216807940    0.0005804811    
0.0248754560    0.0211924460    0.0005610081    
0.0250981170    0.0207351220    0.0005561593    
0.0253207780    0.0208211260    0.0005406717    
0.0255434390    0.0216981760    0.0005578324    
0.0257661000    0.0208428260    0.0005484954    
0.0259887610    0.0207695360    0.0005417116    
0.0262114220    0.0211913610    0.0005501003    
0.0264340830    0.0205074800    0.0005337884    
0.0266567440    0.0217917820    0.0005468491    
0.0268794050    0.0202803850    0.0005253915    
0.0271020660    0.0193334540    0.0005109024    
0.0273247270    0.0209160740    0.0005282106    
0.0275473880    0.0204741890    0.0005215613    
0.0277700490    0.0201278150    0.0005140739    
0.0279927100    0.0204102910    0.0005131519    
0.0282153710    0.0200751120    0.0005113952    
0.0284380320    0.0210663290    0.0005208315    
0.0286606930    0.0199604770    0.0005026377    
0.0288833540    0.0204048380    0.0005091672    
0.0291060150    0.0204802610    0.0005096232    
0.0293286760    0.0204190180    0.0005017700    
0.0295513370    0.0201335610    0.0004928247    
0.0297739980    0.0200121380    0.0004967458    
0.0299966590    0.0211451120    0.0005018926    
0.0302193200    0.0206009620    0.0005026120    
0.0304419810    0.0200245460    0.0004964424    
0.0306646420    0.0207814030    0.0004914633    
0.0308873030    0.0204409490    0.0004853156    
0.0311099640    0.0203966670    0.0004860484    
0.0313326250    0.0200831870    0.0004769559    
0.0315552860    0.0198051390    0.0004797811    
0.0317779470    0.0196417230    0.0004782137    
0.0320006080    0.0211834720    0.0004853440    
0.0322232690    0.0193203910    0.0004654502    
0.0324459300    0.0211097190    0.0004828943    
0.0326685910    0.0199611940    0.0004688000    
0.0328912520    0.0208472670    0.0004806785    
0.0331139130    0.0200924840    0.0004657581    
0.0333365740    0.0203101130    0.0004697942    
0.0335592350    0.0210725720    0.0004739300    
0.0337818960    0.0205069340    0.0004671538    
0.0340045570    0.0202721160    0.0004637338    
0.0342272170    0.0196494220    0.0004547551    
0.0344498780    0.0198478150    0.0004588553    
0.0346725390    0.0208668890    0.0004617744    
0.0348952000    0.0198873790    0.0004487524    
0.0351178610    0.0210610740    0.0004639183    
0.0353405220    0.0202924430    0.0004532997    
0.0355631830    0.0197680360    0.0004457192    
0.0357858440    0.0201298430    0.0004497798    
0.0360085050    0.0203628880    0.0004537427    
0.0362311660    0.0201580590    0.0004460883    
0.0364538270    0.0199134880    0.0004398154    
0.0366764880    0.0191280150    0.0004307412    
0.0368991490    0.0186859890    0.0004235890    
0.0371218100    0.0199826910    0.0004367866    
0.0373444710    0.0195031740    0.0004362133    
0.0375671320    0.0192810310    0.0004330903    
0.0377897930    0.0199849460    0.0004295107    
0.0380124540    0.0201337000    0.0004338112    
0.0382351150    0.0201243660    0.0004337108    
0.0384577760    0.0199579270    0.0004277462    
0.0386804370    0.0197052180    0.0004282731    
0.0389030980    0.0201138040    0.0004294137    
0.0391257590    0.0201762550    0.0004271602    
0.0393484200    0.0195376380    0.0004189309    
0.0395710810    0.0196443560    0.0004206394    
0.0397937420    0.0194822430    0.0004189003    
0.0400164030    0.0200860230    0.0004270723    
0.0402390640    0.0201292770    0.0004218389    
0.0404617250    0.0197876410    0.0004157765    
0.0406843860    0.0201697000    0.0004157155    
0.0409070470    0.0193586890    0.0004115146    
0.0411297080    0.0195950710    0.0004100141    
0.0413523690    0.0201101530    0.0004164387    
0.0415750300    0.0198217640    0.0004169540    
0.0417976910    0.0195421210    0.0004032948    
0.0420203520    0.0202259290    0.0004118317    
0.0422430130    0.0205652460    0.0004168441    
0.0424656740    0.0204943170    0.0004107086    
0.0426883350    0.0197256880    0.0004049331    
0.0429109960    0.0196400280    0.0004053154    
0.0431336570    0.0206922210    0.0004101694    
0.0433563180    0.0196115380    0.0004027596    
0.0435789790    0.0202983590    0.0004033140    
0.0438016400    0.0192560570    0.0003949597    
0.0440243010    0.0189466660    0.0003877989    
0.0442469620    0.0195439160    0.0003962238    
0.0444696230    0.0197309880    0.0003966879    
0.0446922840    0.0201689380    0.0003998752    
0.0449149450    0.0193323070    0.0003862601    
0.0451376060    0.0199946850    0.0003976729    
0.0453602670    0.0200423210    0.0003939725    
0.0455829280    0.0196560340    0.0003897062    
0.0458055890    0.0204487550    0.0003998048    
0.0460282500    0.0199280440    0.0003899223    
0.0462509110    0.0199823180    0.0003880244    
0.0464735720    0.0191977520    0.0003805454    
0.0466962330    0.0196543370    0.0003867945    
0.0469188940    0.0192857160    0.0003820639    
0.0471415550    0.0198666710    0.0003897674    
0.0473642160    0.0198346200    0.0003839998    
0.0475868770    0.0193877780    0.0003777636    
0.0478095380    0.0195540990    0.0003777204    
0.0480321990    0.0198304160    0.0003812132    
0.0482548600    0.0193892040    0.0003753062    
0.0484775210    0.0194649440    0.0003797722    
0.0487001820    0.0197913240    0.0003773371    
0.0489228430    0.0191376490    0.0003708540    
0.0491455040    0.0194620950    0.0003713978    
0.0493681650    0.0195961540    0.0003758773    
0.0495908260    0.0194022510    0.0003677202    
0.0498134870    0.0194608960    0.0003717813    
0.0500361480    0.0189624150    0.0003660180    
0.0502588090    0.0197968110    0.0003683805    
0.0504814700    0.0194383920    0.0003698025    
0.0507041310    0.0201809860    0.0003723201    
0.0509267920    0.0198565690    0.0003708432    
0.0511494530    0.0198523310    0.0003683311    
0.0513721140    0.0198001600    0.0003710863    
0.0515947750    0.0192311920    0.0003608669    
0.0518174360    0.0192544320    0.0003589098    
0.0520400970    0.0203013010    0.0003659823    
0.0522627580    0.0194802230    0.0003615517    
0.0524854190    0.0197982860    0.0003674549    
0.0527080800    0.0200160120    0.0003723305    
0.0529307410    0.0199597750    0.0003735533    
0.0531534020    0.0199743360    0.0003723291    
0.0533760630    0.0198900690    0.0003727059    
0.0535987240    0.0197878030    0.0003700109    
0.0538213850    0.0193498110    0.0003701322    
0.0540440460    0.0197491880    0.0003721628    
0.0542667070    0.0194250770    0.0003716400    
0.0544893680    0.0200294410    0.0003775781    
0.0547120290    0.0195944750    0.0003708973    
0.0549346900    0.0195940150    0.0003710881    
0.0551573510    0.0193601890    0.0003732095    
0.0553800120    0.0196901690    0.0003731770    
0.0556026730    0.0195645420    0.0003796972    
0.0558253340    0.0203506270    0.0003904927    
0.0560479950    0.0197437250    0.0003846261    
0.0562706560    0.0195773680    0.0003867052    
0.0564933170    0.0190251080    0.0003845222    
0.0567159780    0.0193075200    0.0003827213    
0.0569386390    0.0207162500    0.0004026560    
0.0571613000    0.0203732280    0.0003907106    
0.0573839610    0.0201468500    0.0003853079    
0.0576066220    0.0193990070    0.0003791357    
0.0578292830    0.0194254180    0.0003781383    
0.0580519440    0.0190645080    0.0003760617    
0.0582746050    0.0199334910    0.0003828411    
0.0584972660    0.0197374010    0.0003794952    
0.0587199270    0.0194416100    0.0003733941    
0.0589425880    0.0199307070    0.0003758504    
0.0591652490    0.0199651630    0.0003783888    
0.0593879100    0.0193305830    0.0003695617    
0.0596105710    0.0194590310    0.0003703963    
0.0598332320    0.0199508840    0.0003782540    
0.0600558930    0.0201716690    0.0003779163    
0.0602785540    0.0200442600    0.0003763227    
0.0605012150    0.0193688980    0.0003691491    
0.0607238760    0.0198087000    0.0003705961    
0.0609465370    0.0195654240    0.0003712130    
0.0611691980    0.0206590310    0.0003820509    
0.0613918590    0.0194017150    0.0003662005    
0.0616145200    0.0191046400    0.0003660457    
0.0618371810    0.0193982240    0.0003652249    
0.0620598420    0.0199481420    0.0003707474    
0.0622825030    0.0193980540    0.0003711909    
0.0625051640    0.0195198750    0.0003671251    
0.0627278250    0.0198659040    0.0003696022    
0.0629504860    0.0198012820    0.0003660007    
0.0631731470    0.0202526830    0.0003747285    
0.0633958080    0.0190206480    0.0003652418    
0.0636184690    0.0189989630    0.0003701175    
0.0638411300    0.0193861530    0.0003724664    
0.0640637910    0.0198557570    0.0003796019    
0.0642864520    0.0195459160    0.0003758135    
0.0645091130    0.0192208540    0.0003759412    
0.0647317740    0.0195653990    0.0003797139    
0.0649544350    0.0199709110    0.0003832066    
0.0651770960    0.0193390580    0.0003750387    
0.0653997570    0.0192914780    0.0003737648    
0.0656224180    0.0196518450    0.0003780599    
0.0658450790    0.0195714330    0.0003718628    
0.0660677400    0.0196884970    0.0003745606    
0.0662904010    0.0197746510    0.0003798605    
0.0665130620    0.0195383620    0.0003759463    
0.0667357230    0.0201419010    0.0003884953    
0.0669583840    0.0191960360    0.0003779949    
0.0671810450    0.0197281350    0.0003810822    
0.0674037060    0.0198693460    0.0003889227    
0.0676263670    0.0193994280    0.0003814825    
0.0678490280    0.0199928200    0.0003849046    
0.0680716890    0.0190398430    0.0003764550    
0.0682943500    0.0196662510    0.0003784071    
0.0685170110    0.0193388270    0.0003714201    
0.0687396720    0.0195484110    0.0003724351    
0.0689623330    0.0200663250    0.0003761408    
0.0691849940    0.0193302240    0.0003717351    
0.0694076550    0.0191239270    0.0003695488    
0.0696303160    0.0198133280    0.0003731727    
0.0698529770    0.0197583610    0.0003718737    
0.0700756380    0.0195203460    0.0003648822    
0.0702982990    0.0199269140    0.0003726773    
0.0705209600    0.0192761310    0.0003638950    
0.0707436210    0.0192832700    0.0003622909    
0.0709662820    0.0189442310    0.0003633727    
0.0711889430    0.0200048750    0.0003688200    
0.0714116040    0.0199978780    0.0003695083    
0.0716342650    0.0201744230    0.0003696289    
0.0718569260    0.0197099430    0.0003638776    
0.0720795870    0.0195785190    0.0003641294    
0.0723022480    0.0198624000    0.0003673187    
0.0725249090    0.0193828790    0.0003585122    
0.0727475700    0.0199514790    0.0003668394    
0.0729702310    0.0194021780    0.0003588691    
0.0731928920    0.0201664500    0.0003673312    
0.0734155530    0.0195662400    0.0003611015    
0.0736382140    0.0193619630    0.0003569063    
0.0738608750    0.0198062050    0.0003633096    
0.0740835360    0.0202981640    0.0003668809    
0.0743061970    0.0197498840    0.0003567962    
0.0745288580    0.0194607500    0.0003578166    
0.0747515190    0.0198349230    0.0003619536    
0.0749741800    0.0195537000    0.0003560519    
0.0751968410    0.0193680470    0.0003571398    
0.0754195020    0.0194346530    0.0003556574    
0.0756421630    0.0194063310    0.0003524930    
0.0758648240    0.0198986210    0.0003577940    
0.0760874850    0.0195067330    0.0003540831    
0.0763101460    0.0188278250    0.0003475330    
0.0765328070    0.0202298700    0.0003639266    
0.0767554680    0.0189487560    0.0003498248    
0.0769781290    0.0194977220    0.0003528169    
0.0772007900    0.0198395870    0.0003530422    
0.0774234510    0.0193097960    0.0003502776    
0.0776461120    0.0198566410    0.0003548659    
0.0778687730    0.0192972550    0.0003486760    
0.0780914340    0.0195548400    0.0003535034    
0.0783140950    0.0199171610    0.0003511029    
0.0785367560    0.0195804570    0.0003537353    
0.0787594170    0.0192499900    0.0003475951    
0.0789820780    0.0190532230    0.0003440421    
0.0792047390    0.0192968220    0.0003473664    
0.0794274000    0.0195300570    0.0003509400    
0.0796500610    0.0197875980    0.0003497986    
0.0798727220    0.0192881680    0.0003450372    
0.0800953830    0.0198876670    0.0003495526    
0.0803180440    0.0195489700    0.0003489775    
0.0805407050    0.0192141540    0.0003456544    
0.0807633660    0.0195074520    0.0003479592    
0.0809860270    0.0202508130    0.0003532178    
0.0812086880    0.0195874700    0.0003443826    
0.0814313490    0.0191188610    0.0003417899    
0.0816540100    0.0196462300    0.0003456829    
0.0818766710    0.0196749470    0.0003467254    
0.0820993320    0.0200355470    0.0003492507    
0.0823219930    0.0200968080    0.0003512269    
0.0825446540    0.0200115230    0.0003479344    
0.0827673150    0.0198450040    0.0003441560    
0.0829899760    0.0199647200    0.0003445780    
0.0832126370    0.0191958740    0.0003393913    
0.0834352980    0.0194028450    0.0003404532    
0.0836579590    0.0194117180    0.0003397730    
0.0838806200    0.0190965270    0.0003380578    
0.0841032810    0.0190965870    0.0003359598    
0.0843259420    0.0187030680    0.0003314563    
0.0845486030    0.0193316240    0.0003369802    
0.0847712640    0.0202340510    0.0003426548    
0.0849939250    0.0201590100    0.0003426144    
0.0852165860    0.0195813330    0.0003381121    
0.0854392470    0.0191148410    0.0003308968    
0.0856619080    0.0189847270    0.0003321974    
0.0858845690    0.0197403460    0.0003356930    
0.0861072300    0.0198865070    0.0003392594    
0.0863298910    0.0191654140    0.0003347958    
0.0865525520    0.0192612010    0.0003327332    
0.0867752130    0.0196359340    0.0003332435    
0.0869978740    0.0198327830    0.0003357633    
0.0872205350    0.0193287550    0.0003310475    
0.0874431960    0.0197653690    0.0003347659    
0.0876658570    0.0196260500    0.0003348648    
0.0878885180    0.0188334340    0.0003285957    
0.0881111790    0.0193055110    0.0003322616    
0.0883338400    0.0197159740    0.0003308590    
0.0885565010    0.0195698660    0.0003341008    
0.0887791620    0.0194712530    0.0003289363    
0.0890018230    0.0196808530    0.0003339097    
0.0892244840    0.0198387780    0.0003358166    
0.0894471450    0.0194968010    0.0003315035    
0.0896698060    0.0196912340    0.0003318957    
0.0898924670    0.0196991790    0.0003335014    
0.0901151280    0.0191046540    0.0003248828    
0.0903377890    0.0193134200    0.0003293868    
0.0905604500    0.0196486470    0.0003307085    
0.0907831110    0.0192740790    0.0003267262    
0.0910057720    0.0199097170    0.0003335939    
0.0912284330    0.0199518960    0.0003291657    
0.0914510940    0.0196275780    0.0003301201    
0.0916737550    0.0196021050    0.0003290871    
0.0918964160    0.0190078480    0.0003254082    
0.0921190770    0.0200552070    0.0003312310    
0.0923417380    0.0194639300    0.0003264455    
0.0925643990    0.0189438150    0.0003212662    
0.0927870600    0.0196598020    0.0003286233    
0.0930097210    0.0196287450    0.0003255670    
0.0932323820    0.0194361770    0.0003263475    
