# Diamond Light Source Ltd.
# Data extracted from: /dls/b21/data/2018/cm19678-3/processed/b21-386631_00695.dat
q(1/A)          Column          Error           
0.0035000000    2.1101723000    0.0247622320    
0.0037226610    1.8551666000    0.0227290140    
0.0039453220    1.6113615000    0.0192704680    
0.0041679830    1.3069696000    0.0142525740    
0.0043906440    0.9514430400    0.0116315420    
0.0046133050    0.7708049600    0.0100503690    
0.0048359660    0.5978604900    0.0083725422    
0.0050586270    0.4659039900    0.0072646898    
0.0052812880    0.4087940600    0.0064339133    
0.0055039490    0.3867148600    0.0059501636    
0.0057266100    0.3148854500    0.0051942629    
0.0059492710    0.2628758300    0.0047459480    
0.0061719320    0.2069431300    0.0040577084    
0.0063945930    0.1980534500    0.0040177164    
0.0066172539    0.1801612700    0.0035981914    
0.0068399149    0.1629747300    0.0033683683    
0.0070625759    0.1450546200    0.0031451968    
0.0072852369    0.1246003200    0.0028714020    
0.0075078979    0.1153195000    0.0027488208    
0.0077305589    0.0997449540    0.0025077700    
0.0079532199    0.0982873000    0.0024548821    
0.0081758809    0.0885692350    0.0023520404    
0.0083985419    0.0796561600    0.0020804265    
0.0086212029    0.0780261010    0.0020590301    
0.0088438639    0.0694528040    0.0019270155    
0.0090665249    0.0664339600    0.0018202793    
0.0092891859    0.0596606540    0.0018004739    
0.0095118469    0.0592954290    0.0017261567    
0.0097345079    0.0596283040    0.0016811719    
0.0099571689    0.0541938400    0.0015696824    
0.0101798300    0.0501020320    0.0015092617    
0.0104024910    0.0489506800    0.0014867710    
0.0106251520    0.0454191910    0.0014369996    
0.0108478130    0.0457914230    0.0014051474    
0.0110704740    0.0450243840    0.0013265436    
0.0112931350    0.0405716130    0.0012629391    
0.0115157960    0.0386621690    0.0012256732    
0.0117384570    0.0368154960    0.0011857473    
0.0119611180    0.0377568740    0.0012042573    
0.0121837790    0.0398399760    0.0012162398    
0.0124064400    0.0377811900    0.0011350259    
0.0126291010    0.0353783540    0.0010845930    
0.0128517620    0.0326145940    0.0010439677    
0.0130744230    0.0330215260    0.0010426695    
0.0132970840    0.0323081540    0.0010263023    
0.0135197450    0.0326881010    0.0010175361    
0.0137424060    0.0305215420    0.0009695488    
0.0139650670    0.0295891760    0.0009333614    
0.0141877280    0.0301636930    0.0009444619    
0.0144103890    0.0301035450    0.0009272511    
0.0146330500    0.0280023130    0.0008886265    
0.0148557110    0.0292221050    0.0009039686    
0.0150783720    0.0275034360    0.0008697350    
0.0153010330    0.0278026810    0.0008621245    
0.0155236940    0.0263371090    0.0008341046    
0.0157463550    0.0280088080    0.0008452661    
0.0159690160    0.0262523710    0.0008152281    
0.0161916770    0.0260825640    0.0008080094    
0.0164143380    0.0246241910    0.0007910430    
0.0166369990    0.0257547590    0.0007840554    
0.0168596600    0.0254436310    0.0007724390    
0.0170823210    0.0245209880    0.0007517391    
0.0173049820    0.0241433280    0.0007472172    
0.0175276430    0.0239231090    0.0007516452    
0.0177503040    0.0246252600    0.0007431554    
0.0179729650    0.0245349680    0.0007344350    
0.0181956260    0.0229053210    0.0006960207    
0.0184182870    0.0237165170    0.0007049003    
0.0186409480    0.0238479510    0.0007113247    
0.0188636090    0.0240307980    0.0007095557    
0.0190862700    0.0240601370    0.0007088786    
0.0193089310    0.0226943220    0.0006873912    
0.0195315920    0.0225175370    0.0006614228    
0.0197542530    0.0230703200    0.0006704676    
0.0199769140    0.0223298960    0.0006596209    
0.0201995750    0.0225422580    0.0006523719    
0.0204222360    0.0218554390    0.0006478708    
0.0206448970    0.0217541440    0.0006417738    
0.0208675580    0.0234463500    0.0006525475    
0.0210902190    0.0218830210    0.0006365002    
0.0213128800    0.0222659750    0.0006333335    
0.0215355410    0.0233039530    0.0006402088    
0.0217582020    0.0218265790    0.0006195834    
0.0219808630    0.0217342160    0.0006174593    
0.0222035240    0.0210837340    0.0006026384    
0.0224261850    0.0218945070    0.0006086506    
0.0226488460    0.0212169130    0.0005946590    
0.0228715070    0.0205477660    0.0005837528    
0.0230941680    0.0208960420    0.0005886793    
0.0233168290    0.0213336070    0.0005962925    
0.0235394900    0.0211098330    0.0005866106    
0.0237621510    0.0201737560    0.0005580190    
0.0239848120    0.0210558910    0.0005707482    
0.0242074730    0.0199284980    0.0005508137    
0.0244301340    0.0213625730    0.0005709388    
0.0246527950    0.0202679090    0.0005612678    
0.0248754560    0.0210305550    0.0005588807    
0.0250981170    0.0208559200    0.0005577965    
0.0253207780    0.0204434790    0.0005357647    
0.0255434390    0.0203515300    0.0005402638    
0.0257661000    0.0208587200    0.0005487237    
0.0259887610    0.0208133790    0.0005423020    
0.0262114220    0.0214070570    0.0005529122    
0.0264340830    0.0202171210    0.0005300146    
0.0266567440    0.0211757380    0.0005390829    
0.0268794050    0.0209624010    0.0005341714    
0.0271020660    0.0217246530    0.0005415952    
0.0273247270    0.0206907530    0.0005253762    
0.0275473880    0.0207945150    0.0005256439    
0.0277700490    0.0210089740    0.0005252244    
0.0279927100    0.0202955970    0.0005117260    
0.0282153710    0.0199853190    0.0005102681    
0.0284380320    0.0195739970    0.0005020624    
0.0286606930    0.0207973100    0.0005130839    
0.0288833540    0.0205714470    0.0005112595    
0.0291060150    0.0202787790    0.0005071280    
0.0293286760    0.0209753500    0.0005085774    
0.0295513370    0.0204365720    0.0004965367    
0.0297739980    0.0202848250    0.0005001362    
0.0299966590    0.0199433200    0.0004874384    
0.0302193200    0.0195600200    0.0004897664    
0.0304419810    0.0204075110    0.0005011847    
0.0306646420    0.0201668100    0.0004841584    
0.0308873030    0.0206267520    0.0004875334    
0.0311099640    0.0203170110    0.0004851154    
0.0313326250    0.0199713120    0.0004756423    
0.0315552860    0.0204806910    0.0004879122    
0.0317779470    0.0206328210    0.0004901474    
0.0320006080    0.0200284000    0.0004719429    
0.0322232690    0.0198263730    0.0004715222    
0.0324459300    0.0197855320    0.0004675197    
0.0326685910    0.0204580760    0.0004746155    
0.0328912520    0.0196073340    0.0004661811    
0.0331139130    0.0191545190    0.0004547728    
0.0333365740    0.0202463280    0.0004690724    
0.0335592350    0.0203918310    0.0004662284    
0.0337818960    0.0201784470    0.0004634134    
0.0340045570    0.0196794380    0.0004569206    
0.0342272170    0.0207454320    0.0004672821    
0.0344498780    0.0200825980    0.0004615775    
0.0346725390    0.0197748560    0.0004495447    
0.0348952000    0.0195444630    0.0004448823    
0.0351178610    0.0201632250    0.0004539379    
0.0353405220    0.0194330940    0.0004436132    
0.0355631830    0.0195483070    0.0004432506    
0.0357858440    0.0200307460    0.0004486870    
0.0360085050    0.0206575420    0.0004570298    
0.0362311660    0.0197250830    0.0004412870    
0.0364538270    0.0205269000    0.0004465536    
0.0366764880    0.0198665890    0.0004389937    
0.0368991490    0.0202237650    0.0004406896    
0.0371218100    0.0201273100    0.0004383797    
0.0373444710    0.0205680670    0.0004479795    
0.0375671320    0.0209849110    0.0004518373    
0.0377897930    0.0201617440    0.0004314215    
0.0380124540    0.0203874980    0.0004365521    
0.0382351150    0.0199762100    0.0004321264    
0.0384577760    0.0196934430    0.0004249174    
0.0386804370    0.0202278860    0.0004339310    
0.0389030980    0.0200785380    0.0004290521    
0.0391257590    0.0199696490    0.0004249823    
0.0393484200    0.0195030710    0.0004185748    
0.0395710810    0.0199700060    0.0004241264    
0.0397937420    0.0204294120    0.0004289773    
0.0400164030    0.0195607230    0.0004214655    
0.0402390640    0.0198743000    0.0004191734    
0.0404617250    0.0203394490    0.0004215486    
0.0406843860    0.0189886070    0.0004033743    
0.0409070470    0.0197712150    0.0004158906    
0.0411297080    0.0202742530    0.0004170739    
0.0413523690    0.0195337400    0.0004104415    
0.0415750300    0.0199898060    0.0004187322    
0.0417976910    0.0201927190    0.0004099675    
0.0420203520    0.0199673740    0.0004092053    
0.0422430130    0.0203131920    0.0004142962    
0.0424656740    0.0196726290    0.0004024051    
0.0426883350    0.0202840480    0.0004106385    
0.0429109960    0.0194322730    0.0004031800    
0.0431336570    0.0198073770    0.0004013177    
0.0433563180    0.0194391980    0.0004010000    
0.0435789790    0.0200433270    0.0004007864    
0.0438016400    0.0198326150    0.0004008430    
0.0440243010    0.0194718990    0.0003931511    
0.0442469620    0.0194087160    0.0003948647    
0.0444696230    0.0192936940    0.0003922812    
0.0446922840    0.0200752060    0.0003989589    
0.0449149450    0.0196115090    0.0003890529    
0.0451376060    0.0186830500    0.0003844216    
0.0453602670    0.0204929260    0.0003983906    
0.0455829280    0.0197346790    0.0003904987    
0.0458055890    0.0195824600    0.0003912581    
0.0460282500    0.0197920980    0.0003886036    
0.0462509110    0.0195994130    0.0003843022    
0.0464735720    0.0193273410    0.0003818410    
0.0466962330    0.0202114310    0.0003922517    
0.0469188940    0.0193022040    0.0003822406    
0.0471415550    0.0199139460    0.0003902445    
0.0473642160    0.0194865730    0.0003806291    
0.0475868770    0.0194995510    0.0003788643    
0.0478095380    0.0195116860    0.0003773237    
0.0480321990    0.0193847450    0.0003769183    
0.0482548600    0.0191871380    0.0003733585    
0.0484775210    0.0192958730    0.0003781324    
0.0487001820    0.0198646560    0.0003780488    
0.0489228430    0.0193474110    0.0003728939    
0.0491455040    0.0193358730    0.0003702044    
0.0493681650    0.0197200990    0.0003770773    
0.0495908260    0.0196196690    0.0003697877    
0.0498134870    0.0192349610    0.0003696298    
0.0500361480    0.0194159320    0.0003703820    
0.0502588090    0.0198324720    0.0003687250    
0.0504814700    0.0197141450    0.0003724293    
0.0507041310    0.0197221460    0.0003680761    
0.0509267920    0.0200241910    0.0003724182    
0.0511494530    0.0195325060    0.0003653649    
0.0513721140    0.0203788290    0.0003764830    
0.0515947750    0.0199571430    0.0003676278    
0.0518174360    0.0196371480    0.0003624719    
0.0520400970    0.0196560950    0.0003601322    
0.0522627580    0.0194010560    0.0003608289    
0.0524854190    0.0201543320    0.0003707573    
0.0527080800    0.0190961960    0.0003636876    
0.0529307410    0.0196675220    0.0003708214    
0.0531534020    0.0200451410    0.0003730015    
0.0533760630    0.0200381320    0.0003741037    
0.0535987240    0.0193671100    0.0003660694    
0.0538213850    0.0198114000    0.0003745341    
0.0540440460    0.0191614190    0.0003665957    
0.0542667070    0.0188006950    0.0003656311    
0.0544893680    0.0196251000    0.0003737606    
0.0547120290    0.0193290450    0.0003683895    
0.0549346900    0.0193423600    0.0003687103    
0.0551573510    0.0199803060    0.0003791527    
0.0553800120    0.0201866640    0.0003778658    
0.0556026730    0.0191163740    0.0003753363    
0.0558253340    0.0197900460    0.0003850903    
0.0560479950    0.0194079030    0.0003813544    
0.0562706560    0.0196322100    0.0003872600    
0.0564933170    0.0195394070    0.0003896985    
0.0567159780    0.0195440670    0.0003850721    
0.0569386390    0.0207490060    0.0004029883    
0.0571613000    0.0198426200    0.0003856026    
0.0573839610    0.0198755880    0.0003827186    
0.0576066220    0.0193484910    0.0003786550    
0.0578292830    0.0192721870    0.0003766571    
0.0580519440    0.0202676580    0.0003877602    
0.0582746050    0.0192363180    0.0003760998    
0.0584972660    0.0194541930    0.0003767759    
0.0587199270    0.0191632670    0.0003707245    
0.0589425880    0.0199321010    0.0003758767    
0.0591652490    0.0198518090    0.0003773263    
0.0593879100    0.0198759990    0.0003747521    
0.0596105710    0.0197565280    0.0003732300    
0.0598332320    0.0204543130    0.0003830100    
0.0600558930    0.0189976740    0.0003667669    
0.0602785540    0.0195086620    0.0003712738    
0.0605012150    0.0194757940    0.0003701793    
0.0607238760    0.0198100860    0.0003706220    
0.0609465370    0.0191019230    0.0003668025    
0.0611691980    0.0190989290    0.0003673550    
0.0613918590    0.0192993860    0.0003652463    
0.0616145200    0.0193023670    0.0003679479    
0.0618371810    0.0186500040    0.0003581245    
0.0620598420    0.0188538630    0.0003604477    
0.0622825030    0.0196906510    0.0003739930    
0.0625051640    0.0202601060    0.0003740345    
0.0627278250    0.0190558220    0.0003620007    
0.0629504860    0.0197214820    0.0003652753    
0.0631731470    0.0194220240    0.0003669762    
0.0633958080    0.0196111550    0.0003708810    
0.0636184690    0.0193896720    0.0003739169    
0.0638411300    0.0197453440    0.0003759143    
0.0640637910    0.0198063420    0.0003791425    
0.0642864520    0.0196629050    0.0003769497    
0.0645091130    0.0200972720    0.0003844300    
0.0647317740    0.0192867160    0.0003770131    
0.0649544350    0.0199723080    0.0003832334    
0.0651770960    0.0198568340    0.0003800395    
0.0653997570    0.0196332050    0.0003770739    
0.0656224180    0.0194786530    0.0003764035    
0.0658450790    0.0191417770    0.0003677712    
0.0660677400    0.0192480450    0.0003703602    
0.0662904010    0.0197176550    0.0003793260    
0.0665130620    0.0195541970    0.0003761118    
0.0667357230    0.0189368100    0.0003767074    
0.0669583840    0.0199491960    0.0003853523    
0.0671810450    0.0199356440    0.0003830945    
0.0674037060    0.0196956310    0.0003872324    
0.0676263670    0.0194683060    0.0003821725    
0.0678490280    0.0194680550    0.0003798328    
0.0680716890    0.0200907470    0.0003867182    
0.0682943500    0.0196749090    0.0003785036    
0.0685170110    0.0195470650    0.0003734275    
0.0687396720    0.0197413730    0.0003742819    
0.0689623330    0.0189536380    0.0003655762    
0.0691849940    0.0190885020    0.0003694164    
0.0694076550    0.0201750830    0.0003795824    
0.0696303160    0.0203629750    0.0003783267    
0.0698529770    0.0196897480    0.0003712404    
0.0700756380    0.0193580070    0.0003633745    
0.0702982990    0.0201653010    0.0003749130    
0.0705209600    0.0197721260    0.0003685598    
0.0707436210    0.0193254620    0.0003626997    
0.0709662820    0.0194753070    0.0003684437    
0.0711889430    0.0193126510    0.0003623954    
0.0714116040    0.0195213150    0.0003650917    
0.0716342650    0.0199117000    0.0003672271    
0.0718569260    0.0199397420    0.0003660055    
0.0720795870    0.0200133420    0.0003681636    
0.0723022480    0.0192455930    0.0003615830    
0.0725249090    0.0189133900    0.0003541560    
0.0727475700    0.0199326380    0.0003666790    
0.0729702310    0.0196093200    0.0003607923    
0.0731928920    0.0191909180    0.0003583490    
0.0734155530    0.0200807920    0.0003658317    
0.0736382140    0.0189224940    0.0003528450    
0.0738608750    0.0193410590    0.0003590307    
0.0740835360    0.0196762060    0.0003612290    
0.0743061970    0.0192806900    0.0003525449    
0.0745288580    0.0195344860    0.0003585064    
0.0747515190    0.0192880540    0.0003569415    
0.0749741800    0.0200997040    0.0003610014    
0.0751968410    0.0193430580    0.0003569219    
0.0754195020    0.0193513940    0.0003549072    
0.0756421630    0.0195421530    0.0003537367    
0.0758648240    0.0194496410    0.0003537468    
0.0760874850    0.0196366520    0.0003552727    
0.0763101460    0.0198235260    0.0003566167    
0.0765328070    0.0191771630    0.0003543437    
0.0767554680    0.0195119960    0.0003549983    
0.0769781290    0.0195501650    0.0003533034    
0.0772007900    0.0199289330    0.0003538486    
0.0774234510    0.0192666660    0.0003498984    
0.0776461120    0.0199912210    0.0003560789    
0.0778687730    0.0188512660    0.0003446353    
0.0780914340    0.0195753810    0.0003537014    
0.0783140950    0.0194605140    0.0003470668    
0.0785367560    0.0187765690    0.0003464099    
0.0787594170    0.0197911530    0.0003524594    
0.0789820780    0.0189675780    0.0003432800    
0.0792047390    0.0194169870    0.0003484585    
0.0794274000    0.0196890880    0.0003523783    
0.0796500610    0.0193993870    0.0003463624    
0.0798727220    0.0194376600    0.0003463839    
0.0800953830    0.0191271660    0.0003428160    
0.0803180440    0.0196001780    0.0003494465    
0.0805407050    0.0195388660    0.0003485750    
0.0807633660    0.0192915700    0.0003460406    
0.0809860270    0.0195128730    0.0003467346    
0.0812086880    0.0190741410    0.0003398519    
0.0814313490    0.0190835340    0.0003414859    
0.0816540100    0.0188264200    0.0003384055    
0.0818766710    0.0197435410    0.0003473414    
0.0820993320    0.0195559640    0.0003450575    
0.0823219930    0.0192326530    0.0003436046    
0.0825446540    0.0190267960    0.0003392777    
0.0827673150    0.0196852330    0.0003427798    
0.0829899760    0.0192702470    0.0003385437    
0.0832126370    0.0194792640    0.0003418994    
0.0834352980    0.0197626550    0.0003436074    
0.0836579590    0.0190026890    0.0003361860    
0.0838806200    0.0195287770    0.0003418743    
0.0841032810    0.0201796070    0.0003453671    
0.0843259420    0.0199615180    0.0003424379    
0.0845486030    0.0194504670    0.0003380263    
0.0847712640    0.0199569170    0.0003403121    
0.0849939250    0.0193684460    0.0003358410    
0.0852165860    0.0194017060    0.0003365695    
0.0854392470    0.0200556610    0.0003389541    
0.0856619080    0.0198580410    0.0003397641    
0.0858845690    0.0193478060    0.0003323502    
0.0861072300    0.0189791670    0.0003314412    
0.0863298910    0.0191726040    0.0003348703    
0.0865525520    0.0198373780    0.0003376850    
0.0867752130    0.0191622120    0.0003292107    
0.0869978740    0.0192998020    0.0003312325    
0.0872205350    0.0194151610    0.0003317983    
0.0874431960    0.0195456090    0.0003329113    
0.0876658570    0.0197988420    0.0003363475    
0.0878885180    0.0190411600    0.0003304144    
0.0881111790    0.0190380750    0.0003299637    
0.0883338400    0.0197062480    0.0003307889    
0.0885565010    0.0191491210    0.0003305013    
0.0887791620    0.0193003400    0.0003275010    
0.0890018230    0.0194669380    0.0003321017    
0.0892244840    0.0200050260    0.0003372325    
0.0894471450    0.0192557770    0.0003294596    
0.0896698060    0.0192562410    0.0003282208    
0.0898924670    0.0199264170    0.0003354311    
0.0901151280    0.0196032550    0.0003291064    
0.0903377890    0.0195956720    0.0003317966    
0.0905604500    0.0201955460    0.0003352911    
0.0907831110    0.0196631510    0.0003300190    
0.0910057720    0.0196036670    0.0003310316    
0.0912284330    0.0192526990    0.0003233579    
0.0914510940    0.0192347060    0.0003268110    
0.0916737550    0.0194598210    0.0003279021    
0.0918964160    0.0193657400    0.0003284689    
0.0921190770    0.0184207870    0.0003174582    
0.0923417380    0.0194543410    0.0003263765    
0.0925643990    0.0191576400    0.0003230856    
0.0927870600    0.0193974910    0.0003264350    
0.0930097210    0.0193385010    0.0003231623    
0.0932323820    0.0195854960    0.0003276101    
