# Diamond Light Source Ltd.
# Data extracted from: /dls/b21/data/2018/cm19678-3/processed/b21-386631_00699.dat
q(1/A)          Column          Error           
0.0035000000    2.0499576000    0.0244059860    
0.0037226610    1.8754352000    0.0228524760    
0.0039453220    1.6106189000    0.0192657210    
0.0041679830    1.2916968000    0.0141688290    
0.0043906440    0.9561051400    0.0116598190    
0.0046133050    0.7820499300    0.0101232530    
0.0048359660    0.5998346700    0.0083862208    
0.0050586270    0.4657758900    0.0072635755    
0.0052812880    0.4224509700    0.0065403978    
0.0055039490    0.3834068000    0.0059245650    
0.0057266100    0.3088778100    0.0051443922    
0.0059492710    0.2739202400    0.0048445429    
0.0061719320    0.2249171900    0.0042301888    
0.0063945930    0.2017961900    0.0040554369    
0.0066172539    0.1874135000    0.0036698395    
0.0068399149    0.1709057000    0.0034492986    
0.0070625759    0.1425268000    0.0031176216    
0.0072852369    0.1254565500    0.0028812052    
0.0075078979    0.1161020800    0.0027580881    
0.0077305589    0.1007505500    0.0025203394    
0.0079532199    0.0967513570    0.0024355866    
0.0081758809    0.0925637740    0.0024044566    
0.0083985419    0.0837830090    0.0021336038    
0.0086212029    0.0793276350    0.0020760991    
0.0088438639    0.0707872110    0.0019454085    
0.0090665249    0.0609457330    0.0017434428    
0.0092891859    0.0641141460    0.0018664349    
0.0095118469    0.0586403090    0.0017165673    
0.0097345079    0.0550762200    0.0016157013    
0.0099571689    0.0537374840    0.0015630346    
0.0101798300    0.0490093220    0.0014926889    
0.0104024910    0.0487233430    0.0014832910    
0.0106251520    0.0475090540    0.0014696646    
0.0108478130    0.0432029630    0.0013648335    
0.0110704740    0.0419354400    0.0012802104    
0.0112931350    0.0405703220    0.0012628990    
0.0115157960    0.0399431620    0.0012457930    
0.0117384570    0.0350194360    0.0011564437    
0.0119611180    0.0371411350    0.0011943784    
0.0121837790    0.0373139820    0.0011770328    
0.0124064400    0.0353590690    0.0010980230    
0.0126291010    0.0348784890    0.0010768865    
0.0128517620    0.0354204610    0.0010879308    
0.0130744230    0.0319999030    0.0010263974    
0.0132970840    0.0336437480    0.0010472841    
0.0135197450    0.0319268970    0.0010056027    
0.0137424060    0.0315984930    0.0009864900    
0.0139650670    0.0302064960    0.0009430325    
0.0141877280    0.0301035900    0.0009435054    
0.0144103890    0.0287031310    0.0009054120    
0.0146330500    0.0307367070    0.0009309880    
0.0148557110    0.0280467360    0.0008855883    
0.0150783720    0.0276400740    0.0008718789    
0.0153010330    0.0274008090    0.0008558575    
0.0155236940    0.0267325040    0.0008403291    
0.0157463550    0.0264519220    0.0008214249    
0.0159690160    0.0269097230    0.0008253584    
0.0161916770    0.0264571910    0.0008137786    
0.0164143380    0.0243438860    0.0007865152    
0.0166369990    0.0264938580    0.0007952135    
0.0168596600    0.0252786740    0.0007699188    
0.0170823210    0.0237597130    0.0007399662    
0.0173049820    0.0252063130    0.0007634772    
0.0175276430    0.0245127320    0.0007608395    
0.0177503040    0.0251851430    0.0007515442    
0.0179729650    0.0240285540    0.0007268044    
0.0181956260    0.0247234250    0.0007231050    
0.0184182870    0.0255174900    0.0007311632    
0.0186409480    0.0234228650    0.0007049454    
0.0188636090    0.0232548710    0.0006979952    
0.0190862700    0.0230568980    0.0006939311    
0.0193089310    0.0227352390    0.0006879996    
0.0195315920    0.0236630610    0.0006780275    
0.0197542530    0.0232449470    0.0006729896    
0.0199769140    0.0226604210    0.0006644742    
0.0201995750    0.0228436050    0.0006567075    
0.0204222360    0.0234103100    0.0006705101    
0.0206448970    0.0224539540    0.0006520043    
0.0208675580    0.0227554940    0.0006428516    
0.0210902190    0.0226598690    0.0006476892    
0.0213128800    0.0212925120    0.0006193244    
0.0215355410    0.0209640970    0.0006072088    
0.0217582020    0.0209465180    0.0006069543    
0.0219808630    0.0228912430    0.0006336714    
0.0222035240    0.0213242090    0.0006060558    
0.0224261850    0.0218430520    0.0006079253    
0.0226488460    0.0218495590    0.0006034500    
0.0228715070    0.0213928770    0.0005956270    
0.0230941680    0.0219401460    0.0006031976    
0.0233168290    0.0212995960    0.0005958075    
0.0235394900    0.0215329740    0.0005924512    
0.0237621510    0.0202039830    0.0005584280    
0.0239848120    0.0208231660    0.0005675763    
0.0242074730    0.0216633690    0.0005742798    
0.0244301340    0.0219417160    0.0005786169    
0.0246527950    0.0200185860    0.0005577961    
0.0248754560    0.0214605830    0.0005645567    
0.0250981170    0.0206911590    0.0005555800    
0.0253207780    0.0216222230    0.0005509853    
0.0255434390    0.0207524510    0.0005455507    
0.0257661000    0.0224891700    0.0005697570    
0.0259887610    0.0207420700    0.0005413636    
0.0262114220    0.0214920590    0.0005540000    
0.0264340830    0.0198274320    0.0005248733    
0.0266567440    0.0216004870    0.0005444540    
0.0268794050    0.0207983960    0.0005320693    
0.0271020660    0.0208328610    0.0005303541    
0.0273247270    0.0211569890    0.0005312541    
0.0275473880    0.0210861630    0.0005293088    
0.0277700490    0.0196427660    0.0005078516    
0.0279927100    0.0210819770    0.0005215372    
0.0282153710    0.0207663520    0.0005201350    
0.0284380320    0.0207194480    0.0005165355    
0.0286606930    0.0206320980    0.0005110337    
0.0288833540    0.0193383240    0.0004956915    
0.0291060150    0.0206839500    0.0005121610    
0.0293286760    0.0210486670    0.0005094574    
0.0295513370    0.0203514760    0.0004954940    
0.0297739980    0.0204198180    0.0005017897    
0.0299966590    0.0202166890    0.0004907600    
0.0302193200    0.0192405610    0.0004857427    
0.0304419810    0.0196437580    0.0004917090    
0.0306646420    0.0207357030    0.0004909320    
0.0308873030    0.0203149760    0.0004838271    
0.0311099640    0.0201542050    0.0004831601    
0.0313326250    0.0204464390    0.0004812592    
0.0315552860    0.0204684160    0.0004877582    
0.0317779470    0.0210979020    0.0004956329    
0.0320006080    0.0192493380    0.0004626657    
0.0322232690    0.0203976390    0.0004782594    
0.0324459300    0.0201494490    0.0004717922    
0.0326685910    0.0207216760    0.0004776558    
0.0328912520    0.0197175450    0.0004674820    
0.0331139130    0.0204927400    0.0004703833    
0.0333365740    0.0200500740    0.0004667860    
0.0335592350    0.0199434930    0.0004610673    
0.0337818960    0.0200181710    0.0004615619    
0.0340045570    0.0197212460    0.0004573984    
0.0342272170    0.0198080470    0.0004565957    
0.0344498780    0.0202729130    0.0004637520    
0.0346725390    0.0196924730    0.0004486001    
0.0348952000    0.0203640750    0.0004541075    
0.0351178610    0.0203465300    0.0004559894    
0.0353405220    0.0204147330    0.0004546722    
0.0355631830    0.0193366310    0.0004408372    
0.0357858440    0.0199497070    0.0004477713    
0.0360085050    0.0203939980    0.0004540978    
0.0362311660    0.0197145830    0.0004411625    
0.0364538270    0.0197005340    0.0004374657    
0.0366764880    0.0200308600    0.0004407980    
0.0368991490    0.0203095450    0.0004416162    
0.0371218100    0.0197638550    0.0004343967    
0.0373444710    0.0199234620    0.0004408968    
0.0375671320    0.0195444340    0.0004360468    
0.0377897930    0.0198103140    0.0004276382    
0.0380124540    0.0190875500    0.0004223985    
0.0382351150    0.0200597020    0.0004330217    
0.0384577760    0.0201878880    0.0004302117    
0.0386804370    0.0202551670    0.0004342166    
0.0389030980    0.0195919960    0.0004238151    
0.0391257590    0.0202041560    0.0004274636    
0.0393484200    0.0200234740    0.0004241157    
0.0395710810    0.0194289280    0.0004183346    
0.0397937420    0.0191497120    0.0004153179    
0.0400164030    0.0195782630    0.0004216477    
0.0402390640    0.0199001890    0.0004194396    
0.0404617250    0.0193777760    0.0004114558    
0.0406843860    0.0193735900    0.0004074364    
0.0409070470    0.0195343890    0.0004133857    
0.0411297080    0.0200591180    0.0004148485    
0.0413523690    0.0203782600    0.0004192135    
0.0415750300    0.0191822360    0.0004101803    
0.0417976910    0.0196260990    0.0004041681    
0.0420203520    0.0194719720    0.0004040907    
0.0422430130    0.0194506990    0.0004053989    
0.0424656740    0.0198777770    0.0004044913    
0.0426883350    0.0194188640    0.0004017792    
0.0429109960    0.0198080760    0.0004070534    
0.0431336570    0.0197091770    0.0004003153    
0.0433563180    0.0194054930    0.0004006459    
0.0435789790    0.0202189950    0.0004025325    
0.0438016400    0.0196780590    0.0003992717    
0.0440243010    0.0198284780    0.0003967283    
0.0442469620    0.0200748500    0.0004015773    
0.0444696230    0.0192611780    0.0003919442    
0.0446922840    0.0197415770    0.0003956236    
0.0449149450    0.0195568600    0.0003885043    
0.0451376060    0.0201852780    0.0003995714    
0.0453602670    0.0195938980    0.0003895476    
0.0455829280    0.0198576790    0.0003917075    
0.0458055890    0.0197694470    0.0003931155    
0.0460282500    0.0194557620    0.0003852815    
0.0462509110    0.0195611140    0.0003839204    
0.0464735720    0.0192588330    0.0003811576    
0.0466962330    0.0199900300    0.0003900912    
0.0469188940    0.0202855920    0.0003918504    
0.0471415550    0.0197297800    0.0003884297    
0.0473642160    0.0199468950    0.0003850924    
0.0475868770    0.0195210130    0.0003790667    
0.0478095380    0.0196861840    0.0003790012    
0.0480321990    0.0198971300    0.0003818612    
0.0482548600    0.0201672850    0.0003827698    
0.0484775210    0.0197843100    0.0003828823    
0.0487001820    0.0195546610    0.0003750814    
0.0489228430    0.0199936050    0.0003790640    
0.0491455040    0.0197534330    0.0003741744    
0.0493681650    0.0189552070    0.0003696862    
0.0495908260    0.0196260140    0.0003698416    
0.0498134870    0.0195610770    0.0003727441    
0.0500361480    0.0191609650    0.0003679362    
0.0502588090    0.0197221600    0.0003676923    
0.0504814700    0.0191717830    0.0003672648    
0.0507041310    0.0191788500    0.0003629651    
0.0509267920    0.0193655680    0.0003662365    
0.0511494530    0.0193200270    0.0003633665    
0.0513721140    0.0188063480    0.0003616606    
0.0515947750    0.0190626300    0.0003592888    
0.0518174360    0.0195562380    0.0003617187    
0.0520400970    0.0192134040    0.0003560481    
0.0522627580    0.0198164980    0.0003646659    
0.0524854190    0.0189874370    0.0003598585    
0.0527080800    0.0195665710    0.0003681336    
0.0529307410    0.0194711370    0.0003689595    
0.0531534020    0.0200028600    0.0003726019    
0.0533760630    0.0200584480    0.0003742873    
0.0535987240    0.0190689740    0.0003632350    
0.0538213850    0.0195629590    0.0003721723    
0.0540440460    0.0204793430    0.0003789872    
0.0542667070    0.0189423060    0.0003669997    
0.0544893680    0.0188130180    0.0003659400    
0.0547120290    0.0198690360    0.0003734940    
0.0549346900    0.0191871240    0.0003672219    
0.0551573510    0.0192889800    0.0003725297    
0.0553800120    0.0193584940    0.0003700276    
0.0556026730    0.0199190110    0.0003831288    
0.0558253340    0.0197444580    0.0003846404    
0.0560479950    0.0197744500    0.0003849326    
0.0562706560    0.0191579830    0.0003825481    
0.0564933170    0.0190258340    0.0003845369    
0.0567159780    0.0201731450    0.0003912140    
0.0569386390    0.0193865160    0.0003895263    
0.0571613000    0.0195047940    0.0003823000    
0.0573839610    0.0194033220    0.0003781383    
0.0576066220    0.0193626960    0.0003787879    
0.0578292830    0.0198899140    0.0003826399    
0.0580519440    0.0190800720    0.0003762223    
0.0582746050    0.0195004180    0.0003786667    
0.0584972660    0.0196505910    0.0003786670    
0.0587199270    0.0199085090    0.0003778583    
0.0589425880    0.0194920110    0.0003716981    
0.0591652490    0.0197436030    0.0003762905    
0.0593879100    0.0195362210    0.0003715292    
0.0596105710    0.0199039630    0.0003746141    
0.0598332320    0.0193779090    0.0003727900    
0.0600558930    0.0198608950    0.0003750010    
0.0602785540    0.0191406320    0.0003677492    
0.0605012150    0.0199113960    0.0003742902    
0.0607238760    0.0192616970    0.0003654504    
0.0609465370    0.0189815800    0.0003656394    
0.0611691980    0.0194516010    0.0003707253    
0.0613918590    0.0196374690    0.0003684257    
0.0616145200    0.0196033430    0.0003707996    
0.0618371810    0.0196190150    0.0003673046    
0.0620598420    0.0196112530    0.0003676105    
0.0622825030    0.0194627230    0.0003718162    
0.0625051640    0.0203216070    0.0003745958    
0.0627278250    0.0195365820    0.0003665329    
0.0629504860    0.0196126100    0.0003642598    
0.0631731470    0.0191093880    0.0003640048    
0.0633958080    0.0188951250    0.0003640416    
0.0636184690    0.0203192110    0.0003827686    
0.0638411300    0.0194155180    0.0003727555    
0.0640637910    0.0193702620    0.0003749395    
0.0642864520    0.0197778970    0.0003780443    
0.0645091130    0.0191995270    0.0003757397    
0.0647317740    0.0191092340    0.0003752684    
0.0649544350    0.0196922460    0.0003805309    
0.0651770960    0.0192597890    0.0003742765    
0.0653997570    0.0194587760    0.0003753891    
0.0656224180    0.0196598680    0.0003781443    
0.0658450790    0.0197205610    0.0003732840    
0.0660677400    0.0198246430    0.0003758606    
0.0662904010    0.0194178430    0.0003764251    
0.0665130620    0.0199008080    0.0003794245    
0.0667357230    0.0187638560    0.0003749773    
0.0669583840    0.0193307510    0.0003793261    
0.0671810450    0.0200896020    0.0003845648    
0.0674037060    0.0196950040    0.0003872201    
0.0676263670    0.0197602640    0.0003850214    
0.0678490280    0.0198231400    0.0003832751    
0.0680716890    0.0195392870    0.0003813678    
0.0682943500    0.0197325340    0.0003790515    
0.0685170110    0.0198246590    0.0003760637    
0.0687396720    0.0194285260    0.0003712984    
0.0689623330    0.0193831450    0.0003696893    
0.0691849940    0.0191593850    0.0003700958    
0.0694076550    0.0198030890    0.0003760607    
0.0696303160    0.0199406020    0.0003743765    
0.0698529770    0.0198081100    0.0003723487    
0.0700756380    0.0194869870    0.0003645773    
0.0702982990    0.0192864200    0.0003666461    
0.0705209600    0.0197577580    0.0003684200    
0.0707436210    0.0193997230    0.0003633901    
0.0709662820    0.0194816580    0.0003684979    
0.0711889430    0.0192848370    0.0003621286    
0.0714116040    0.0192612380    0.0003626458    
0.0716342650    0.0195250360    0.0003636382    
0.0718569260    0.0199323900    0.0003659322    
0.0720795870    0.0200127050    0.0003681519    
0.0723022480    0.0198156060    0.0003668928    
0.0725249090    0.0190520480    0.0003554462    
0.0727475700    0.0194935670    0.0003626122    
0.0729702310    0.0196750770    0.0003613910    
0.0731928920    0.0189628070    0.0003562072    
0.0734155530    0.0193337290    0.0003589565    
0.0736382140    0.0193100670    0.0003564345    
0.0738608750    0.0196470120    0.0003618535    
0.0740835360    0.0186410700    0.0003515932    
0.0743061970    0.0193896600    0.0003535341    
0.0745288580    0.0190272610    0.0003538157    
0.0747515190    0.0199017320    0.0003625695    
0.0749741800    0.0195090610    0.0003556520    
0.0751968410    0.0202644520    0.0003653180    
0.0754195020    0.0195525530    0.0003567414    
0.0756421630    0.0197528260    0.0003556327    
0.0758648240    0.0190565670    0.0003501484    
0.0760874850    0.0194367740    0.0003534543    
0.0763101460    0.0192134540    0.0003510808    
0.0765328070    0.0196479470    0.0003586610    
0.0767554680    0.0191109430    0.0003513255    
0.0769781290    0.0198496170    0.0003559933    
0.0772007900    0.0192811960    0.0003480451    
0.0774234510    0.0196091820    0.0003529893    
0.0776461120    0.0197622660    0.0003540283    
0.0778687730    0.0194933030    0.0003504494    
0.0780914340    0.0201307510    0.0003586780    
0.0783140950    0.0192123130    0.0003448409    
0.0785367560    0.0197473630    0.0003552466    
0.0787594170    0.0192193410    0.0003473249    
0.0789820780    0.0191285010    0.0003447276    
0.0792047390    0.0198540980    0.0003523533    
0.0794274000    0.0200226980    0.0003553454    
0.0796500610    0.0194482400    0.0003467927    
0.0798727220    0.0191222470    0.0003435565    
0.0800953830    0.0194153300    0.0003453832    
0.0803180440    0.0198861350    0.0003519808    
0.0805407050    0.0193143820    0.0003465613    
0.0807633660    0.0197875060    0.0003504547    
0.0809860270    0.0203008740    0.0003536609    
0.0812086880    0.0196124370    0.0003446086    
0.0814313490    0.0196511990    0.0003465222    
0.0816540100    0.0198233760    0.0003472446    
0.0818766710    0.0196818080    0.0003467925    
0.0820993320    0.0192265780    0.0003421338    
0.0823219930    0.0199072800    0.0003495735    
0.0825446540    0.0198973430    0.0003469470    
0.0827673150    0.0196905760    0.0003428209    
0.0829899760    0.0192339500    0.0003382194    
0.0832126370    0.0192626150    0.0003399873    
0.0834352980    0.0191526770    0.0003382577    
0.0836579590    0.0194600380    0.0003402021    
0.0838806200    0.0194683090    0.0003413392    
0.0841032810    0.0191564220    0.0003364921    
0.0843259420    0.0192677150    0.0003364289    
0.0845486030    0.0199902850    0.0003426794    
0.0847712640    0.0197647860    0.0003386646    
0.0849939250    0.0194959390    0.0003369391    
0.0852165860    0.0188114080    0.0003314046    
0.0854392470    0.0195394700    0.0003345584    
0.0856619080    0.0195202520    0.0003368566    
0.0858845690    0.0190217880    0.0003295330    
0.0861072300    0.0192853230    0.0003340984    
0.0863298910    0.0189497430    0.0003329131    
0.0865525520    0.0192159510    0.0003323485    
0.0867752130    0.0192238150    0.0003297342    
0.0869978740    0.0190206430    0.0003288230    
0.0872205350    0.0194712450    0.0003322719    
0.0874431960    0.0194712760    0.0003322724    
0.0876658570    0.0192382630    0.0003315464    
0.0878885180    0.0191838890    0.0003316452    
0.0881111790    0.0192719350    0.0003319788    
0.0883338400    0.0194224470    0.0003283931    
0.0885565010    0.0192625930    0.0003314738    
0.0887791620    0.0192886120    0.0003273962    
0.0890018230    0.0193643420    0.0003312201    
0.0892244840    0.0191516880    0.0003299564    
0.0894471450    0.0189676900    0.0003269805    
0.0896698060    0.0194570240    0.0003299223    
0.0898924670    0.0198185030    0.0003345163    
0.0901151280    0.0195031810    0.0003282601    
0.0903377890    0.0188534930    0.0003254474    
0.0905604500    0.0192708810    0.0003275202    
0.0907831110    0.0196625260    0.0003300085    
0.0910057720    0.0190273060    0.0003261238    
0.0912284330    0.0200721330    0.0003301624    
0.0914510940    0.0197393770    0.0003310653    
0.0916737550    0.0198293800    0.0003309957    
0.0918964160    0.0193038410    0.0003279383    
0.0921190770    0.0190165190    0.0003225456    
0.0923417380    0.0189828470    0.0003223921    
0.0925643990    0.0194294570    0.0003253644    
0.0927870600    0.0196220990    0.0003283143    
0.0930097210    0.0193108850    0.0003229263    
0.0932323820    0.0190697700    0.0003232629    
