# Diamond Light Source Ltd.
# Data extracted from: /dls/b21/data/2018/cm19678-3/processed/b21-386631_00707.dat
q(1/A)          Column          Error           
0.0035000000    2.0900505000    0.0245531720    
0.0037226610    1.8730461000    0.0227542100    
0.0039453220    1.5990628000    0.0191261220    
0.0041679830    1.2822455000    0.0140651560    
0.0043906440    0.9653418800    0.0116730630    
0.0046133050    0.7811407200    0.0100802840    
0.0048359660    0.5912556900    0.0082955174    
0.0050586270    0.4656286900    0.0072358093    
0.0052812880    0.4219733700    0.0065127413    
0.0055039490    0.3821463600    0.0058931396    
0.0057266100    0.3122312900    0.0051532858    
0.0059492710    0.2649415900    0.0047470205    
0.0061719320    0.2183748300    0.0041529338    
0.0063945930    0.1898829700    0.0039194891    
0.0066172539    0.1824754400    0.0036078971    
0.0068399149    0.1631592200    0.0033578681    
0.0070625759    0.1475765500    0.0031607424    
0.0072852369    0.1219768800    0.0028305548    
0.0075078979    0.1125208400    0.0027052657    
0.0077305589    0.1000759500    0.0025026808    
0.0079532199    0.0955565180    0.0024116290    
0.0081758809    0.0886624000    0.0023446146    
0.0083985419    0.0839790170    0.0021282688    
0.0086212029    0.0785853870    0.0020587899    
0.0088438639    0.0759481230    0.0020076927    
0.0090665249    0.0622821130    0.0017559940    
0.0092891859    0.0644001350    0.0018637369    
0.0095118469    0.0604558890    0.0017365500    
0.0097345079    0.0578256440    0.0016494704    
0.0099571689    0.0533442890    0.0015515979    
0.0101798300    0.0519001210    0.0015304511    
0.0104024910    0.0466634620    0.0014462774    
0.0106251520    0.0455818620    0.0014342715    
0.0108478130    0.0437428730    0.0013683017    
0.0110704740    0.0439951830    0.0013064675    
0.0112931350    0.0416003090    0.0012741424    
0.0115157960    0.0426208590    0.0012821566    
0.0117384570    0.0392365450    0.0012196089    
0.0119611180    0.0357255470    0.0011671028    
0.0121837790    0.0379255170    0.0011822895    
0.0124064400    0.0370296820    0.0011195444    
0.0126291010    0.0342602180    0.0010633873    
0.0128517620    0.0326071210    0.0010400056    
0.0130744230    0.0314716330    0.0010141592    
0.0132970840    0.0321678220    0.0010203014    
0.0135197450    0.0314731970    0.0009947726    
0.0137424060    0.0296246600    0.0009516812    
0.0139650670    0.0302777320    0.0009406834    
0.0141877280    0.0295017090    0.0009306024    
0.0144103890    0.0285781650    0.0009001276    
0.0146330500    0.0300079420    0.0009165134    
0.0148557110    0.0295070130    0.0009050209    
0.0150783720    0.0288028980    0.0008867679    
0.0153010330    0.0259265470    0.0008294637    
0.0155236940    0.0268515700    0.0008391115    
0.0157463550    0.0252201930    0.0007991324    
0.0159690160    0.0266374360    0.0008181624    
0.0161916770    0.0277047490    0.0008296918    
0.0164143380    0.0243675640    0.0007840135    
0.0166369990    0.0259682920    0.0007844009    
0.0168596600    0.0256756620    0.0007730968    
0.0170823210    0.0239747680    0.0007405830    
0.0173049820    0.0241495560    0.0007445627    
0.0175276430    0.0250835340    0.0007668260    
0.0177503040    0.0245110870    0.0007387014    
0.0179729650    0.0240927930    0.0007251079    
0.0181956260    0.0243745690    0.0007153537    
0.0184182870    0.0230639030    0.0006925754    
0.0186409480    0.0222405460    0.0006844055    
0.0188636090    0.0236670330    0.0007015727    
0.0190862700    0.0238211340    0.0007027525    
0.0193089310    0.0229822360    0.0006891915    
0.0195315920    0.0217927820    0.0006482962    
0.0197542530    0.0234617020    0.0006736419    
0.0199769140    0.0232682910    0.0006708597    
0.0201995750    0.0235010580    0.0006636493    
0.0204222360    0.0225908410    0.0006562559    
0.0206448970    0.0227031270    0.0006532091    
0.0208675580    0.0225168810    0.0006371285    
0.0210902190    0.0219794970    0.0006355536    
0.0213128800    0.0220308240    0.0006276613    
0.0215355410    0.0227660710    0.0006304480    
0.0217582020    0.0231152530    0.0006352646    
0.0219808630    0.0222710150    0.0006227371    
0.0222035240    0.0214417590    0.0006054965    
0.0224261850    0.0221703020    0.0006102175    
0.0226488460    0.0223845500    0.0006085545    
0.0228715070    0.0229648860    0.0006148613    
0.0230941680    0.0212363550    0.0005912690    
0.0233168290    0.0220371450    0.0006038141    
0.0235394900    0.0221521180    0.0005987059    
0.0237621510    0.0214197860    0.0005728772    
0.0239848120    0.0210240190    0.0005682167    
0.0242074730    0.0213537360    0.0005680712    
0.0244301340    0.0203725120    0.0005554992    
0.0246527950    0.0212606900    0.0005727337    
0.0248754560    0.0207433250    0.0005530079    
0.0250981170    0.0216208030    0.0005658423    
0.0253207780    0.0217845800    0.0005510230    
0.0255434390    0.0220669930    0.0005605022    
0.0257661000    0.0214218890    0.0005540350    
0.0259887610    0.0203238050    0.0005339134    
0.0262114220    0.0213348020    0.0005499464    
0.0264340830    0.0201788970    0.0005275641    
0.0266567440    0.0212380930    0.0005378888    
0.0268794050    0.0214569300    0.0005384462    
0.0271020660    0.0205598030    0.0005249359    
0.0273247270    0.0212802710    0.0005308468    
0.0275473880    0.0203911030    0.0005186041    
0.0277700490    0.0205808720    0.0005179320    
0.0279927100    0.0207868360    0.0005159756    
0.0282153710    0.0204721480    0.0005145445    
0.0284380320    0.0203888820    0.0005105204    
0.0286606930    0.0211973440    0.0005160882    
0.0288833540    0.0219464370    0.0005261255    
0.0291060150    0.0215774910    0.0005211894    
0.0293286760    0.0212985930    0.0005105947    
0.0295513370    0.0206456560    0.0004972331    
0.0297739980    0.0201602420    0.0004967626    
0.0299966590    0.0203171110    0.0004901741    
0.0302193200    0.0205483910    0.0005001400    
0.0304419810    0.0202697630    0.0004976517    
0.0306646420    0.0203647560    0.0004847378    
0.0308873030    0.0210013530    0.0004901296    
0.0311099640    0.0210185720    0.0004916037    
0.0313326250    0.0202518530    0.0004772082    
0.0315552860    0.0209070940    0.0004911505    
0.0317779470    0.0203193840    0.0004846197    
0.0320006080    0.0195721290    0.0004648188    
0.0322232690    0.0204487590    0.0004771033    
0.0324459300    0.0204516220    0.0004735745    
0.0326685910    0.0200891410    0.0004685853    
0.0328912520    0.0200243710    0.0004693785    
0.0331139130    0.0210609020    0.0004751117    
0.0333365740    0.0198494290    0.0004627422    
0.0335592350    0.0205382560    0.0004661770    
0.0337818960    0.0205795150    0.0004662734    
0.0340045570    0.0202298610    0.0004615611    
0.0342272170    0.0196213200    0.0004527729    
0.0344498780    0.0199034280    0.0004578223    
0.0346725390    0.0198019950    0.0004481971    
0.0348952000    0.0201849150    0.0004504484    
0.0351178610    0.0202483770    0.0004532209    
0.0353405220    0.0193807600    0.0004413847    
0.0355631830    0.0196440960    0.0004426997    
0.0357858440    0.0201728730    0.0004486185    
0.0360085050    0.0199938490    0.0004479729    
0.0362311660    0.0192273370    0.0004340799    
0.0364538270    0.0201542640    0.0004408530    
0.0366764880    0.0196146780    0.0004345959    
0.0368991490    0.0203325230    0.0004402464    
0.0371218100    0.0206712890    0.0004426289    
0.0373444710    0.0197486260    0.0004373491    
0.0375671320    0.0198553200    0.0004378903    
0.0377897930    0.0196928530    0.0004248058    
0.0380124540    0.0198201210    0.0004288503    
0.0382351150    0.0195603200    0.0004260305    
0.0384577760    0.0194759180    0.0004210087    
0.0386804370    0.0201439220    0.0004314354    
0.0389030980    0.0204770440    0.0004316940    
0.0391257590    0.0203166780    0.0004270812    
0.0393484200    0.0199928890    0.0004222384    
0.0395710810    0.0198143140    0.0004209148    
0.0397937420    0.0202792850    0.0004258250    
0.0400164030    0.0199848860    0.0004244425    
0.0402390640    0.0200266340    0.0004192279    
0.0404617250    0.0197736950    0.0004141145    
0.0406843860    0.0198357520    0.0004107565    
0.0409070470    0.0199211820    0.0004159282    
0.0411297080    0.0198442110    0.0004111080    
0.0413523690    0.0198696000    0.0004124312    
0.0415750300    0.0199560990    0.0004168390    
0.0417976910    0.0202261020    0.0004087959    
0.0420203520    0.0198705890    0.0004067097    
0.0422430130    0.0200129420    0.0004097092    
0.0424656740    0.0198794050    0.0004030253    
0.0426883350    0.0191117360    0.0003971283    
0.0429109960    0.0195551920    0.0004029644    
0.0431336570    0.0200653900    0.0004024362    
0.0433563180    0.0201585250    0.0004068488    
0.0435789790    0.0199039930    0.0003979207    
0.0438016400    0.0197994620    0.0003990335    
0.0440243010    0.0194548830    0.0003915327    
0.0442469620    0.0203107330    0.0004024493    
0.0444696230    0.0195240260    0.0003931632    
0.0446922840    0.0195577770    0.0003923343    
0.0449149450    0.0198351350    0.0003898245    
0.0451376060    0.0195272210    0.0003915638    
0.0453602670    0.0199809990    0.0003919350    
0.0455829280    0.0199348160    0.0003910291    
0.0458055890    0.0199351910    0.0003933130    
0.0460282500    0.0199117410    0.0003883416    
0.0462509110    0.0193132670    0.0003800823    
0.0464735720    0.0196271290    0.0003833745    
0.0466962330    0.0199797830    0.0003885617    
0.0469188940    0.0203926350    0.0003914429    
0.0471415550    0.0196233740    0.0003859610    
0.0473642160    0.0202658940    0.0003867368    
0.0475868770    0.0195827750    0.0003782743    
0.0478095380    0.0189771710    0.0003707497    
0.0480321990    0.0191549950    0.0003732988    
0.0482548600    0.0195653840    0.0003756328    
0.0484775210    0.0195954150    0.0003796535    
0.0487001820    0.0199615030    0.0003775742    
0.0489228430    0.0200613380    0.0003783138    
0.0491455040    0.0198059010    0.0003732978    
0.0493681650    0.0195751850    0.0003743064    
0.0495908260    0.0198283350    0.0003703805    
0.0498134870    0.0197281850    0.0003729609    
0.0500361480    0.0194135240    0.0003689957    
0.0502588090    0.0191831660    0.0003613040    
0.0504814700    0.0196600670    0.0003705491    
0.0507041310    0.0198295180    0.0003677181    
0.0509267920    0.0195882720    0.0003669863    
0.0511494530    0.0197281760    0.0003658388    
0.0513721140    0.0192210730    0.0003642864    
0.0515947750    0.0195281520    0.0003623165    
0.0518174360    0.0195592580    0.0003604207    
0.0520400970    0.0194789030    0.0003571857    
0.0522627580    0.0196515160    0.0003618137    
0.0524854190    0.0202161060    0.0003699582    
0.0527080800    0.0201522110    0.0003722329    
0.0529307410    0.0194813530    0.0003677036    
0.0531534020    0.0195533470    0.0003670413    
0.0533760630    0.0200434080    0.0003727756    
0.0535987240    0.0197948710    0.0003687276    
0.0538213850    0.0205303240    0.0003798657    
0.0540440460    0.0190066860    0.0003637685    
0.0542667070    0.0194248490    0.0003702827    
0.0544893680    0.0196363350    0.0003724913    
0.0547120290    0.0196609290    0.0003701711    
0.0549346900    0.0195979010    0.0003697717    
0.0551573510    0.0191978380    0.0003702863    
0.0553800120    0.0194555670    0.0003695946    
0.0556026730    0.0202341290    0.0003847321    
0.0558253340    0.0203140680    0.0003887193    
0.0560479950    0.0197338980    0.0003831283    
0.0562706560    0.0197836730    0.0003873200    
0.0564933170    0.0203602110    0.0003963351    
0.0567159780    0.0189033860    0.0003773138    
0.0569386390    0.0205032990    0.0003991205    
0.0571613000    0.0196001060    0.0003818283    
0.0573839610    0.0198319460    0.0003808909    
0.0576066220    0.0196917980    0.0003805933    
0.0578292830    0.0199343700    0.0003816632    
0.0580519440    0.0203985560    0.0003875784    
0.0582746050    0.0194380260    0.0003766748    
0.0584972660    0.0191229010    0.0003721790    
0.0587199270    0.0197272430    0.0003747556    
0.0589425880    0.0194197500    0.0003696486    
0.0591652490    0.0188872200    0.0003666903    
0.0593879100    0.0192389710    0.0003673406    
0.0596105710    0.0191494090    0.0003660980    
0.0598332320    0.0193998630    0.0003716340    
0.0600558930    0.0195328260    0.0003705278    
0.0602785540    0.0193232180    0.0003681448    
0.0605012150    0.0194374400    0.0003684533    
0.0607238760    0.0197608710    0.0003687988    
0.0609465370    0.0195488570    0.0003697028    
0.0611691980    0.0194565660    0.0003694137    
0.0613918590    0.0196035670    0.0003667583    
0.0616145200    0.0193693940    0.0003672294    
0.0618371810    0.0196051630    0.0003658291    
0.0620598420    0.0191462600    0.0003618949    
0.0622825030    0.0192850590    0.0003687587    
0.0625051640    0.0193366600    0.0003640658    
0.0627278250    0.0198851300    0.0003684327    
0.0629504860    0.0194758200    0.0003616569    
0.0631731470    0.0200364310    0.0003713635    
0.0633958080    0.0198290890    0.0003715633    
0.0636184690    0.0195334960    0.0003739196    
0.0638411300    0.0191882060    0.0003692088    
0.0640637910    0.0195743420    0.0003755280    
0.0642864520    0.0194610250    0.0003736292    
0.0645091130    0.0201028760    0.0003830683    
0.0647317740    0.0200155460    0.0003826568    
0.0649544350    0.0192123790    0.0003744883    
0.0651770960    0.0193282490    0.0003735668    
0.0653997570    0.0195392500    0.0003747858    
0.0656224180    0.0193788340    0.0003740558    
0.0658450790    0.0195692520    0.0003704863    
0.0660677400    0.0188590140    0.0003652489    
0.0662904010    0.0195510280    0.0003763294    
0.0665130620    0.0200855250    0.0003797843    
0.0667357230    0.0197498080    0.0003832928    
0.0669583840    0.0196622070    0.0003811622    
0.0671810450    0.0188976110    0.0003716145    
0.0674037060    0.0190067660    0.0003790000    
0.0676263670    0.0192731120    0.0003788521    
0.0678490280    0.0196339570    0.0003800437    
0.0680716890    0.0197953280    0.0003824515    
0.0682943500    0.0191110970    0.0003716678    
0.0685170110    0.0195096460    0.0003716966    
0.0687396720    0.0198780610    0.0003741929    
0.0689623330    0.0193673080    0.0003681838    
0.0691849940    0.0190050030    0.0003672507    
0.0694076550    0.0200835380    0.0003773262    
0.0696303160    0.0195225810    0.0003690739    
0.0698529770    0.0195520050    0.0003685779    
0.0700756380    0.0194256510    0.0003626689    
0.0702982990    0.0199410050    0.0003714497    
0.0705209600    0.0197154850    0.0003666768    
0.0707436210    0.0199605160    0.0003672540    
0.0709662820    0.0193667880    0.0003660633    
0.0711889430    0.0198390060    0.0003659486    
0.0714116040    0.0192219720    0.0003609481    
0.0716342650    0.0200948010    0.0003675537    
0.0718569260    0.0197798760    0.0003631934    
0.0720795870    0.0193418840    0.0003606026    
0.0723022480    0.0196031810    0.0003635834    
0.0725249090    0.0199593240    0.0003624777    
0.0727475700    0.0194379790    0.0003607677    
0.0729702310    0.0195179360    0.0003586257    
0.0731928920    0.0192558010    0.0003576329    
0.0734155530    0.0197678340    0.0003616336    
0.0736382140    0.0200765990    0.0003621081    
0.0738608750    0.0191724670    0.0003561466    
0.0740835360    0.0187745750    0.0003515567    
0.0743061970    0.0196317180    0.0003544301    
0.0745288580    0.0196260570    0.0003580229    
0.0747515190    0.0196315290    0.0003587800    
0.0749741800    0.0202287550    0.0003608253    
0.0751968410    0.0193970420    0.0003561039    
0.0754195020    0.0193190310    0.0003533050    
0.0756421630    0.0195510910    0.0003525152    
0.0758648240    0.0192173010    0.0003503332    
0.0760874850    0.0196837650    0.0003543893    
0.0763101460    0.0191874980    0.0003495576    
0.0765328070    0.0196081710    0.0003569846    
0.0767554680    0.0193365550    0.0003520979    
0.0769781290    0.0198564860    0.0003547498    
0.0772007900    0.0195891510    0.0003495277    
0.0774234510    0.0198946290    0.0003542460    
0.0776461120    0.0192902850    0.0003484932    
0.0778687730    0.0189503980    0.0003442683    
0.0780914340    0.0196916330    0.0003534442    
0.0783140950    0.0197783250    0.0003486013    
0.0785367560    0.0200659820    0.0003567885    
0.0787594170    0.0201067950    0.0003539512    
0.0789820780    0.0203884730    0.0003545955    
0.0792047390    0.0192867160    0.0003460092    
0.0794274000    0.0191562680    0.0003462982    
0.0796500610    0.0196251460    0.0003470896    
0.0798727220    0.0194970220    0.0003456354    
0.0800953830    0.0191695830    0.0003419326    
0.0803180440    0.0194499610    0.0003468234    
0.0805407050    0.0193952840    0.0003460135    
0.0807633660    0.0197413040    0.0003487623    
0.0809860270    0.0198648800    0.0003485603    
0.0812086880    0.0197153760    0.0003442454    
0.0814313490    0.0196711860    0.0003454276    
0.0816540100    0.0197507870    0.0003453378    
0.0818766710    0.0192769690    0.0003419494    
0.0820993320    0.0193880810    0.0003423085    
0.0823219930    0.0198103670    0.0003474434    
0.0825446540    0.0200400130    0.0003469125    
0.0827673150    0.0194102260    0.0003391241    
0.0829899760    0.0186681340    0.0003319862    
0.0832126370    0.0192408090    0.0003385494    
0.0834352980    0.0196945220    0.0003417520    
0.0836579590    0.0192940330    0.0003375064    
0.0838806200    0.0196110250    0.0003413324    
0.0841032810    0.0192392170    0.0003359825    
0.0843259420    0.0201063960    0.0003424133    
0.0845486030    0.0192900400    0.0003353902    
0.0847712640    0.0200637240    0.0003399655    
0.0849939250    0.0193012630    0.0003340239    
0.0852165860    0.0198097240    0.0003388382    
0.0854392470    0.0198627890    0.0003360787    
0.0856619080    0.0194986040    0.0003354358    
0.0858845690    0.0192792990    0.0003305401    
0.0861072300    0.0200232830    0.0003391829    
0.0863298910    0.0197051960    0.0003382399    
0.0865525520    0.0196288360    0.0003346689    
0.0867752130    0.0195435310    0.0003312463    
0.0869978740    0.0200608560    0.0003364571    
0.0872205350    0.0196102070    0.0003322333    
0.0874431960    0.0190023430    0.0003270438    
0.0876658570    0.0195228940    0.0003327659    
0.0878885180    0.0191175100    0.0003298575    
0.0881111790    0.0193977340    0.0003318398    
0.0883338400    0.0196992310    0.0003295126    
0.0885565010    0.0193764540    0.0003312335    
0.0887791620    0.0200687190    0.0003327272    
0.0890018230    0.0195375940    0.0003314791    
0.0892244840    0.0194686450    0.0003314562    
0.0894471450    0.0193996460    0.0003294708    
0.0896698060    0.0189592410    0.0003244809    
0.0898924670    0.0191242030    0.0003274001    
0.0901151280    0.0195798590    0.0003276993    
0.0903377890    0.0193178300    0.0003282233    
0.0905604500    0.0191022490    0.0003248888    
0.0907831110    0.0201729430    0.0003330392    
0.0910057720    0.0197204020    0.0003307936    
0.0912284330    0.0197904900    0.0003266362    
0.0914510940    0.0197162080    0.0003296582    
0.0916737550    0.0196458960    0.0003282533    
0.0918964160    0.0197985840    0.0003308968    
0.0921190770    0.0193824370    0.0003244405    
0.0923417380    0.0185287060    0.0003173450    
0.0925643990    0.0190547190    0.0003210305    
0.0927870600    0.0200292900    0.0003304875    
0.0930097210    0.0193464890    0.0003220392    
0.0932323820    0.0190553510    0.0003219563    
