# Diamond Light Source Ltd.
# Data extracted from: /dls/b21/data/2018/cm19678-3/processed/b21-386631_00709.dat
q(1/A)          Column          Error           
0.0035000000    2.0476223000    0.0242649470    
0.0037226610    1.8812884000    0.0227688150    
0.0039453220    1.6360633000    0.0193160990    
0.0041679830    1.2696540000    0.0139741970    
0.0043906440    0.9744481400    0.0117097830    
0.0046133050    0.7947971300    0.0101522310    
0.0048359660    0.5800229300    0.0082035834    
0.0050586270    0.4581308600    0.0071661720    
0.0052812880    0.4282797500    0.0065510404    
0.0055039490    0.3776991700    0.0058496527    
0.0057266100    0.3185544200    0.0051971235    
0.0059492710    0.2670023900    0.0047580480    
0.0061719320    0.2208466000    0.0041698870    
0.0063945930    0.1981657000    0.0039978446    
0.0066172539    0.1866738900    0.0036435013    
0.0068399149    0.1649953000    0.0033714662    
0.0070625759    0.1403026100    0.0030770780    
0.0072852369    0.1272952800    0.0028871155    
0.0075078979    0.1108101000    0.0026804537    
0.0077305589    0.0973945260    0.0024650918    
0.0079532199    0.1023590300    0.0024921181    
0.0081758809    0.0900561560    0.0023593025    
0.0083985419    0.0789330060    0.0020601347    
0.0086212029    0.0760294870    0.0020218892    
0.0088438639    0.0743897570    0.0019839032    
0.0090665249    0.0657411550    0.0018012965    
0.0092891859    0.0646304720    0.0018641682    
0.0095118469    0.0622076380    0.0017587943    
0.0097345079    0.0573178920    0.0016396630    
0.0099571689    0.0542135570    0.0015617603    
0.0101798300    0.0506593170    0.0015096982    
0.0104024910    0.0469208570    0.0014480091    
0.0106251520    0.0458903390    0.0014368823    
0.0108478130    0.0460392520    0.0014015788    
0.0110704740    0.0433172130    0.0012943493    
0.0112931350    0.0415490420    0.0012713800    
0.0115157960    0.0407583120    0.0012518816    
0.0117384570    0.0381700030    0.0012010511    
0.0119611180    0.0371350720    0.0011880562    
0.0121837790    0.0372934520    0.0011705758    
0.0124064400    0.0371847330    0.0011201440    
0.0126291010    0.0349765080    0.0010727779    
0.0128517620    0.0322744730    0.0010330807    
0.0130744230    0.0341106570    0.0010541848    
0.0132970840    0.0318744440    0.0010140612    
0.0135197450    0.0315949530    0.0009951475    
0.0137424060    0.0304775470    0.0009637847    
0.0139650670    0.0300381140    0.0009354990    
0.0141877280    0.0300539780    0.0009378141    
0.0144103890    0.0305527220    0.0009292596    
0.0146330500    0.0293567230    0.0009051066    
0.0148557110    0.0292771010    0.0009000885    
0.0150783720    0.0291217800    0.0008902788    
0.0153010330    0.0279889230    0.0008604851    
0.0155236940    0.0268466790    0.0008377325    
0.0157463550    0.0269341890    0.0008245589    
0.0159690160    0.0248011700    0.0007882329    
0.0161916770    0.0277921800    0.0008297097    
0.0164143380    0.0261779790    0.0008113547    
0.0166369990    0.0253444550    0.0007737187    
0.0168596600    0.0255031740    0.0007692994    
0.0170823210    0.0253143340    0.0007598100    
0.0173049820    0.0248984730    0.0007548459    
0.0175276430    0.0256366920    0.0007740316    
0.0177503040    0.0248567120    0.0007427363    
0.0179729650    0.0249535250    0.0007368010    
0.0181956260    0.0238384960    0.0007063452    
0.0184182870    0.0244436170    0.0007118829    
0.0186409480    0.0226754390    0.0006899916    
0.0188636090    0.0236350660    0.0007000102    
0.0190862700    0.0231685270    0.0006919833    
0.0193089310    0.0234054090    0.0006944277    
0.0195315920    0.0237823270    0.0006761912    
0.0197542530    0.0240444900    0.0006808985    
0.0199769140    0.0223284120    0.0006561506    
0.0201995750    0.0231105340    0.0006570904    
0.0204222360    0.0229958690    0.0006610848    
0.0206448970    0.0233821120    0.0006618757    
0.0208675580    0.0226087650    0.0006374359    
0.0210902190    0.0215998520    0.0006290626    
0.0213128800    0.0214811480    0.0006188194    
0.0215355410    0.0228868840    0.0006311372    
0.0217582020    0.0226606340    0.0006280100    
0.0219808630    0.0222192720    0.0006210475    
0.0222035240    0.0222445590    0.0006157700    
0.0224261850    0.0216326940    0.0006018377    
0.0226488460    0.0230902710    0.0006171134    
0.0228715070    0.0221058940    0.0006023159    
0.0230941680    0.0216628010    0.0005962490    
0.0233168290    0.0212760610    0.0005923745    
0.0235394900    0.0214865370    0.0005887275    
0.0237621510    0.0219490200    0.0005790109    
0.0239848120    0.0206219770    0.0005618838    
0.0242074730    0.0218900990    0.0005742684    
0.0244301340    0.0218645870    0.0005745886    
0.0246527950    0.0223790440    0.0005866918    
0.0248754560    0.0205613860    0.0005497225    
0.0250981170    0.0211551230    0.0005588464    
0.0253207780    0.0200218690    0.0005274395    
0.0255434390    0.0209624650    0.0005454464    
0.0257661000    0.0216839680    0.0005565483    
0.0259887610    0.0204145540    0.0005342733    
0.0262114220    0.0210142300    0.0005449517    
0.0264340830    0.0209962890    0.0005373076    
0.0266567440    0.0204660050    0.0005272013    
0.0268794050    0.0203666350    0.0005237733    
0.0271020660    0.0201486220    0.0005188534    
0.0273247270    0.0214650660    0.0005323190    
0.0275473880    0.0219451200    0.0005371676    
0.0277700490    0.0198153570    0.0005074193    
0.0279927100    0.0203520710    0.0005097585    
0.0282153710    0.0202023500    0.0005103492    
0.0284380320    0.0206059740    0.0005124342    
0.0286606930    0.0208184220    0.0005106605    
0.0288833540    0.0196779350    0.0004974190    
0.0291060150    0.0204187000    0.0005062142    
0.0293286760    0.0206345830    0.0005017922    
0.0295513370    0.0198891780    0.0004872808    
0.0297739980    0.0203173370    0.0004979201    
0.0299966590    0.0205370170    0.0004920546    
0.0302193200    0.0205089060    0.0004988835    
0.0304419810    0.0200485290    0.0004941600    
0.0306646420    0.0203820860    0.0004841911    
0.0308873030    0.0197388600    0.0004744315    
0.0311099640    0.0208043450    0.0004883326    
0.0313326250    0.0205477340    0.0004799353    
0.0315552860    0.0204396430    0.0004848748    
0.0317779470    0.0201872040    0.0004822910    
0.0320006080    0.0196654680    0.0004652025    
0.0322232690    0.0200745940    0.0004719842    
0.0324459300    0.0198415670    0.0004657337    
0.0326685910    0.0194057390    0.0004598310    
0.0328912520    0.0200499870    0.0004689494    
0.0331139130    0.0199163950    0.0004613046    
0.0333365740    0.0198308590    0.0004618076    
0.0335592350    0.0204534350    0.0004644910    
0.0337818960    0.0193571810    0.0004515121    
0.0340045570    0.0198311510    0.0004562805    
0.0342272170    0.0200916340    0.0004574558    
0.0344498780    0.0202721010    0.0004613257    
0.0346725390    0.0201551880    0.0004514745    
0.0348952000    0.0208939080    0.0004575796    
0.0351178610    0.0196495630    0.0004457758    
0.0353405220    0.0199719960    0.0004473710    
0.0355631830    0.0197024950    0.0004426689    
0.0357858440    0.0199909330    0.0004458975    
0.0360085050    0.0198017360    0.0004451233    
0.0362311660    0.0194021470    0.0004353717    
0.0364538270    0.0198513990    0.0004368487    
0.0366764880    0.0204177580    0.0004427151    
0.0368991490    0.0203264530    0.0004394973    
0.0371218100    0.0205504610    0.0004406481    
0.0373444710    0.0197356280    0.0004365264    
0.0375671320    0.0206890520    0.0004462954    
0.0377897930    0.0209289640    0.0004372554    
0.0380124540    0.0196106200    0.0004259155    
0.0382351150    0.0203969090    0.0004343702    
0.0384577760    0.0195515790    0.0004211707    
0.0386804370    0.0196761080    0.0004257342    
0.0389030980    0.0194880970    0.0004204867    
0.0391257590    0.0197971960    0.0004209312    
0.0393484200    0.0198064000    0.0004196120    
0.0395710810    0.0200915580    0.0004231912    
0.0397937420    0.0196637120    0.0004186612    
0.0400164030    0.0207226690    0.0004315350    
0.0402390640    0.0194570730    0.0004125818    
0.0404617250    0.0202570260    0.0004184943    
0.0406843860    0.0203847320    0.0004157553    
0.0409070470    0.0202489410    0.0004186848    
0.0411297080    0.0196383030    0.0004083346    
0.0413523690    0.0202431960    0.0004156442    
0.0415750300    0.0202153340    0.0004188863    
0.0417976910    0.0203527890    0.0004094374    
0.0420203520    0.0196429630    0.0004037457    
0.0422430130    0.0199675700    0.0004086091    
0.0424656740    0.0196873990    0.0004004516    
0.0426883350    0.0193897220    0.0003993850    
0.0429109960    0.0197263000    0.0004040951    
0.0431336570    0.0199065760    0.0004002181    
0.0433563180    0.0202269510    0.0004069059    
0.0435789790    0.0195091530    0.0003933425    
0.0438016400    0.0200186280    0.0004006130    
0.0440243010    0.0197165840    0.0003935454    
0.0442469620    0.0198184340    0.0003969248    
0.0444696230    0.0201343290    0.0003986410    
0.0446922840    0.0197795470    0.0003939399    
0.0449149450    0.0198194170    0.0003890650    
0.0451376060    0.0196623170    0.0003923059    
0.0453602670    0.0199190030    0.0003907189    
0.0455829280    0.0199494280    0.0003905651    
0.0458055890    0.0197573000    0.0003909463    
0.0460282500    0.0193138830    0.0003818733    
0.0462509110    0.0199841050    0.0003860267    
0.0464735720    0.0201335850    0.0003876865    
0.0466962330    0.0205807130    0.0003937496    
0.0469188940    0.0197525890    0.0003846529    
0.0471415550    0.0198197890    0.0003872855    
0.0473642160    0.0196880070    0.0003805911    
0.0475868770    0.0204835470    0.0003862758    
0.0478095380    0.0194165200    0.0003744346    
0.0480321990    0.0198715690    0.0003796268    
0.0482548600    0.0196700320    0.0003760512    
0.0484775210    0.0197399340    0.0003804593    
0.0487001820    0.0192018370    0.0003697450    
0.0489228430    0.0194656890    0.0003720766    
0.0491455040    0.0198987570    0.0003735909    
0.0493681650    0.0202779020    0.0003803741    
0.0495908260    0.0196702550    0.0003683284    
0.0498134870    0.0194912510    0.0003701389    
0.0500361480    0.0189197980    0.0003637078    
0.0502588090    0.0194696220    0.0003634265    
0.0504814700    0.0204067020    0.0003769336    
0.0507041310    0.0195164740    0.0003642376    
0.0509267920    0.0198976190    0.0003692986    
0.0511494530    0.0196060970    0.0003641389    
0.0513721140    0.0205655050    0.0003762262    
0.0515947750    0.0202181180    0.0003680892    
0.0518174360    0.0196442310    0.0003606420    
0.0520400970    0.0194707010    0.0003565560    
0.0522627580    0.0198628180    0.0003631890    
0.0524854190    0.0197011790    0.0003646491    
0.0527080800    0.0193768460    0.0003644351    
0.0529307410    0.0191925890    0.0003644016    
0.0531534020    0.0200009440    0.0003706422    
0.0533760630    0.0198360770    0.0003702668    
0.0535987240    0.0198430070    0.0003686025    
0.0538213850    0.0200041810    0.0003743844    
0.0540440460    0.0195029580    0.0003679149    
0.0542667070    0.0197304790    0.0003726050    
0.0544893680    0.0195472330    0.0003710682    
0.0547120290    0.0202669220    0.0003752490    
0.0549346900    0.0201074190    0.0003739661    
0.0551573510    0.0206904080    0.0003838144    
0.0553800120    0.0195211910    0.0003696426    
0.0556026730    0.0198285950    0.0003802659    
0.0558253340    0.0198654460    0.0003838062    
0.0560479950    0.0199841100    0.0003849510    
0.0562706560    0.0196844940    0.0003857481    
0.0564933170    0.0198740240    0.0003909665    
0.0567159780    0.0200910380    0.0003883822    
0.0569386390    0.0196341780    0.0003899633    
0.0571613000    0.0188274240    0.0003736453    
0.0573839610    0.0198141690    0.0003801290    
0.0576066220    0.0190807180    0.0003740598    
0.0578292830    0.0187798220    0.0003698708    
0.0580519440    0.0193368540    0.0003767714    
0.0582746050    0.0192249060    0.0003740226    
0.0584972660    0.0189119260    0.0003695456    
0.0587199270    0.0205531710    0.0003819263    
0.0589425880    0.0191139950    0.0003661577    
0.0591652490    0.0189776570    0.0003669965    
0.0593879100    0.0197176680    0.0003713052    
0.0596105710    0.0193760640    0.0003676864    
0.0598332320    0.0193254770    0.0003703449    
0.0600558930    0.0194021520    0.0003687130    
0.0602785540    0.0191443980    0.0003658685    
0.0605012150    0.0194676460    0.0003681670    
0.0607238760    0.0190339870    0.0003613903    
0.0609465370    0.0193906210    0.0003676319    
0.0611691980    0.0190605750    0.0003650674    
0.0613918590    0.0194401390    0.0003646593    
0.0616145200    0.0199409090    0.0003720293    
0.0618371810    0.0188297950    0.0003579654    
0.0620598420    0.0199256120    0.0003686138    
0.0622825030    0.0196329240    0.0003714920    
0.0625051640    0.0196114940    0.0003660747    
0.0627278250    0.0208442060    0.0003766274    
0.0629504860    0.0194421720    0.0003607833    
0.0631731470    0.0200360180    0.0003707832    
0.0633958080    0.0204200060    0.0003764736    
0.0636184690    0.0194372110    0.0003724178    
0.0638411300    0.0195040200    0.0003716569    
0.0640637910    0.0195423360    0.0003746383    
0.0642864520    0.0196509270    0.0003748648    
0.0645091130    0.0193273690    0.0003750237    
0.0647317740    0.0196179690    0.0003782491    
0.0649544350    0.0190727230    0.0003725454    
0.0651770960    0.0199664570    0.0003790948    
0.0653997570    0.0196147900    0.0003749266    
0.0656224180    0.0188076680    0.0003679300    
0.0658450790    0.0200469410    0.0003743987    
0.0660677400    0.0192518240    0.0003684602    
0.0662904010    0.0193892680    0.0003741875    
0.0665130620    0.0199516170    0.0003779285    
0.0667357230    0.0188060680    0.0003734422    
0.0669583840    0.0199253090    0.0003831082    
0.0671810450    0.0198443060    0.0003802177    
0.0674037060    0.0190608020    0.0003789491    
0.0676263670    0.0200819210    0.0003861194    
0.0678490280    0.0187516890    0.0003708301    
0.0680716890    0.0195718530    0.0003796961    
0.0682943500    0.0199308930    0.0003789664    
0.0685170110    0.0199432820    0.0003752212    
0.0687396720    0.0195565670    0.0003705783    
0.0689623330    0.0195514350    0.0003693555    
0.0691849940    0.0195332350    0.0003717414    
0.0694076550    0.0199505530    0.0003754910    
0.0696303160    0.0193507170    0.0003668753    
0.0698529770    0.0193597360    0.0003661917    
0.0700756380    0.0198986190    0.0003664875    
0.0702982990    0.0191893640    0.0003638162    
0.0705209600    0.0199262510    0.0003680592    
0.0707436210    0.0198851110    0.0003659905    
0.0709662820    0.0191687440    0.0003636214    
0.0711889430    0.0201139170    0.0003679033    
0.0714116040    0.0195677400    0.0003636147    
0.0716342650    0.0189936330    0.0003567863    
0.0718569260    0.0196719670    0.0003616390    
0.0720795870    0.0189601720    0.0003564723    
0.0723022480    0.0194684100    0.0003617689    
0.0725249090    0.0191427120    0.0003544339    
0.0727475700    0.0198048720    0.0003635911    
0.0729702310    0.0198449480    0.0003610560    
0.0731928920    0.0187590290    0.0003524415    
0.0734155530    0.0192580250    0.0003563857    
0.0736382140    0.0190572140    0.0003522476    
0.0738608750    0.0200890750    0.0003639946    
0.0740835360    0.0196678890    0.0003592646    
0.0743061970    0.0193858150    0.0003516566    
0.0745288580    0.0196237600    0.0003574461    
0.0747515190    0.0199366690    0.0003609962    
0.0749741800    0.0190174970    0.0003493126    
0.0751968410    0.0190892010    0.0003527183    
0.0754195020    0.0197164120    0.0003563660    
0.0756421630    0.0194334030    0.0003509070    
0.0758648240    0.0194569140    0.0003519632    
0.0760874850    0.0191074770    0.0003486209    
0.0763101460    0.0195596610    0.0003523834    
0.0765328070    0.0193723980    0.0003542809    
0.0767554680    0.0192126440    0.0003504230    
0.0769781290    0.0195990140    0.0003518952    
0.0772007900    0.0193791570    0.0003471095    
0.0774234510    0.0192606770    0.0003480151    
0.0776461120    0.0197701900    0.0003522537    
0.0778687730    0.0194527370    0.0003482599    
0.0780914340    0.0197633440    0.0003535375    
0.0783140950    0.0189574360    0.0003407605    
0.0785367560    0.0195546980    0.0003516668    
0.0787594170    0.0193300910    0.0003465087    
0.0789820780    0.0196366390    0.0003474559    
0.0792047390    0.0194744040    0.0003471489    
0.0794274000    0.0195149640    0.0003489826    
0.0796500610    0.0191787220    0.0003425864    
0.0798727220    0.0193754450    0.0003440211    
0.0800953830    0.0192499500    0.0003421166    
0.0803180440    0.0192971350    0.0003449218    
0.0805407050    0.0197781760    0.0003488697    
0.0807633660    0.0198151840    0.0003488719    
0.0809860270    0.0194557120    0.0003444163    
0.0812086880    0.0190190380    0.0003375865    
0.0814313490    0.0199790140    0.0003475794    
0.0816540100    0.0198038750    0.0003452647    
0.0818766710    0.0194469420    0.0003429204    
0.0820993320    0.0192737010    0.0003407674    
0.0823219930    0.0190867570    0.0003405094    
0.0825446540    0.0191037670    0.0003381860    
0.0827673150    0.0194267870    0.0003387420    
0.0829899760    0.0195165920    0.0003389196    
0.0832126370    0.0195611700    0.0003408262    
0.0834352980    0.0197280050    0.0003415113    
0.0836579590    0.0196108480    0.0003397378    
0.0838806200    0.0194494940    0.0003393960    
0.0841032810    0.0191795230    0.0003349401    
0.0843259420    0.0190150700    0.0003324740    
0.0845486030    0.0192418140    0.0003344506    
0.0847712640    0.0192836460    0.0003327736    
0.0849939250    0.0194315430    0.0003346289    
0.0852165860    0.0195691500    0.0003362516    
0.0854392470    0.0191379100    0.0003293770    
0.0856619080    0.0195761680    0.0003355805    
0.0858845690    0.0190217500    0.0003278151    
0.0861072300    0.0199668850    0.0003381790    
0.0863298910    0.0189958140    0.0003315802    
0.0865525520    0.0197158300    0.0003348889    
0.0867752130    0.0192702100    0.0003284112    
0.0869978740    0.0196217040    0.0003322374    
0.0872205350    0.0197345310    0.0003327673    
0.0874431960    0.0191229420    0.0003275706    
0.0876658570    0.0191117490    0.0003287321    
0.0878885180    0.0188766320    0.0003272639    
0.0881111790    0.0193205700    0.0003306650    
0.0883338400    0.0199293300    0.0003309169    
0.0885565010    0.0186841220    0.0003247571    
0.0887791620    0.0199679560    0.0003313756    
0.0890018230    0.0195947110    0.0003314479    
0.0892244840    0.0199932990    0.0003353712    
0.0894471450    0.0194342820    0.0003292528    
0.0896698060    0.0190222110    0.0003245147    
0.0898924670    0.0190201650    0.0003260014    
0.0901151280    0.0195355110    0.0003268197    
0.0903377890    0.0195191860    0.0003294172    
0.0905604500    0.0194065420    0.0003269579    
0.0907831110    0.0190470080    0.0003231092    
0.0910057720    0.0187077840    0.0003216885    
0.0912284330    0.0190304260    0.0003198052    
0.0914510940    0.0198858170    0.0003305591    
0.0916737550    0.0195958750    0.0003273261    
0.0918964160    0.0195166270    0.0003280221    
0.0921190770    0.0191382250    0.0003218896    
0.0923417380    0.0190455640    0.0003212411    
0.0925643990    0.0195401780    0.0003245895    
0.0927870600    0.0197823140    0.0003279337    
0.0930097210    0.0189818540    0.0003184947    
0.0932323820    0.0196361230    0.0003263183    
