# Diamond Light Source Ltd.
# Data extracted from: /dls/b21/data/2018/cm19678-3/processed/b21-386631_00704.dat
q(1/A)          Column          Error           
0.0035000000    2.0352492000    0.0243206700    
0.0037226610    1.8175951000    0.0224995390    
0.0039453220    1.6014861000    0.0192129150    
0.0041679830    1.2630377000    0.0140121450    
0.0043906440    0.9686668700    0.0117373220    
0.0046133050    0.7883642400    0.0101650400    
0.0048359660    0.5761471400    0.0082197768    
0.0050586270    0.4645081900    0.0072543992    
0.0052812880    0.4242560000    0.0065550018    
0.0055039490    0.3896173800    0.0059729453    
0.0057266100    0.3241928200    0.0052709055    
0.0059492710    0.2627479000    0.0047451853    
0.0061719320    0.2242453500    0.0042242826    
0.0063945930    0.1945809700    0.0039826684    
0.0066172539    0.1834973100    0.0036316526    
0.0068399149    0.1678757100    0.0034189226    
0.0070625759    0.1489664700    0.0031875881    
0.0072852369    0.1275329300    0.0029052365    
0.0075078979    0.1087852400    0.0026700288    
0.0077305589    0.0991308440    0.0025002448    
0.0079532199    0.0998979950    0.0024751198    
0.0081758809    0.0893335320    0.0023623622    
0.0083985419    0.0799410540    0.0020843159    
0.0086212029    0.0780390020    0.0020593705    
0.0088438639    0.0724588990    0.0019684395    
0.0090665249    0.0669936640    0.0018280822    
0.0092891859    0.0604856900    0.0018130303    
0.0095118469    0.0598078200    0.0017337421    
0.0097345079    0.0585952060    0.0016666824    
0.0099571689    0.0561581030    0.0015980080    
0.0101798300    0.0489280410    0.0014915976    
0.0104024910    0.0499524020    0.0015020307    
0.0106251520    0.0478367260    0.0014748695    
0.0108478130    0.0454539930    0.0014000764    
0.0110704740    0.0446800170    0.0013215701    
0.0112931350    0.0428195660    0.0012975626    
0.0115157960    0.0401842140    0.0012496696    
0.0117384570    0.0385786300    0.0012139090    
0.0119611180    0.0403754180    0.0012454195    
0.0121837790    0.0365414900    0.0011649002    
0.0124064400    0.0357070820    0.0011035221    
0.0126291010    0.0336216450    0.0010574099    
0.0128517620    0.0315170570    0.0010263366    
0.0130744230    0.0331586990    0.0010449193    
0.0132970840    0.0326395660    0.0010316380    
0.0135197450    0.0311411980    0.0009932500    
0.0137424060    0.0312350770    0.0009808974    
0.0139650670    0.0306541540    0.0009500883    
0.0141877280    0.0297250230    0.0009376466    
0.0144103890    0.0286516580    0.0009046890    
0.0146330500    0.0302632930    0.0009238816    
0.0148557110    0.0298142730    0.0009131573    
0.0150783720    0.0306438930    0.0009181240    
0.0153010330    0.0278607530    0.0008630958    
0.0155236940    0.0281116520    0.0008618180    
0.0157463550    0.0265336770    0.0008227744    
0.0159690160    0.0262060720    0.0008145763    
0.0161916770    0.0263372310    0.0008120116    
0.0164143380    0.0268903020    0.0008267093    
0.0166369990    0.0263558440    0.0007932177    
0.0168596600    0.0257527430    0.0007771813    
0.0170823210    0.0238796470    0.0007419045    
0.0173049820    0.0246561720    0.0007551740    
0.0175276430    0.0239506850    0.0007521405    
0.0177503040    0.0235302080    0.0007265040    
0.0179729650    0.0237694310    0.0007229461    
0.0181956260    0.0240725450    0.0007135935    
0.0184182870    0.0249986600    0.0007237632    
0.0186409480    0.0243824080    0.0007193108    
0.0188636090    0.0240138170    0.0007093636    
0.0190862700    0.0247952300    0.0007196856    
0.0193089310    0.0229271370    0.0006909652    
0.0195315920    0.0236482950    0.0006778827    
0.0197542530    0.0228207870    0.0006668869    
0.0199769140    0.0229572140    0.0006688774    
0.0201995750    0.0231879990    0.0006617045    
0.0204222360    0.0220703440    0.0006511021    
0.0206448970    0.0233294490    0.0006646593    
0.0208675580    0.0221605560    0.0006344549    
0.0210902190    0.0223865870    0.0006438352    
0.0213128800    0.0232426030    0.0006471276    
0.0215355410    0.0220588600    0.0006229229    
0.0217582020    0.0216718710    0.0006174347    
0.0219808630    0.0218255330    0.0006188062    
0.0222035240    0.0210699920    0.0006024918    
0.0224261850    0.0216442850    0.0006052126    
0.0226488460    0.0216538320    0.0006008004    
0.0228715070    0.0216956590    0.0005998864    
0.0230941680    0.0208497360    0.0005880753    
0.0233168290    0.0216538580    0.0006008011    
0.0235394900    0.0205426930    0.0005787248    
0.0237621510    0.0210261660    0.0005697332    
0.0239848120    0.0210129530    0.0005702131    
0.0242074730    0.0229162330    0.0005907109    
0.0244301340    0.0214118890    0.0005716447    
0.0246527950    0.0206598970    0.0005667162    
0.0248754560    0.0212568510    0.0005619260    
0.0250981170    0.0213368360    0.0005642376    
0.0253207780    0.0212613640    0.0005464220    
0.0255434390    0.0208712990    0.0005471646    
0.0257661000    0.0204146060    0.0005428956    
0.0259887610    0.0215658300    0.0005520634    
0.0262114220    0.0209535320    0.0005470691    
0.0264340830    0.0206512780    0.0005357196    
0.0266567440    0.0214812120    0.0005430022    
0.0268794050    0.0225315000    0.0005538487    
0.0271020660    0.0208369690    0.0005304587    
0.0273247270    0.0207475440    0.0005261402    
0.0275473880    0.0208378210    0.0005262345    
0.0277700490    0.0205396680    0.0005193678    
0.0279927100    0.0203505710    0.0005124609    
0.0282153710    0.0205098390    0.0005169635    
0.0284380320    0.0213804000    0.0005247613    
0.0286606930    0.0208134080    0.0005133249    
0.0288833540    0.0208290160    0.0005144928    
0.0291060150    0.0214871370    0.0005220617    
0.0293286760    0.0202758240    0.0005000663    
0.0295513370    0.0213328420    0.0005073499    
0.0297739980    0.0201031800    0.0004979331    
0.0299966590    0.0198393780    0.0004862067    
0.0302193200    0.0206180750    0.0005028799    
0.0304419810    0.0199061530    0.0004950309    
0.0306646420    0.0213908160    0.0004986760    
0.0308873030    0.0198118710    0.0004778456    
0.0311099640    0.0205636590    0.0004880915    
0.0313326250    0.0205297790    0.0004822866    
0.0315552860    0.0197865490    0.0004796123    
0.0317779470    0.0200073630    0.0004827011    
0.0320006080    0.0200094670    0.0004717587    
0.0322232690    0.0202109910    0.0004761132    
0.0324459300    0.0213909120    0.0004861571    
0.0326685910    0.0213534820    0.0004849308    
0.0328912520    0.0198212040    0.0004687554    
0.0331139130    0.0193952670    0.0004576596    
0.0333365740    0.0201409820    0.0004678891    
0.0335592350    0.0199367640    0.0004610350    
0.0337818960    0.0195750530    0.0004564698    
0.0340045570    0.0194917000    0.0004547735    
0.0342272170    0.0205488470    0.0004651013    
0.0344498780    0.0198843170    0.0004593311    
0.0346725390    0.0209229060    0.0004624482    
0.0348952000    0.0198009040    0.0004478284    
0.0351178610    0.0199723540    0.0004518216    
0.0353405220    0.0200440090    0.0004505694    
0.0355631830    0.0196822180    0.0004448030    
0.0357858440    0.0199335360    0.0004476339    
0.0360085050    0.0203676800    0.0004538495    
0.0362311660    0.0199850690    0.0004442223    
0.0364538270    0.0206274560    0.0004476831    
0.0366764880    0.0198019600    0.0004383153    
0.0368991490    0.0200638320    0.0004389799    
0.0371218100    0.0200733400    0.0004378277    
0.0373444710    0.0199859420    0.0004416311    
0.0375671320    0.0193342200    0.0004337383    
0.0377897930    0.0199711820    0.0004294133    
0.0380124540    0.0198018620    0.0004302720    
0.0382351150    0.0201571500    0.0004341150    
0.0384577760    0.0199626230    0.0004278469    
0.0386804370    0.0195329590    0.0004264472    
0.0389030980    0.0202560840    0.0004309805    
0.0391257590    0.0204071460    0.0004296479    
0.0393484200    0.0194883260    0.0004184511    
0.0395710810    0.0201444820    0.0004260104    
0.0397937420    0.0199012490    0.0004234308    
0.0400164030    0.0203813930    0.0004302515    
0.0402390640    0.0201959100    0.0004225863    
0.0404617250    0.0196175310    0.0004140342    
0.0406843860    0.0197287910    0.0004111950    
0.0409070470    0.0192844970    0.0004107736    
0.0411297080    0.0199257720    0.0004135081    
0.0413523690    0.0197094820    0.0004123178    
0.0415750300    0.0201597930    0.0004205436    
0.0417976910    0.0204957520    0.0004130664    
0.0420203520    0.0199622880    0.0004091870    
0.0422430130    0.0183981410    0.0003943163    
0.0424656740    0.0198323010    0.0004040682    
0.0426883350    0.0200545960    0.0004083431    
0.0429109960    0.0195107850    0.0004040271    
0.0431336570    0.0202010100    0.0004053193    
0.0433563180    0.0193348590    0.0003999555    
0.0435789790    0.0199504560    0.0003998899    
0.0438016400    0.0196900420    0.0003994326    
0.0440243010    0.0198800230    0.0003972828    
0.0442469620    0.0195967240    0.0003968054    
0.0444696230    0.0196079960    0.0003954962    
0.0446922840    0.0194679220    0.0003929107    
0.0449149450    0.0196996640    0.0003899586    
0.0451376060    0.0196987660    0.0003947656    
0.0453602670    0.0197681760    0.0003913148    
0.0455829280    0.0196297460    0.0003894914    
0.0458055890    0.0198280760    0.0003937367    
0.0460282500    0.0197037970    0.0003877678    
0.0462509110    0.0194896050    0.0003832558    
0.0464735720    0.0192022700    0.0003806350    
0.0466962330    0.0199635160    0.0003898708    
0.0469188940    0.0198656300    0.0003878113    
0.0471415550    0.0200625640    0.0003917304    
0.0473642160    0.0196162070    0.0003819246    
0.0475868770    0.0195469490    0.0003793558    
0.0478095380    0.0195951910    0.0003781615    
0.0480321990    0.0185376660    0.0003686215    
0.0482548600    0.0199169410    0.0003804242    
0.0484775210    0.0195955160    0.0003810886    
0.0487001820    0.0195513200    0.0003750864    
0.0489228430    0.0194584330    0.0003739932    
0.0491455040    0.0197218820    0.0003739123    
0.0493681650    0.0203940260    0.0003834982    
0.0495908260    0.0190582750    0.0003644889    
0.0498134870    0.0194654750    0.0003718688    
0.0500361480    0.0201046070    0.0003769246    
0.0502588090    0.0198906030    0.0003692956    
0.0504814700    0.0189503830    0.0003651740    
0.0507041310    0.0197322780    0.0003682010    
0.0509267920    0.0199582270    0.0003718351    
0.0511494530    0.0199321920    0.0003691147    
0.0513721140    0.0199439470    0.0003724751    
0.0515947750    0.0198791650    0.0003669392    
0.0518174360    0.0191920450    0.0003583700    
0.0520400970    0.0197979310    0.0003614591    
0.0522627580    0.0193102960    0.0003600137    
0.0524854190    0.0197961230    0.0003674781    
0.0527080800    0.0201315640    0.0003734476    
0.0529307410    0.0194609900    0.0003688997    
0.0531534020    0.0196735880    0.0003695589    
0.0533760630    0.0193638510    0.0003677859    
0.0535987240    0.0194187560    0.0003665874    
0.0538213850    0.0197296960    0.0003737919    
0.0540440460    0.0187366810    0.0003625398    
0.0542667070    0.0193798650    0.0003712509    
0.0544893680    0.0197208980    0.0003747027    
0.0547120290    0.0192830850    0.0003679817    
0.0549346900    0.0194650620    0.0003699085    
0.0551573510    0.0195230590    0.0003748202    
0.0553800120    0.0192349740    0.0003688816    
0.0556026730    0.0196870770    0.0003809292    
0.0558253340    0.0194110920    0.0003814170    
0.0560479950    0.0203029740    0.0003900813    
0.0562706560    0.0192228830    0.0003832333    
0.0564933170    0.0190218120    0.0003845341    
0.0567159780    0.0203212990    0.0003926867    
0.0569386390    0.0204079980    0.0003996961    
0.0571613000    0.0192538210    0.0003798699    
0.0573839610    0.0193408100    0.0003775659    
0.0576066220    0.0198408560    0.0003834743    
0.0578292830    0.0203135050    0.0003867310    
0.0580519440    0.0192990100    0.0003784119    
0.0582746050    0.0189453170    0.0003732750    
0.0584972660    0.0196033770    0.0003782491    
0.0587199270    0.0198622230    0.0003774560    
0.0589425880    0.0192477250    0.0003693980    
0.0591652490    0.0191521300    0.0003706478    
0.0593879100    0.0192927300    0.0003692431    
0.0596105710    0.0190122800    0.0003661628    
0.0598332320    0.0190661130    0.0003698151    
0.0600558930    0.0196027790    0.0003725929    
0.0602785540    0.0196744280    0.0003728786    
0.0605012150    0.0196056840    0.0003714424    
0.0607238760    0.0191198590    0.0003641383    
0.0609465370    0.0203519840    0.0003786457    
0.0611691980    0.0194625030    0.0003708657    
0.0613918590    0.0198418330    0.0003703743    
0.0616145200    0.0186180790    0.0003613969    
0.0618371810    0.0196091280    0.0003672482    
0.0620598420    0.0200493270    0.0003717303    
0.0622825030    0.0200988680    0.0003778811    
0.0625051640    0.0195659070    0.0003676010    
0.0627278250    0.0187907310    0.0003595037    
0.0629504860    0.0203472730    0.0003710560    
0.0631731470    0.0198829530    0.0003713360    
0.0633958080    0.0194249880    0.0003691469    
0.0636184690    0.0186716850    0.0003669590    
0.0638411300    0.0194336620    0.0003729664    
0.0640637910    0.0194539300    0.0003757854    
0.0642864520    0.0192397310    0.0003729022    
0.0645091130    0.0191738940    0.0003755258    
0.0647317740    0.0187297100    0.0003715598    
0.0649544350    0.0196814180    0.0003804638    
0.0651770960    0.0194236310    0.0003759021    
0.0653997570    0.0192960180    0.0003738528    
0.0656224180    0.0188416930    0.0003702287    
0.0658450790    0.0200071350    0.0003760235    
0.0660677400    0.0190017670    0.0003680136    
0.0662904010    0.0198960830    0.0003810699    
0.0665130620    0.0198902610    0.0003793614    
0.0667357230    0.0196669590    0.0003839329    
0.0669583840    0.0186645170    0.0003727688    
0.0671810450    0.0187387750    0.0003714474    
0.0674037060    0.0201557610    0.0003917619    
0.0676263670    0.0193214550    0.0003807599    
0.0678490280    0.0196343370    0.0003814831    
0.0680716890    0.0197962690    0.0003839054    
0.0682943500    0.0188187900    0.0003702077    
0.0685170110    0.0199498660    0.0003772866    
0.0687396720    0.0196239840    0.0003731983    
0.0689623330    0.0199511570    0.0003751039    
0.0691849940    0.0189271980    0.0003678827    
0.0694076550    0.0195212810    0.0003734122    
0.0696303160    0.0197828400    0.0003729294    
0.0698529770    0.0192519590    0.0003671204    
0.0700756380    0.0190064580    0.0003600896    
0.0702982990    0.0202174360    0.0003754284    
0.0705209600    0.0191844700    0.0003630715    
0.0707436210    0.0193558900    0.0003630151    
0.0709662820    0.0200432230    0.0003738080    
0.0711889430    0.0201184040    0.0003699086    
0.0714116040    0.0196679550    0.0003664907    
0.0716342650    0.0197253260    0.0003655346    
0.0718569260    0.0196070720    0.0003629695    
0.0720795870    0.0194341020    0.0003628267    
0.0723022480    0.0194933770    0.0003639333    
0.0725249090    0.0194139720    0.0003588418    
0.0727475700    0.0197672710    0.0003651850    
0.0729702310    0.0195727270    0.0003604853    
0.0731928920    0.0186921530    0.0003536909    
0.0734155530    0.0195975080    0.0003614325    
0.0736382140    0.0196692240    0.0003597694    
0.0738608750    0.0190309630    0.0003561703    
0.0740835360    0.0192748600    0.0003575555    
0.0743061970    0.0192903250    0.0003526621    
0.0745288580    0.0198930670    0.0003618118    
0.0747515190    0.0198461970    0.0003620990    
0.0749741800    0.0194156340    0.0003548344    
0.0751968410    0.0191420570    0.0003550919    
0.0754195020    0.0197907720    0.0003589434    
0.0756421630    0.0195581930    0.0003539111    
0.0758648240    0.0189702350    0.0003493888    
0.0760874850    0.0199484800    0.0003581120    
0.0763101460    0.0196984750    0.0003555195    
0.0765328070    0.0190952050    0.0003536149    
0.0767554680    0.0194054050    0.0003540566    
0.0769781290    0.0191766330    0.0003499409    
0.0772007900    0.0192724290    0.0003480003    
0.0774234510    0.0201913980    0.0003582266    
0.0776461120    0.0191254750    0.0003483121    
0.0778687730    0.0189237010    0.0003453253    
0.0780914340    0.0195019140    0.0003530662    
0.0783140950    0.0191046670    0.0003439074    
0.0785367560    0.0195339290    0.0003533564    
0.0787594170    0.0192607980    0.0003477335    
0.0789820780    0.0195548100    0.0003485822    
0.0792047390    0.0193513980    0.0003478982    
0.0794274000    0.0196292670    0.0003518717    
0.0796500610    0.0193778540    0.0003461987    
0.0798727220    0.0196260840    0.0003480875    
0.0800953830    0.0193761410    0.0003450685    
0.0803180440    0.0195784940    0.0003492820    
0.0805407050    0.0199774720    0.0003524948    
0.0807633660    0.0191581820    0.0003448707    
0.0809860270    0.0197379430    0.0003487574    
0.0812086880    0.0196889800    0.0003453144    
0.0814313490    0.0198934280    0.0003486857    
0.0816540100    0.0196751880    0.0003459783    
0.0818766710    0.0193862170    0.0003442124    
0.0820993320    0.0197905950    0.0003471500    
0.0823219930    0.0203471270    0.0003534491    
0.0825446540    0.0195140110    0.0003436226    
0.0827673150    0.0192646300    0.0003391261    
0.0829899760    0.0200586470    0.0003454282    
0.0832126370    0.0190563430    0.0003381954    
0.0834352980    0.0194970390    0.0003413187    
0.0836579590    0.0194400800    0.0003400612    
0.0838806200    0.0192865840    0.0003397759    
0.0841032810    0.0195089970    0.0003396080    
0.0843259420    0.0195887890    0.0003392539    
0.0845486030    0.0196593240    0.0003398644    
0.0847712640    0.0193101610    0.0003347800    
0.0849939250    0.0193600000    0.0003357955    
0.0852165860    0.0194983470    0.0003374346    
0.0854392470    0.0193026830    0.0003325578    
0.0856619080    0.0197159700    0.0003385745    
0.0858845690    0.0195337230    0.0003339708    
0.0861072300    0.0184034000    0.0003264020    
0.0863298910    0.0191933240    0.0003350789    
0.0865525520    0.0197774170    0.0003372022    
0.0867752130    0.0190635570    0.0003283893    
0.0869978740    0.0194337640    0.0003324076    
0.0872205350    0.0201045930    0.0003376659    
0.0874431960    0.0198324040    0.0003353726    
0.0876658570    0.0196249540    0.0003348949    
0.0878885180    0.0193023610    0.0003327005    
0.0881111790    0.0195674450    0.0003345473    
0.0883338400    0.0192818840    0.0003272349    
0.0885565010    0.0196771640    0.0003350549    
0.0887791620    0.0197537430    0.0003313528    
0.0890018230    0.0194418240    0.0003319148    
0.0892244840    0.0196046420    0.0003338684    
0.0894471450    0.0188473960    0.0003259741    
0.0896698060    0.0191643030    0.0003274634    
0.0898924670    0.0194496810    0.0003314217    
0.0901151280    0.0193522970    0.0003270201    
0.0903377890    0.0200428090    0.0003355885    
0.0905604500    0.0195586230    0.0003299888    
0.0907831110    0.0193340130    0.0003272723    
0.0910057720    0.0190701930    0.0003265233    
0.0912284330    0.0192939060    0.0003237305    
0.0914510940    0.0190435080    0.0003252095    
0.0916737550    0.0194961950    0.0003282355    
0.0918964160    0.0195528240    0.0003300789    
0.0921190770    0.0195784000    0.0003273083    
0.0923417380    0.0200435290    0.0003313093    
0.0925643990    0.0188610790    0.0003206016    
0.0927870600    0.0192468550    0.0003251919    
0.0930097210    0.0194065130    0.0003237568    
0.0932323820    0.0194462310    0.0003264703    
