# Diamond Light Source Ltd.
# Data extracted from: /dls/b21/data/2018/cm19678-3/processed/b21-386631_00710.dat
q(1/A)          Column          Error           
0.0035000000    2.0632889000    0.0243618140    
0.0037226610    1.8405906000    0.0225250890    
0.0039453220    1.5709274000    0.0189309580    
0.0041679830    1.2733247000    0.0139968050    
0.0043906440    0.9643690600    0.0116510830    
0.0046133050    0.7836567100    0.0100825740    
0.0048359660    0.5931073100    0.0082970332    
0.0050586270    0.4489824100    0.0070954883    
0.0052812880    0.4340415100    0.0065961013    
0.0055039490    0.3675889400    0.0057718291    
0.0057266100    0.3156112400    0.0051739547    
0.0059492710    0.2736259000    0.0048175366    
0.0061719320    0.2187965400    0.0041512063    
0.0063945930    0.1981536300    0.0039984149    
0.0066172539    0.1819011100    0.0035972448    
0.0068399149    0.1686360300    0.0034090501    
0.0070625759    0.1486548000    0.0031678913    
0.0072852369    0.1262912900    0.0028762053    
0.0075078979    0.1166211500    0.0027503152    
0.0077305589    0.0987389430    0.0024824770    
0.0079532199    0.0971139020    0.0024278475    
0.0081758809    0.0921277510    0.0023866973    
0.0083985419    0.0848231950    0.0021359879    
0.0086212029    0.0759482380    0.0020211584    
0.0088438639    0.0698637830    0.0019229374    
0.0090665249    0.0632953020    0.0017677769    
0.0092891859    0.0640073970    0.0018554818    
0.0095118469    0.0604384090    0.0017339034    
0.0097345079    0.0568685260    0.0016335057    
0.0099571689    0.0551324510    0.0015752129    
0.0101798300    0.0487866020    0.0014817875    
0.0104024910    0.0506026680    0.0015040082    
0.0106251520    0.0474364360    0.0014611397    
0.0108478130    0.0456710440    0.0013962046    
0.0110704740    0.0453827540    0.0013250792    
0.0112931350    0.0431590280    0.0012960026    
0.0115157960    0.0428879750    0.0012843935    
0.0117384570    0.0409808020    0.0012447032    
0.0119611180    0.0384406930    0.0012089703    
0.0121837790    0.0388133210    0.0011943974    
0.0124064400    0.0371976080    0.0011205319    
0.0126291010    0.0365356220    0.0010966171    
0.0128517620    0.0344358190    0.0010672964    
0.0130744230    0.0327862490    0.0010336958    
0.0132970840    0.0313691170    0.0010061649    
0.0135197450    0.0311042120    0.0009875597    
0.0137424060    0.0321954330    0.0009907460    
0.0139650670    0.0317680710    0.0009622271    
0.0141877280    0.0299765630    0.0009367676    
0.0144103890    0.0291779150    0.0009082688    
0.0146330500    0.0289481590    0.0008989418    
0.0148557110    0.0284014230    0.0008866790    
0.0150783720    0.0277161090    0.0008686771    
0.0153010330    0.0272047030    0.0008484914    
0.0155236940    0.0261237770    0.0008265197    
0.0157463550    0.0260092040    0.0008104168    
0.0159690160    0.0271904910    0.0008254717    
0.0161916770    0.0256212700    0.0007967836    
0.0164143380    0.0258600200    0.0008065519    
0.0166369990    0.0255186290    0.0007765072    
0.0168596600    0.0244441680    0.0007532880    
0.0170823210    0.0233383160    0.0007296788    
0.0173049820    0.0246094910    0.0007505825    
0.0175276430    0.0244766730    0.0007564480    
0.0177503040    0.0237552600    0.0007262195    
0.0179729650    0.0247880610    0.0007344812    
0.0181956260    0.0240979890    0.0007103022    
0.0184182870    0.0226477290    0.0006853514    
0.0186409480    0.0235654180    0.0007035237    
0.0188636090    0.0232077160    0.0006937729    
0.0190862700    0.0236313970    0.0006989824    
0.0193089310    0.0219913890    0.0006732408    
0.0195315920    0.0230789600    0.0006662322    
0.0197542530    0.0220660950    0.0006523978    
0.0199769140    0.0243807290    0.0006857616    
0.0201995750    0.0220532520    0.0006419950    
0.0204222360    0.0223574430    0.0006519563    
0.0206448970    0.0235214030    0.0006639592    
0.0208675580    0.0226345720    0.0006379100    
0.0210902190    0.0229451900    0.0006484694    
0.0213128800    0.0215955830    0.0006205730    
0.0215355410    0.0233997130    0.0006382795    
0.0217582020    0.0219198290    0.0006177664    
0.0219808630    0.0224006140    0.0006236847    
0.0222035240    0.0212973750    0.0006026218    
0.0224261850    0.0222431620    0.0006103760    
0.0226488460    0.0227022960    0.0006120129    
0.0228715070    0.0218344610    0.0005987102    
0.0230941680    0.0218016370    0.0005982601    
0.0233168290    0.0211514380    0.0005907393    
0.0235394900    0.0203321410    0.0005727932    
0.0237621510    0.0211468070    0.0005684297    
0.0239848120    0.0213336010    0.0005715952    
0.0242074730    0.0205714600    0.0005567994    
0.0244301340    0.0218268420    0.0005741918    
0.0246527950    0.0204789150    0.0005613296    
0.0248754560    0.0206420170    0.0005508947    
0.0250981170    0.0221223640    0.0005715782    
0.0253207780    0.0215855160    0.0005477428    
0.0255434390    0.0217931790    0.0005562454    
0.0257661000    0.0206054730    0.0005426252    
0.0259887610    0.0213447910    0.0005464050    
0.0262114220    0.0206963590    0.0005409080    
0.0264340830    0.0209760490    0.0005371416    
0.0266567440    0.0209621630    0.0005336458    
0.0268794050    0.0213303880    0.0005361154    
0.0271020660    0.0198080880    0.0005145392    
0.0273247270    0.0209046520    0.0005254150    
0.0275473880    0.0215318160    0.0005321773    
0.0277700490    0.0208620720    0.0005207388    
0.0279927100    0.0207550600    0.0005148697    
0.0282153710    0.0203512110    0.0005123146    
0.0284380320    0.0202306760    0.0005078342    
0.0286606930    0.0196101750    0.0004957061    
0.0288833540    0.0207664660    0.0005110802    
0.0291060150    0.0206768550    0.0005094924    
0.0293286760    0.0203487640    0.0004983910    
0.0295513370    0.0195377920    0.0004830408    
0.0297739980    0.0212887120    0.0005097722    
0.0299966590    0.0210394510    0.0004981234    
0.0302193200    0.0198604660    0.0004910184    
0.0304419810    0.0197630460    0.0004907140    
0.0306646420    0.0205042060    0.0004857235    
0.0308873030    0.0207609270    0.0004866436    
0.0311099640    0.0198369030    0.0004769258    
0.0313326250    0.0204090700    0.0004783960    
0.0315552860    0.0206078090    0.0004869496    
0.0317779470    0.0208973020    0.0004907851    
0.0320006080    0.0203988420    0.0004738794    
0.0322232690    0.0204367740    0.0004763053    
0.0324459300    0.0203733540    0.0004720153    
0.0326685910    0.0203498370    0.0004709652    
0.0328912520    0.0199472090    0.0004678269    
0.0331139130    0.0191109680    0.0004519589    
0.0333365740    0.0199560630    0.0004633433    
0.0335592350    0.0199962250    0.0004593497    
0.0337818960    0.0197536890    0.0004561919    
0.0340045570    0.0198380170    0.0004564385    
0.0342272170    0.0202861360    0.0004597443    
0.0344498780    0.0200690830    0.0004590893    
0.0346725390    0.0197473900    0.0004469612    
0.0348952000    0.0194275370    0.0004413071    
0.0351178610    0.0195956670    0.0004452411    
0.0353405220    0.0195478560    0.0004426718    
0.0355631830    0.0204853520    0.0004514558    
0.0357858440    0.0194307520    0.0004396818    
0.0360085050    0.0203190720    0.0004509785    
0.0362311660    0.0198486430    0.0004404289    
0.0364538270    0.0200602210    0.0004392164    
0.0366764880    0.0209433700    0.0004484549    
0.0368991490    0.0196205360    0.0004318730    
0.0371218100    0.0201795060    0.0004367286    
0.0373444710    0.0201094940    0.0004407180    
0.0375671320    0.0201183780    0.0004401733    
0.0377897930    0.0203696260    0.0004314476    
0.0380124540    0.0188863840    0.0004180491    
0.0382351150    0.0200800990    0.0004310583    
0.0384577760    0.0201845790    0.0004280084    
0.0386804370    0.0201620930    0.0004310344    
0.0389030980    0.0193405560    0.0004189645    
0.0391257590    0.0195981310    0.0004188821    
0.0393484200    0.0195731510    0.0004172062    
0.0395710810    0.0192870840    0.0004147041    
0.0397937420    0.0198399400    0.0004206059    
0.0400164030    0.0198668500    0.0004226033    
0.0402390640    0.0209253460    0.0004279400    
0.0404617250    0.0199094410    0.0004149602    
0.0406843860    0.0197047120    0.0004088326    
0.0409070470    0.0202126520    0.0004183819    
0.0411297080    0.0198149700    0.0004102381    
0.0413523690    0.0196355280    0.0004094291    
0.0415750300    0.0192759040    0.0004091083    
0.0417976910    0.0197006750    0.0004028945    
0.0420203520    0.0190271480    0.0003974353    
0.0422430130    0.0199410260    0.0004084081    
0.0424656740    0.0194090280    0.0003976792    
0.0426883350    0.0198737340    0.0004044091    
0.0429109960    0.0195343910    0.0004021943    
0.0431336570    0.0206298390    0.0004074943    
0.0433563180    0.0188582750    0.0003929660    
0.0435789790    0.0196587080    0.0003949156    
0.0438016400    0.0198812020    0.0003993047    
0.0440243010    0.0201005920    0.0003974281    
0.0442469620    0.0198093920    0.0003969029    
0.0444696230    0.0194622920    0.0003919995    
0.0446922840    0.0203358000    0.0003995099    
0.0449149450    0.0198110000    0.0003890498    
0.0451376060    0.0198178960    0.0003939231    
0.0453602670    0.0195272290    0.0003869244    
0.0455829280    0.0199563350    0.0003907003    
0.0458055890    0.0199962960    0.0003933719    
0.0460282500    0.0193281240    0.0003820802    
0.0462509110    0.0197001100    0.0003833403    
0.0464735720    0.0192070860    0.0003787268    
0.0466962330    0.0199246880    0.0003874903    
0.0469188940    0.0194821820    0.0003820770    
0.0471415550    0.0203414330    0.0003924169    
0.0473642160    0.0196727440    0.0003805095    
0.0475868770    0.0197473800    0.0003793367    
0.0478095380    0.0199216450    0.0003793395    
0.0480321990    0.0198784500    0.0003797583    
0.0482548600    0.0204463690    0.0003834668    
0.0484775210    0.0197467690    0.0003805910    
0.0487001820    0.0201272460    0.0003786154    
0.0489228430    0.0198566130    0.0003758593    
0.0491455040    0.0201512230    0.0003760185    
0.0493681650    0.0193641790    0.0003717699    
0.0495908260    0.0198426510    0.0003700030    
0.0498134870    0.0196667520    0.0003718659    
0.0500361480    0.0190382560    0.0003649078    
0.0502588090    0.0196256590    0.0003649431    
0.0504814700    0.0198705150    0.0003720131    
0.0507041310    0.0194416300    0.0003636014    
0.0509267920    0.0195274000    0.0003659101    
0.0511494530    0.0200594020    0.0003683881    
0.0513721140    0.0200287050    0.0003713479    
0.0515947750    0.0201848970    0.0003678503    
0.0518174360    0.0196973960    0.0003611922    
0.0520400970    0.0196603290    0.0003583501    
0.0522627580    0.0201420650    0.0003657964    
0.0524854190    0.0200995950    0.0003683816    
0.0527080800    0.0193149900    0.0003639159    
0.0529307410    0.0189708370    0.0003623531    
0.0531534020    0.0196711980    0.0003676378    
0.0533760630    0.0198636870    0.0003705886    
0.0535987240    0.0198909750    0.0003691117    
0.0538213850    0.0193172020    0.0003679634    
0.0540440460    0.0194611100    0.0003675836    
0.0542667070    0.0192516210    0.0003681193    
0.0544893680    0.0199697440    0.0003751220    
0.0547120290    0.0194468570    0.0003676424    
0.0549346900    0.0201839570    0.0003747421    
0.0551573510    0.0200565600    0.0003779550    
0.0553800120    0.0198710370    0.0003730047    
0.0556026730    0.0201929230    0.0003838099    
0.0558253340    0.0191157070    0.0003765591    
0.0560479950    0.0192121580    0.0003775081    
0.0562706560    0.0193661460    0.0003826823    
0.0564933170    0.0195731510    0.0003880630    
0.0567159780    0.0191216350    0.0003789621    
0.0569386390    0.0199121530    0.0003927821    
0.0571613000    0.0193902830    0.0003792550    
0.0573839610    0.0196240600    0.0003783665    
0.0576066220    0.0198722380    0.0003818056    
0.0578292830    0.0199449840    0.0003812381    
0.0580519440    0.0195565200    0.0003789710    
0.0582746050    0.0193698670    0.0003754950    
0.0584972660    0.0201609250    0.0003816195    
0.0587199270    0.0195734510    0.0003727769    
0.0589425880    0.0196679190    0.0003714898    
0.0591652490    0.0196373880    0.0003733857    
0.0593879100    0.0200602310    0.0003745815    
0.0596105710    0.0195084090    0.0003690039    
0.0598332320    0.0199853300    0.0003766796    
0.0600558930    0.0194579360    0.0003693066    
0.0602785540    0.0200043600    0.0003740603    
0.0605012150    0.0193141890    0.0003667765    
0.0607238760    0.0195279170    0.0003661127    
0.0609465370    0.0195925640    0.0003696052    
0.0611691980    0.0196757020    0.0003709756    
0.0613918590    0.0194605550    0.0003649139    
0.0616145200    0.0199061540    0.0003717693    
0.0618371810    0.0201093150    0.0003699918    
0.0620598420    0.0197824370    0.0003673506    
0.0622825030    0.0191474980    0.0003669342    
0.0625051640    0.0201377930    0.0003710185    
0.0627278250    0.0200685590    0.0003696174    
0.0629504860    0.0197034000    0.0003632619    
0.0631731470    0.0193085050    0.0003640523    
0.0633958080    0.0191495160    0.0003646369    
0.0636184690    0.0190513510    0.0003687665    
0.0638411300    0.0188023210    0.0003649732    
0.0640637910    0.0196568700    0.0003757996    
0.0642864520    0.0203373110    0.0003814214    
0.0645091130    0.0203531760    0.0003849139    
0.0647317740    0.0196977160    0.0003790827    
0.0649544350    0.0194796940    0.0003765642    
0.0651770960    0.0200453720    0.0003799089    
0.0653997570    0.0194710320    0.0003736148    
0.0656224180    0.0201318210    0.0003807277    
0.0658450790    0.0193404210    0.0003678056    
0.0660677400    0.0197664060    0.0003734166    
0.0662904010    0.0195476810    0.0003757780    
0.0665130620    0.0195002030    0.0003736933    
0.0667357230    0.0202442950    0.0003875260    
0.0669583840    0.0198437840    0.0003823898    
0.0671810450    0.0200187900    0.0003819517    
0.0674037060    0.0197456890    0.0003857640    
0.0676263670    0.0192051120    0.0003776614    
0.0678490280    0.0201153450    0.0003841437    
0.0680716890    0.0196744230    0.0003807557    
0.0682943500    0.0194260140    0.0003742004    
0.0685170110    0.0199572500    0.0003754176    
0.0687396720    0.0194720190    0.0003698404    
0.0689623330    0.0200956720    0.0003745258    
0.0691849940    0.0192002960    0.0003686235    
0.0694076550    0.0195898420    0.0003721454    
0.0696303160    0.0199279810    0.0003723718    
0.0698529770    0.0195881660    0.0003684095    
0.0700756380    0.0196556770    0.0003643065    
0.0702982990    0.0196100130    0.0003678458    
0.0705209600    0.0197359270    0.0003663607    
0.0707436210    0.0194742110    0.0003622521    
0.0709662820    0.0192305820    0.0003642705    
0.0711889430    0.0194477170    0.0003618219    
0.0714116040    0.0199462690    0.0003671784    
0.0716342650    0.0196505350    0.0003629664    
0.0718569260    0.0189671770    0.0003551632    
0.0720795870    0.0201064840    0.0003671537    
0.0723022480    0.0200265880    0.0003669819    
0.0725249090    0.0189720930    0.0003529119    
0.0727475700    0.0192708630    0.0003587179    
0.0729702310    0.0194772560    0.0003577574    
0.0731928920    0.0196730000    0.0003609877    
0.0734155530    0.0195088010    0.0003587607    
0.0736382140    0.0192852580    0.0003544102    
0.0738608750    0.0194692670    0.0003583975    
0.0740835360    0.0191626450    0.0003546814    
0.0743061970    0.0195520570    0.0003532223    
0.0745288580    0.0191876630    0.0003535133    
0.0747515190    0.0199108770    0.0003608251    
0.0749741800    0.0196595020    0.0003552213    
0.0751968410    0.0199303150    0.0003604678    
0.0754195020    0.0199745310    0.0003587532    
0.0756421630    0.0197443790    0.0003537647    
0.0758648240    0.0199413260    0.0003563793    
0.0760874850    0.0199667190    0.0003564349    
0.0763101460    0.0202269040    0.0003584055    
0.0765328070    0.0195541010    0.0003560002    
0.0767554680    0.0191553600    0.0003499608    
0.0769781290    0.0200798280    0.0003562471    
0.0772007900    0.0204742620    0.0003568440    
0.0774234510    0.0196196060    0.0003513036    
0.0776461120    0.0199151610    0.0003536041    
0.0778687730    0.0195966870    0.0003496065    
0.0780914340    0.0200548780    0.0003561971    
0.0783140950    0.0194051660    0.0003448207    
0.0785367560    0.0193400420    0.0003497919    
0.0787594170    0.0198897960    0.0003515503    
0.0789820780    0.0190899290    0.0003426443    
0.0792047390    0.0192521030    0.0003452216    
0.0794274000    0.0203145770    0.0003561222    
0.0796500610    0.0191363890    0.0003422674    
0.0798727220    0.0193699340    0.0003440317    
0.0800953830    0.0195668140    0.0003449805    
0.0803180440    0.0198403770    0.0003498037    
0.0805407050    0.0194710740    0.0003462106    
0.0807633660    0.0196131330    0.0003471487    
0.0809860270    0.0195539360    0.0003453444    
0.0812086880    0.0199846970    0.0003461105    
0.0814313490    0.0191693150    0.0003405222    
0.0816540100    0.0196481510    0.0003439641    
0.0818766710    0.0197198330    0.0003453778    
0.0820993320    0.0195998060    0.0003436976    
0.0823219930    0.0192149030    0.0003417097    
0.0825446540    0.0192062030    0.0003391502    
0.0827673150    0.0196580420    0.0003408112    
0.0829899760    0.0196411020    0.0003400579    
0.0832126370    0.0200253600    0.0003449062    
0.0834352980    0.0203380590    0.0003468114    
0.0836579590    0.0192467170    0.0003366272    
0.0838806200    0.0203449110    0.0003471808    
0.0841032810    0.0194845760    0.0003376516    
0.0843259420    0.0194054600    0.0003359277    
0.0845486030    0.0199579370    0.0003406764    
0.0847712640    0.0193650030    0.0003335325    
0.0849939250    0.0195766220    0.0003359340    
0.0852165860    0.0194372130    0.0003351742    
0.0854392470    0.0195755150    0.0003331792    
0.0856619080    0.0194390810    0.0003344613    
0.0858845690    0.0190509420    0.0003281233    
0.0861072300    0.0197216900    0.0003361543    
0.0863298910    0.0195755890    0.0003366606    
0.0865525520    0.0194438310    0.0003326284    
0.0867752130    0.0197247910    0.0003323197    
0.0869978740    0.0187449910    0.0003247865    
0.0872205350    0.0190902420    0.0003273468    
0.0874431960    0.0192698910    0.0003288837    
0.0876658570    0.0194916840    0.0003320410    
0.0878885180    0.0197118260    0.0003344833    
0.0881111790    0.0191630860    0.0003293716    
0.0883338400    0.0194305410    0.0003268061    
0.0885565010    0.0192722020    0.0003298855    
0.0887791620    0.0197218150    0.0003293839    
0.0890018230    0.0198370500    0.0003335489    
0.0892244840    0.0194824900    0.0003311166    
0.0894471450    0.0194856520    0.0003297447    
0.0896698060    0.0192780110    0.0003267459    
0.0898924670    0.0193565330    0.0003289284    
0.0901151280    0.0196790110    0.0003280747    
0.0903377890    0.0195315060    0.0003295782    
0.0905604500    0.0202177850    0.0003337796    
0.0907831110    0.0200899000    0.0003318945    
0.0910057720    0.0193450790    0.0003271785    
0.0912284330    0.0194617320    0.0003234649    
0.0914510940    0.0194859440    0.0003272754    
0.0916737550    0.0192580830    0.0003245488    
0.0918964160    0.0195178700    0.0003280894    
0.0921190770    0.0196539370    0.0003262542    
0.0923417380    0.0197513700    0.0003271960    
0.0925643990    0.0192556810    0.0003222736    
0.0927870600    0.0189734510    0.0003212150    
0.0930097210    0.0196940780    0.0003244710    
0.0932323820    0.0198707600    0.0003283190    
