# Diamond Light Source Ltd.
# Data extracted from: /dls/b21/data/2018/cm19678-3/processed/b21-386631_00708.dat
q(1/A)          Column          Error           
0.0035000000    2.0690038000    0.0243936100    
0.0037226610    1.8582161000    0.0226309010    
0.0039453220    1.6233707000    0.0192428430    
0.0041679830    1.2842003000    0.0140553460    
0.0043906440    0.9826544000    0.0117600960    
0.0046133050    0.7874244700    0.0101059880    
0.0048359660    0.5848905000    0.0082387116    
0.0050586270    0.4569841000    0.0071578732    
0.0052812880    0.4192401700    0.0064821482    
0.0055039490    0.3696152200    0.0057872600    
0.0057266100    0.3094555700    0.0051228469    
0.0059492710    0.2609468100    0.0047042267    
0.0061719320    0.2144309600    0.0041092605    
0.0063945930    0.1917496200    0.0039329636    
0.0066172539    0.1765379400    0.0035435387    
0.0068399149    0.1726059600    0.0034486722    
0.0070625759    0.1447840000    0.0031261292    
0.0072852369    0.1217523700    0.0028238246    
0.0075078979    0.1122577600    0.0026981608    
0.0077305589    0.0993474480    0.0024899188    
0.0079532199    0.0949745880    0.0024007683    
0.0081758809    0.0895167730    0.0023524486    
0.0083985419    0.0833040290    0.0021166073    
0.0086212029    0.0766354170    0.0020301218    
0.0088438639    0.0720224600    0.0019522655    
0.0090665249    0.0643713620    0.0017826000    
0.0092891859    0.0593185290    0.0017860870    
0.0095118469    0.0575939630    0.0016924766    
0.0097345079    0.0596274940    0.0016725295    
0.0099571689    0.0532338170    0.0015477301    
0.0101798300    0.0502638920    0.0015039366    
0.0104024910    0.0488962960    0.0014783161    
0.0106251520    0.0475639690    0.0014629874    
0.0108478130    0.0448530040    0.0013835351    
0.0110704740    0.0431706600    0.0012922799    
0.0112931350    0.0408175810    0.0012602582    
0.0115157960    0.0399199220    0.0012390562    
0.0117384570    0.0392355890    0.0012178155    
0.0119611180    0.0388148090    0.0012147435    
0.0121837790    0.0369697510    0.0011655946    
0.0124064400    0.0364492690    0.0011091159    
0.0126291010    0.0357400380    0.0010845263    
0.0128517620    0.0341327320    0.0010625055    
0.0130744230    0.0341496840    0.0010548873    
0.0132970840    0.0315900540    0.0010096225    
0.0135197450    0.0312560680    0.0009898896    
0.0137424060    0.0316416680    0.0009821113    
0.0139650670    0.0287616070    0.0009154920    
0.0141877280    0.0290352250    0.0009218693    
0.0144103890    0.0284666060    0.0008970589    
0.0146330500    0.0283016530    0.0008887770    
0.0148557110    0.0265702500    0.0008575511    
0.0150783720    0.0292633880    0.0008925250    
0.0153010330    0.0283117230    0.0008655146    
0.0155236940    0.0267471660    0.0008362573    
0.0157463550    0.0249194610    0.0007931952    
0.0159690160    0.0266850840    0.0008176996    
0.0161916770    0.0266330080    0.0008122991    
0.0164143380    0.0270380810    0.0008246537    
0.0166369990    0.0247586250    0.0007647965    
0.0168596600    0.0257633020    0.0007732858    
0.0170823210    0.0269614360    0.0007842134    
0.0173049820    0.0254296210    0.0007629268    
0.0175276430    0.0251974230    0.0007674441    
0.0177503040    0.0230633940    0.0007155096    
0.0179729650    0.0236091430    0.0007167461    
0.0181956260    0.0245965950    0.0007175564    
0.0184182870    0.0230174210    0.0006908681    
0.0186409480    0.0223017260    0.0006843467    
0.0188636090    0.0229344900    0.0006896227    
0.0190862700    0.0229041710    0.0006880891    
0.0193089310    0.0226061460    0.0006825323    
0.0195315920    0.0239791120    0.0006790471    
0.0197542530    0.0222747640    0.0006554237    
0.0199769140    0.0235090450    0.0006733380    
0.0201995750    0.0224421930    0.0006475805    
0.0204222360    0.0213844940    0.0006375624    
0.0206448970    0.0233490490    0.0006614700    
0.0208675580    0.0212828560    0.0006185204    
0.0210902190    0.0222086220    0.0006379260    
0.0213128800    0.0230542480    0.0006411383    
0.0215355410    0.0215334000    0.0006122485    
0.0217582020    0.0229260300    0.0006317365    
0.0219808630    0.0214768990    0.0006106421    
0.0222035240    0.0218907340    0.0006109108    
0.0224261850    0.0215028050    0.0006000848    
0.0226488460    0.0213625340    0.0005936328    
0.0228715070    0.0220444120    0.0006015344    
0.0230941680    0.0207641040    0.0005838052    
0.0233168290    0.0209831480    0.0005883382    
0.0235394900    0.0224102380    0.0006013057    
0.0237621510    0.0223503690    0.0005843358    
0.0239848120    0.0211771190    0.0005694502    
0.0242074730    0.0212915010    0.0005664156    
0.0244301340    0.0210984780    0.0005644857    
0.0246527950    0.0206910650    0.0005641852    
0.0248754560    0.0215942670    0.0005634139    
0.0250981170    0.0213215400    0.0005610931    
0.0253207780    0.0207482960    0.0005369731    
0.0255434390    0.0214916490    0.0005523404    
0.0257661000    0.0212880200    0.0005514957    
0.0259887610    0.0217889600    0.0005520174    
0.0262114220    0.0214139690    0.0005501623    
0.0264340830    0.0216741320    0.0005459635    
0.0266567440    0.0206464510    0.0005295703    
0.0268794050    0.0213270320    0.0005360311    
0.0271020660    0.0206335190    0.0005251092    
0.0273247270    0.0202147730    0.0005166320    
0.0275473880    0.0211996490    0.0005280149    
0.0277700490    0.0210927190    0.0005235683    
0.0279927100    0.0209050390    0.0005166859    
0.0282153710    0.0199869540    0.0005076691    
0.0284380320    0.0213363730    0.0005214863    
0.0286606930    0.0211606220    0.0005148890    
0.0288833540    0.0203859150    0.0005063359    
0.0291060150    0.0206108400    0.0005086384    
0.0293286760    0.0205774550    0.0005011444    
0.0295513370    0.0206093660    0.0004960715    
0.0297739980    0.0195766740    0.0004888062    
0.0299966590    0.0208003090    0.0004952455    
0.0302193200    0.0203671260    0.0004972030    
0.0304419810    0.0208685400    0.0005042122    
0.0306646420    0.0206620430    0.0004875510    
0.0308873030    0.0201417740    0.0004792944    
0.0311099640    0.0204987290    0.0004847783    
0.0313326250    0.0199461660    0.0004729023    
0.0315552860    0.0202594310    0.0004827781    
0.0317779470    0.0197761320    0.0004774003    
0.0320006080    0.0204396590    0.0004743159    
0.0322232690    0.0199784920    0.0004708976    
0.0324459300    0.0203592140    0.0004718144    
0.0326685910    0.0201286740    0.0004683621    
0.0328912520    0.0196478710    0.0004642669    
0.0331139130    0.0200697710    0.0004631211    
0.0333365740    0.0200712420    0.0004646420    
0.0335592350    0.0203412420    0.0004632591    
0.0337818960    0.0198980520    0.0004578198    
0.0340045570    0.0199713980    0.0004579344    
0.0342272170    0.0192828610    0.0004481963    
0.0344498780    0.0195199130    0.0004527289    
0.0346725390    0.0201994530    0.0004520126    
0.0348952000    0.0211784970    0.0004607288    
0.0351178610    0.0194206300    0.0004432132    
0.0353405220    0.0203766860    0.0004519234    
0.0355631830    0.0203329150    0.0004497376    
0.0357858440    0.0196365940    0.0004419698    
0.0360085050    0.0201457410    0.0004490155    
0.0362311660    0.0203145420    0.0004455329    
0.0364538270    0.0199416830    0.0004378823    
0.0366764880    0.0205272260    0.0004439422    
0.0368991490    0.0203397960    0.0004396830    
0.0371218100    0.0196943670    0.0004314129    
0.0373444710    0.0197586690    0.0004368224    
0.0375671320    0.0202885360    0.0004419961    
0.0377897930    0.0203115990    0.0004307987    
0.0380124540    0.0200029090    0.0004301950    
0.0382351150    0.0199289060    0.0004293986    
0.0384577760    0.0201178820    0.0004272671    
0.0386804370    0.0196521830    0.0004255155    
0.0389030980    0.0200362400    0.0004263995    
0.0391257590    0.0194697250    0.0004174747    
0.0393484200    0.0195878540    0.0004173300    
0.0395710810    0.0192840490    0.0004146388    
0.0397937420    0.0197833260    0.0004199723    
0.0400164030    0.0198367600    0.0004222499    
0.0402390640    0.0197057560    0.0004152493    
0.0404617250    0.0199668400    0.0004155252    
0.0406843860    0.0201595920    0.0004134920    
0.0409070470    0.0205038680    0.0004213519    
0.0411297080    0.0204062920    0.0004162816    
0.0413523690    0.0197690120    0.0004107860    
0.0415750300    0.0196027670    0.0004125299    
0.0417976910    0.0196234310    0.0004020722    
0.0420203520    0.0207423040    0.0004149291    
0.0422430130    0.0201386050    0.0004103941    
0.0424656740    0.0203510170    0.0004071833    
0.0426883350    0.0201832710    0.0004075142    
0.0429109960    0.0194650810    0.0004014486    
0.0431336570    0.0196930440    0.0003981034    
0.0433563180    0.0195430390    0.0004000054    
0.0435789790    0.0198380520    0.0003966817    
0.0438016400    0.0196054410    0.0003964945    
0.0440243010    0.0197988740    0.0003944030    
0.0442469620    0.0197983240    0.0003967608    
0.0444696230    0.0195934310    0.0003932870    
0.0446922840    0.0198696040    0.0003948729    
0.0449149450    0.0192044030    0.0003830171    
0.0451376060    0.0197443180    0.0003931603    
0.0453602670    0.0195241560    0.0003868635    
0.0455829280    0.0193031290    0.0003842227    
0.0458055890    0.0190182510    0.0003836009    
0.0460282500    0.0200727110    0.0003893396    
0.0462509110    0.0200326280    0.0003865315    
0.0464735720    0.0197789910    0.0003842936    
0.0466962330    0.0194996140    0.0003833045    
0.0469188940    0.0196814000    0.0003839953    
0.0471415550    0.0201868500    0.0003908922    
0.0473642160    0.0197138000    0.0003808763    
0.0475868770    0.0197588440    0.0003794169    
0.0478095380    0.0201062850    0.0003810634    
0.0480321990    0.0192805130    0.0003739737    
0.0482548600    0.0191560170    0.0003711403    
0.0484775210    0.0203083950    0.0003859350    
0.0487001820    0.0191413740    0.0003691973    
0.0489228430    0.0195120450    0.0003725546    
0.0491455040    0.0199235610    0.0003738590    
0.0493681650    0.0195538160    0.0003735564    
0.0495908260    0.0192531730    0.0003644369    
0.0498134870    0.0192910530    0.0003682679    
0.0500361480    0.0196017030    0.0003702391    
0.0502588090    0.0199143310    0.0003675883    
0.0504814700    0.0195749140    0.0003692066    
0.0507041310    0.0192413970    0.0003616957    
0.0509267920    0.0195586040    0.0003661735    
0.0511494530    0.0196977360    0.0003650233    
0.0513721140    0.0202389570    0.0003732626    
0.0515947750    0.0187473500    0.0003544816    
0.0518174360    0.0195684750    0.0003599799    
0.0520400970    0.0199576450    0.0003610211    
0.0522627580    0.0197802220    0.0003624673    
0.0524854190    0.0196103910    0.0003638423    
0.0527080800    0.0194284940    0.0003649549    
0.0529307410    0.0196252560    0.0003685210    
0.0531534020    0.0195032290    0.0003660360    
0.0533760630    0.0192522320    0.0003648115    
0.0535987240    0.0196618470    0.0003669507    
0.0538213850    0.0197346450    0.0003718887    
0.0540440460    0.0199717460    0.0003723455    
0.0542667070    0.0196004860    0.0003714105    
0.0544893680    0.0196284240    0.0003718732    
0.0547120290    0.0198260020    0.0003711797    
0.0549346900    0.0193599150    0.0003669838    
0.0551573510    0.0196617360    0.0003741870    
0.0553800120    0.0196788920    0.0003711677    
0.0556026730    0.0192342330    0.0003745586    
0.0558253340    0.0194761150    0.0003800625    
0.0560479950    0.0192684680    0.0003780312    
0.0562706560    0.0201872210    0.0003906797    
0.0564933170    0.0197008460    0.0003892961    
0.0567159780    0.0200347580    0.0003878745    
0.0569386390    0.0198083130    0.0003917258    
0.0571613000    0.0194836490    0.0003801371    
0.0573839610    0.0203503760    0.0003852746    
0.0576066220    0.0195097210    0.0003782773    
0.0578292830    0.0197305510    0.0003791533    
0.0580519440    0.0205373560    0.0003883276    
0.0582746050    0.0191120880    0.0003729587    
0.0584972660    0.0195438470    0.0003757043    
0.0587199270    0.0199891780    0.0003766852    
0.0589425880    0.0192368700    0.0003673675    
0.0591652490    0.0192083910    0.0003692556    
0.0593879100    0.0190710050    0.0003652002    
0.0596105710    0.0194774240    0.0003686817    
0.0598332320    0.0192013540    0.0003691885    
0.0600558930    0.0188381490    0.0003633487    
0.0602785540    0.0197424550    0.0003715743    
0.0605012150    0.0198334500    0.0003716450    
0.0607238760    0.0199091650    0.0003696402    
0.0609465370    0.0197079940    0.0003706632    
0.0611691980    0.0200362650    0.0003743298    
0.0613918590    0.0191701460    0.0003621524    
0.0616145200    0.0195350910    0.0003682590    
0.0618371810    0.0194050900    0.0003634269    
0.0620598420    0.0192950720    0.0003627688    
0.0622825030    0.0199389500    0.0003744115    
0.0625051640    0.0191914540    0.0003621674    
0.0627278250    0.0197795300    0.0003669173    
0.0629504860    0.0193989700    0.0003604163    
0.0631731470    0.0188319230    0.0003595031    
0.0633958080    0.0195769170    0.0003686547    
0.0636184690    0.0196621250    0.0003746016    
0.0638411300    0.0192881170    0.0003696290    
0.0640637910    0.0203290170    0.0003821406    
0.0642864520    0.0192612590    0.0003711646    
0.0645091130    0.0196876530    0.0003785387    
0.0647317740    0.0194174330    0.0003763464    
0.0649544350    0.0198914900    0.0003804937    
0.0651770960    0.0194878890    0.0003745594    
0.0653997570    0.0196041580    0.0003748604    
0.0656224180    0.0192719610    0.0003724789    
0.0658450790    0.0202605360    0.0003764235    
0.0660677400    0.0191637670    0.0003676513    
0.0662904010    0.0194434880    0.0003747457    
0.0665130620    0.0192465280    0.0003712255    
0.0667357230    0.0198999250    0.0003841856    
0.0669583840    0.0193470400    0.0003775436    
0.0671810450    0.0189372580    0.0003714616    
0.0674037060    0.0194411690    0.0003827476    
0.0676263670    0.0194471290    0.0003800036    
0.0678490280    0.0193420190    0.0003766576    
0.0680716890    0.0200691740    0.0003845262    
0.0682943500    0.0192067460    0.0003720533    
0.0685170110    0.0194316030    0.0003704115    
0.0687396720    0.0189141040    0.0003644749    
0.0689623330    0.0192689890    0.0003667125    
0.0691849940    0.0203931240    0.0003798716    
0.0694076550    0.0192757470    0.0003691209    
0.0696303160    0.0200570280    0.0003735461    
0.0698529770    0.0194188140    0.0003667847    
0.0700756380    0.0195243120    0.0003630585    
0.0702982990    0.0200553620    0.0003719701    
0.0705209600    0.0195084300    0.0003642143    
0.0707436210    0.0189860520    0.0003576549    
0.0709662820    0.0196483960    0.0003681774    
0.0711889430    0.0199898340    0.0003668014    
0.0714116040    0.0198823080    0.0003665603    
0.0716342650    0.0196742560    0.0003631569    
0.0718569260    0.0194363030    0.0003595003    
0.0720795870    0.0194463920    0.0003610482    
0.0723022480    0.0193174390    0.0003603975    
0.0725249090    0.0197698800    0.0003602272    
0.0727475700    0.0193880040    0.0003597782    
0.0729702310    0.0191259690    0.0003544887    
0.0731928920    0.0201732410    0.0003655197    
0.0734155530    0.0195453090    0.0003590680    
0.0736382140    0.0199269180    0.0003602296    
0.0738608750    0.0193276770    0.0003570638    
0.0740835360    0.0200391740    0.0003626740    
0.0743061970    0.0204422110    0.0003611450    
0.0745288580    0.0195753690    0.0003570389    
0.0747515190    0.0201757960    0.0003631890    
0.0749741800    0.0193804610    0.0003526636    
0.0751968410    0.0190602130    0.0003524837    
0.0754195020    0.0200036000    0.0003589859    
0.0756421630    0.0197856340    0.0003541062    
0.0758648240    0.0195879480    0.0003531797    
0.0760874850    0.0198935960    0.0003557536    
0.0763101460    0.0196839990    0.0003535350    
0.0765328070    0.0196676690    0.0003570044    
0.0767554680    0.0195167260    0.0003532186    
0.0769781290    0.0200513910    0.0003559668    
0.0772007900    0.0198056690    0.0003509416    
0.0774234510    0.0196542550    0.0003515860    
0.0776461120    0.0197362590    0.0003519845    
0.0778687730    0.0195936030    0.0003495515    
0.0780914340    0.0188941630    0.0003457085    
0.0783140950    0.0193285970    0.0003441126    
0.0785367560    0.0195141120    0.0003513348    
0.0787594170    0.0194082930    0.0003472417    
0.0789820780    0.0194989170    0.0003462680    
0.0792047390    0.0197070900    0.0003492496    
0.0794274000    0.0203862840    0.0003567221    
0.0796500610    0.0196964840    0.0003472128    
0.0798727220    0.0193913230    0.0003441946    
0.0800953830    0.0196732000    0.0003458899    
0.0803180440    0.0195042700    0.0003468008    
0.0805407050    0.0197880660    0.0003489899    
0.0807633660    0.0191800020    0.0003432671    
0.0809860270    0.0193618150    0.0003436166    
0.0812086880    0.0199575790    0.0003458484    
0.0814313490    0.0196501430    0.0003447394    
0.0816540100    0.0193319910    0.0003411587    
0.0818766710    0.0199163160    0.0003470669    
0.0820993320    0.0191447680    0.0003396577    
0.0823219930    0.0194063070    0.0003433804    
0.0825446540    0.0193409020    0.0003403106    
0.0827673150    0.0188160540    0.0003334063    
0.0829899760    0.0197557450    0.0003410220    
0.0832126370    0.0196183190    0.0003413560    
0.0834352980    0.0193296460    0.0003380776    
0.0836579590    0.0191377270    0.0003356463    
0.0838806200    0.0194353970    0.0003393050    
0.0841032810    0.0203181040    0.0003447711    
0.0843259420    0.0195535790    0.0003371808    
0.0845486030    0.0188675160    0.0003312130    
0.0847712640    0.0193332370    0.0003332326    
0.0849939250    0.0195793050    0.0003359305    
0.0852165860    0.0193243560    0.0003341734    
0.0854392470    0.0198105700    0.0003351471    
0.0856619080    0.0194935590    0.0003349033    
0.0858845690    0.0191553040    0.0003289949    
0.0861072300    0.0196670280    0.0003356617    
0.0863298910    0.0192135930    0.0003335070    
0.0865525520    0.0193611190    0.0003318941    
0.0867752130    0.0189827540    0.0003259833    
0.0869978740    0.0188489460    0.0003256602    
0.0872205350    0.0189693800    0.0003262832    
0.0874431960    0.0189357370    0.0003259940    
0.0876658570    0.0192228110    0.0003297170    
0.0878885180    0.0194533560    0.0003322570    
0.0881111790    0.0191430890    0.0003291738    
0.0883338400    0.0194769460    0.0003271704    
0.0885565010    0.0193707940    0.0003307022    
0.0887791620    0.0193721900    0.0003264255    
0.0890018230    0.0190656940    0.0003269739    
0.0892244840    0.0195638240    0.0003317809    
0.0894471450    0.0191701510    0.0003270386    
0.0896698060    0.0200778700    0.0003334293    
0.0898924670    0.0189399270    0.0003253438    
0.0901151280    0.0194188920    0.0003258735    
0.0903377890    0.0195895980    0.0003300420    
0.0905604500    0.0194432640    0.0003272980    
0.0907831110    0.0191054270    0.0003236349    
0.0910057720    0.0196297320    0.0003295509    
0.0912284330    0.0195070480    0.0003238158    
0.0914510940    0.0195818030    0.0003280536    
0.0916737550    0.0195120780    0.0003266563    
0.0918964160    0.0189909480    0.0003236049    
0.0921190770    0.0194992260    0.0003249420    
0.0923417380    0.0194014210    0.0003242590    
0.0925643990    0.0200454080    0.0003287900    
0.0927870600    0.0192532010    0.0003235489    
0.0930097210    0.0199047790    0.0003261764    
0.0932323820    0.0191082920    0.0003219330    
