# Diamond Light Source Ltd.
# Data extracted from: /dls/b21/data/2018/cm19678-3/processed/b21-386631_00705.dat
q(1/A)          Column          Error           
0.0035000000    2.0924295000    0.0246441200    
0.0037226610    1.8695036000    0.0228039130    
0.0039453220    1.5899928000    0.0191315620    
0.0041679830    1.2694899000    0.0140388740    
0.0043906440    0.9607480200    0.0116817440    
0.0046133050    0.7729537700    0.0100587400    
0.0048359660    0.5913360400    0.0083220757    
0.0050586270    0.4679854900    0.0072768282    
0.0052812880    0.4123829300    0.0064584801    
0.0055039490    0.3717420000    0.0058305747    
0.0057266100    0.3176145200    0.0052138060    
0.0059492710    0.2525681900    0.0046493693    
0.0061719320    0.2263418100    0.0042412590    
0.0063945930    0.1966922300    0.0040016467    
0.0066172539    0.1757246300    0.0035516236    
0.0068399149    0.1675907500    0.0034138271    
0.0070625759    0.1518407300    0.0032161274    
0.0072852369    0.1236017400    0.0028582735    
0.0075078979    0.1159759500    0.0027550919    
0.0077305589    0.1030973000    0.0025481379    
0.0079532199    0.0979936650    0.0024498416    
0.0081758809    0.0900923660    0.0023708517    
0.0083985419    0.0819551940    0.0021090555    
0.0086212029    0.0760935100    0.0020322335    
0.0088438639    0.0692683340    0.0019233785    
0.0090665249    0.0661105810    0.0018148282    
0.0092891859    0.0647500710    0.0018746493    
0.0095118469    0.0635458300    0.0017859537    
0.0097345079    0.0582359360    0.0016604986    
0.0099571689    0.0523166930    0.0015413954    
0.0101798300    0.0495464610    0.0015000311    
0.0104024910    0.0486704130    0.0014816796    
0.0106251520    0.0470033050    0.0014610269    
0.0108478130    0.0456110130    0.0014015924    
0.0110704740    0.0420850840    0.0012817957    
0.0112931350    0.0408796760    0.0012670159    
0.0115157960    0.0391623230    0.0012328858    
0.0117384570    0.0384528290    0.0012111503    
0.0119611180    0.0371775210    0.0011943141    
0.0121837790    0.0360124540    0.0011556946    
0.0124064400    0.0366490130    0.0011172649    
0.0126291010    0.0375972910    0.0011174635    
0.0128517620    0.0354487400    0.0010877737    
0.0130744230    0.0315376230    0.0010184030    
0.0132970840    0.0322720300    0.0010251548    
0.0135197450    0.0338538380    0.0010349420    
0.0137424060    0.0302105370    0.0009640570    
0.0139650670    0.0305265900    0.0009475009    
0.0141877280    0.0298641140    0.0009392345    
0.0144103890    0.0294992990    0.0009173846    
0.0146330500    0.0287033750    0.0008991784    
0.0148557110    0.0282955920    0.0008890252    
0.0150783720    0.0272254300    0.0008648443    
0.0153010330    0.0279852220    0.0008644664    
0.0155236940    0.0274159070    0.0008505402    
0.0157463550    0.0274933630    0.0008369840    
0.0159690160    0.0278919850    0.0008398306    
0.0161916770    0.0262284240    0.0008098124    
0.0164143380    0.0262465890    0.0008162301    
0.0166369990    0.0242954180    0.0007610922    
0.0168596600    0.0248530030    0.0007629941    
0.0170823210    0.0255755240    0.0007673041    
0.0173049820    0.0256409290    0.0007696128    
0.0175276430    0.0250286650    0.0007683870    
0.0177503040    0.0249337600    0.0007473778    
0.0179729650    0.0248369370    0.0007385276    
0.0181956260    0.0243374210    0.0007170481    
0.0184182870    0.0235853620    0.0007025554    
0.0186409480    0.0232278730    0.0007016236    
0.0188636090    0.0237527980    0.0007050450    
0.0190862700    0.0219470170    0.0006766555    
0.0193089310    0.0232512680    0.0006953857    
0.0195315920    0.0233074410    0.0006725477    
0.0197542530    0.0237062770    0.0006792657    
0.0199769140    0.0229082900    0.0006677355    
0.0201995750    0.0224227610    0.0006502766    
0.0204222360    0.0224832460    0.0006567426    
0.0206448970    0.0224295620    0.0006512961    
0.0208675580    0.0223860930    0.0006372660    
0.0210902190    0.0221359450    0.0006398100    
0.0213128800    0.0223310510    0.0006339037    
0.0215355410    0.0225400310    0.0006292760    
0.0217582020    0.0230495190    0.0006363484    
0.0219808630    0.0204833660    0.0005990928    
0.0222035240    0.0211978080    0.0006039286    
0.0224261850    0.0207207520    0.0005917800    
0.0226488460    0.0217092850    0.0006011831    
0.0228715070    0.0214690310    0.0005963620    
0.0230941680    0.0211045960    0.0005912788    
0.0233168290    0.0215428290    0.0005988742    
0.0235394900    0.0210862300    0.0005859547    
0.0237621510    0.0211996170    0.0005717111    
0.0239848120    0.0204296580    0.0005618823    
0.0242074730    0.0222937450    0.0005822588    
0.0244301340    0.0211100580    0.0005672370    
0.0246527950    0.0217046440    0.0005804958    
0.0248754560    0.0205471410    0.0005521111    
0.0250981170    0.0204749590    0.0005523695    
0.0253207780    0.0211639540    0.0005448189    
0.0255434390    0.0211740160    0.0005507646    
0.0257661000    0.0212535470    0.0005535829    
0.0259887610    0.0220039220    0.0005572846    
0.0262114220    0.0207126700    0.0005435666    
0.0264340830    0.0209856410    0.0005396924    
0.0266567440    0.0216318550    0.0005445531    
0.0268794050    0.0209797530    0.0005340936    
0.0271020660    0.0215654940    0.0005393059    
0.0273247270    0.0213338860    0.0005331806    
0.0275473880    0.0196962020    0.0005112879    
0.0277700490    0.0209723680    0.0005244731    
0.0279927100    0.0211235150    0.0005217671    
0.0282153710    0.0201451640    0.0005120181    
0.0284380320    0.0203367690    0.0005114651    
0.0286606930    0.0207614120    0.0005123542    
0.0288833540    0.0208911320    0.0005149286    
0.0291060150    0.0212948800    0.0005193873    
0.0293286760    0.0199418700    0.0004956127    
0.0295513370    0.0201606590    0.0004928977    
0.0297739980    0.0205331270    0.0005029065    
0.0299966590    0.0205874360    0.0004949704    
0.0302193200    0.0195748980    0.0004896786    
0.0304419810    0.0196715970    0.0004917899    
0.0306646420    0.0199004400    0.0004806814    
0.0308873030    0.0210295750    0.0004919956    
0.0311099640    0.0200050370    0.0004811072    
0.0313326250    0.0197113590    0.0004722723    
0.0315552860    0.0202604120    0.0004850098    
0.0317779470    0.0209237820    0.0004933153    
0.0320006080    0.0190618030    0.0004601563    
0.0322232690    0.0203194730    0.0004770828    
0.0324459300    0.0200282460    0.0004701155    
0.0326685910    0.0201712380    0.0004710130    
0.0328912520    0.0196407680    0.0004663174    
0.0331139130    0.0209018890    0.0004747977    
0.0333365740    0.0203105340    0.0004695528    
0.0335592350    0.0204329170    0.0004664369    
0.0337818960    0.0209957140    0.0004724405    
0.0340045570    0.0214483260    0.0004767472    
0.0342272170    0.0200809080    0.0004594801    
0.0344498780    0.0198164120    0.0004582518    
0.0346725390    0.0201814870    0.0004538892    
0.0348952000    0.0199575700    0.0004493080    
0.0351178610    0.0201202630    0.0004532005    
0.0353405220    0.0197249420    0.0004466820    
0.0355631830    0.0197171970    0.0004449123    
0.0357858440    0.0201990960    0.0004503166    
0.0360085050    0.0190487340    0.0004386269    
0.0362311660    0.0204327700    0.0004488822    
0.0364538270    0.0201837260    0.0004425575    
0.0366764880    0.0211330980    0.0004525174    
0.0368991490    0.0201435990    0.0004395694    
0.0371218100    0.0202955530    0.0004399619    
0.0373444710    0.0194242520    0.0004351016    
0.0375671320    0.0197758670    0.0004383826    
0.0377897930    0.0202037490    0.0004316292    
0.0380124540    0.0206168110    0.0004387549    
0.0382351150    0.0204207400    0.0004366637    
0.0384577760    0.0199186900    0.0004271016    
0.0386804370    0.0190336790    0.0004206916    
0.0389030980    0.0196897670    0.0004246404    
0.0391257590    0.0196853320    0.0004217102    
0.0393484200    0.0196248390    0.0004196447    
0.0395710810    0.0201096340    0.0004253686    
0.0397937420    0.0195787900    0.0004197168    
0.0400164030    0.0201375360    0.0004273954    
0.0402390640    0.0191102750    0.0004108074    
0.0404617250    0.0196883550    0.0004145147    
0.0406843860    0.0202855060    0.0004166886    
0.0409070470    0.0197928010    0.0004158849    
0.0411297080    0.0199087720    0.0004130664    
0.0413523690    0.0198478660    0.0004134972    
0.0415750300    0.0195469030    0.0004138359    
0.0417976910    0.0206024770    0.0004138746    
0.0420203520    0.0192832840    0.0004019096    
0.0422430130    0.0194633300    0.0004053102    
0.0424656740    0.0187051000    0.0003921654    
0.0426883350    0.0198876950    0.0004063794    
0.0429109960    0.0199453180    0.0004082392    
0.0431336570    0.0195821800    0.0003988067    
0.0433563180    0.0196405570    0.0004028461    
0.0435789790    0.0202370560    0.0004024934    
0.0438016400    0.0189769120    0.0003918809    
0.0440243010    0.0199655200    0.0003978806    
0.0442469620    0.0199005780    0.0003996132    
0.0444696230    0.0204353000    0.0004034942    
0.0446922840    0.0195142180    0.0003931251    
0.0449149450    0.0194276830    0.0003870087    
0.0451376060    0.0201554480    0.0003990591    
0.0453602670    0.0196112930    0.0003895088    
0.0455829280    0.0192649500    0.0003856076    
0.0458055890    0.0194590520    0.0003898052    
0.0460282500    0.0196404040    0.0003868951    
0.0462509110    0.0202473940    0.0003903849    
0.0464735720    0.0198332100    0.0003865895    
0.0466962330    0.0196185270    0.0003862394    
0.0469188940    0.0197040390    0.0003859829    
0.0471415550    0.0198764020    0.0003896585    
0.0473642160    0.0200217700    0.0003856049    
0.0475868770    0.0195145130    0.0003787976    
0.0478095380    0.0200219420    0.0003820119    
0.0480321990    0.0201463780    0.0003840367    
0.0482548600    0.0199494380    0.0003804901    
0.0484775210    0.0204881940    0.0003894221    
0.0487001820    0.0197202720    0.0003764617    
0.0489228430    0.0192755250    0.0003719924    
0.0491455040    0.0197178140    0.0003736338    
0.0493681650    0.0201157780    0.0003806286    
0.0495908260    0.0196186180    0.0003695710    
0.0498134870    0.0190502670    0.0003676452    
0.0500361480    0.0196553530    0.0003724502    
0.0502588090    0.0187557570    0.0003583757    
0.0504814700    0.0198818550    0.0003738010    
0.0507041310    0.0199608410    0.0003700897    
0.0509267920    0.0193306930    0.0003657078    
0.0511494530    0.0194901870    0.0003647648    
0.0513721140    0.0201128820    0.0003738092    
0.0515947750    0.0191839750    0.0003602347    
0.0518174360    0.0201231140    0.0003667244    
0.0520400970    0.0199504780    0.0003626161    
0.0522627580    0.0199759600    0.0003659313    
0.0524854190    0.0199546650    0.0003687099    
0.0527080800    0.0194415350    0.0003667561    
0.0529307410    0.0191985660    0.0003661689    
0.0531534020    0.0201336580    0.0003736151    
0.0533760630    0.0199529380    0.0003730988    
0.0535987240    0.0190966390    0.0003633009    
0.0538213850    0.0196195060    0.0003725073    
0.0540440460    0.0192240650    0.0003669891    
0.0542667070    0.0195680790    0.0003728099    
0.0544893680    0.0198520190    0.0003757050    
0.0547120290    0.0192092480    0.0003670408    
0.0549346900    0.0201421450    0.0003760456    
0.0551573510    0.0199076580    0.0003782512    
0.0553800120    0.0190124650    0.0003665064    
0.0556026730    0.0200298740    0.0003839847    
0.0558253340    0.0197754040    0.0003847326    
0.0560479950    0.0197454830    0.0003844416    
0.0562706560    0.0202970000    0.0003935420    
0.0564933170    0.0200377180    0.0003944157    
0.0567159780    0.0196965200    0.0003863549    
0.0569386390    0.0194436360    0.0003898878    
0.0571613000    0.0194312100    0.0003813709    
0.0573839610    0.0196693330    0.0003805147    
0.0576066220    0.0197117660    0.0003819794    
0.0578292830    0.0187285630    0.0003710992    
0.0580519440    0.0200449180    0.0003854079    
0.0582746050    0.0196187910    0.0003796080    
0.0584972660    0.0202560960    0.0003842479    
0.0587199270    0.0201447810    0.0003798874    
0.0589425880    0.0194495950    0.0003710917    
0.0591652490    0.0192708300    0.0003715560    
0.0593879100    0.0197690810    0.0003735338    
0.0596105710    0.0190160540    0.0003659641    
0.0598332320    0.0193067110    0.0003719023    
0.0600558930    0.0190471610    0.0003670389    
0.0602785540    0.0195291960    0.0003712614    
0.0605012150    0.0196929760    0.0003720294    
0.0607238760    0.0202589130    0.0003745874    
0.0609465370    0.0202625470    0.0003775703    
0.0611691980    0.0195575130    0.0003715313    
0.0613918590    0.0186701980    0.0003590423    
0.0616145200    0.0197782180    0.0003722474    
0.0618371810    0.0188833100    0.0003601561    
0.0620598420    0.0187364160    0.0003591224    
0.0622825030    0.0197963530    0.0003747858    
0.0625051640    0.0197960080    0.0003695189    
0.0627278250    0.0193436290    0.0003645202    
0.0629504860    0.0195642720    0.0003636130    
0.0631731470    0.0197327660    0.0003696934    
0.0633958080    0.0192319130    0.0003670720    
0.0636184690    0.0193103700    0.0003729428    
0.0638411300    0.0191227750    0.0003697337    
0.0640637910    0.0199581870    0.0003803803    
0.0642864520    0.0200956700    0.0003808622    
0.0645091130    0.0189656550    0.0003732413    
0.0647317740    0.0194859980    0.0003787439    
0.0649544350    0.0194431470    0.0003779110    
0.0651770960    0.0198346320    0.0003796145    
0.0653997570    0.0193870000    0.0003744926    
0.0656224180    0.0198128810    0.0003794068    
0.0658450790    0.0193744650    0.0003697929    
0.0660677400    0.0195753210    0.0003732867    
0.0662904010    0.0195571130    0.0003775673    
0.0665130620    0.0191276680    0.0003717792    
0.0667357230    0.0200384480    0.0003872932    
0.0669583840    0.0188636270    0.0003745113    
0.0671810450    0.0193912530    0.0003776164    
0.0674037060    0.0189131290    0.0003792499    
0.0676263670    0.0199261440    0.0003864240    
0.0678490280    0.0187430530    0.0003724847    
0.0680716890    0.0197411230    0.0003831242    
0.0682943500    0.0199729420    0.0003811464    
0.0685170110    0.0199456430    0.0003770045    
0.0687396720    0.0191947750    0.0003688576    
0.0689623330    0.0197212980    0.0003726975    
0.0691849940    0.0197598610    0.0003756465    
0.0694076550    0.0196175020    0.0003740911    
0.0696303160    0.0194906510    0.0003699275    
0.0698529770    0.0200382940    0.0003743024    
0.0700756380    0.0195680180    0.0003651360    
0.0702982990    0.0192793940    0.0003663801    
0.0705209600    0.0196264950    0.0003669947    
0.0707436210    0.0195554360    0.0003646474    
0.0709662820    0.0193073170    0.0003666460    
0.0711889430    0.0191484120    0.0003606494    
0.0714116040    0.0199632740    0.0003689949    
0.0716342650    0.0198759060    0.0003666917    
0.0718569260    0.0196288860    0.0003629382    
0.0720795870    0.0188341270    0.0003569529    
0.0723022480    0.0190883590    0.0003599016    
0.0725249090    0.0192300770    0.0003569090    
0.0727475700    0.0195060800    0.0003625315    
0.0729702310    0.0195011940    0.0003595950    
0.0731928920    0.0195972300    0.0003619201    
0.0734155530    0.0197321330    0.0003624390    
0.0736382140    0.0195914060    0.0003588266    
0.0738608750    0.0200850210    0.0003656661    
0.0740835360    0.0194289800    0.0003587517    
0.0743061970    0.0192398150    0.0003519740    
0.0745288580    0.0196638030    0.0003594899    
0.0747515190    0.0193918520    0.0003577005    
0.0749741800    0.0190345100    0.0003511090    
0.0751968410    0.0201503370    0.0003640901    
0.0754195020    0.0188941390    0.0003504930    
0.0756421630    0.0197313680    0.0003552463    
0.0758648240    0.0192415190    0.0003516523    
0.0760874850    0.0196018550    0.0003547593    
0.0763101460    0.0194489100    0.0003530335    
0.0765328070    0.0199601440    0.0003613029    
0.0767554680    0.0195805010    0.0003554221    
0.0769781290    0.0193114660    0.0003509436    
0.0772007900    0.0198187900    0.0003526721    
0.0774234510    0.0195371010    0.0003521485    
0.0776461120    0.0193860210    0.0003504515    
0.0778687730    0.0197993890    0.0003529981    
0.0780914340    0.0194768880    0.0003526131    
0.0783140950    0.0194944000    0.0003471745    
0.0785367560    0.0191641370    0.0003497711    
0.0787594170    0.0191984620    0.0003469476    
0.0789820780    0.0197903610    0.0003504503    
0.0792047390    0.0192765940    0.0003470023    
0.0794274000    0.0195599810    0.0003510247    
0.0796500610    0.0187599810    0.0003404160    
0.0798727220    0.0196933850    0.0003484600    
0.0800953830    0.0202596150    0.0003526212    
0.0803180440    0.0194849150    0.0003482226    
0.0805407050    0.0196474640    0.0003493469    
0.0807633660    0.0196606080    0.0003491394    
0.0809860270    0.0189063850    0.0003411127    
0.0812086880    0.0202322740    0.0003498216    
0.0814313490    0.0194162170    0.0003442570    
0.0816540100    0.0192428450    0.0003419363    
0.0818766710    0.0190988750    0.0003414326    
0.0820993320    0.0202152370    0.0003506294    
0.0823219930    0.0194135000    0.0003450233    
0.0825446540    0.0202020540    0.0003494036    
0.0827673150    0.0194366610    0.0003404183    
0.0829899760    0.0195932760    0.0003411786    
0.0832126370    0.0197931650    0.0003444504    
0.0834352980    0.0199613560    0.0003451374    
0.0836579590    0.0193616650    0.0003391568    
0.0838806200    0.0192319430    0.0003390765    
0.0841032810    0.0195016750    0.0003393264    
0.0843259420    0.0193934820    0.0003373417    
0.0845486030    0.0192937560    0.0003364735    
0.0847712640    0.0193259570    0.0003347019    
0.0849939250    0.0192595370    0.0003347081    
0.0852165860    0.0191875540    0.0003345197    
0.0854392470    0.0200790140    0.0003389618    
0.0856619080    0.0195396940    0.0003368412    
0.0858845690    0.0189269900    0.0003285322    
0.0861072300    0.0198251900    0.0003385584    
0.0863298910    0.0194608100    0.0003371892    
0.0865525520    0.0194132670    0.0003338690    
0.0867752130    0.0189317520    0.0003270420    
0.0869978740    0.0195167160    0.0003329024    
0.0872205350    0.0196596600    0.0003336942    
0.0874431960    0.0198069540    0.0003349422    
0.0876658570    0.0194570810    0.0003332454    
0.0878885180    0.0197185820    0.0003360525    
0.0881111790    0.0193366860    0.0003323554    
0.0883338400    0.0193015120    0.0003271913    
0.0885565010    0.0191049190    0.0003299350    
0.0887791620    0.0193953320    0.0003281223    
0.0890018230    0.0190886390    0.0003286751    
0.0892244840    0.0194886290    0.0003326654    
0.0894471450    0.0195157780    0.0003314909    
0.0896698060    0.0197879460    0.0003325353    
0.0898924670    0.0195262450    0.0003318602    
0.0901151280    0.0196806780    0.0003295713    
0.0903377890    0.0187600580    0.0003244636    
0.0905604500    0.0188940840    0.0003241262    
0.0907831110    0.0190215010    0.0003244082    
0.0910057720    0.0190903900    0.0003264865    
0.0912284330    0.0192799970    0.0003234061    
0.0914510940    0.0193740490    0.0003278092    
0.0916737550    0.0194104680    0.0003273029    
0.0918964160    0.0195778180    0.0003300778    
0.0921190770    0.0190996930    0.0003230746    
0.0923417380    0.0190606730    0.0003228768    
0.0925643990    0.0192396290    0.0003235951    
0.0927870600    0.0193264160    0.0003256542    
0.0930097210    0.0188044230    0.0003184904    
0.0932323820    0.0195417010    0.0003270606    
