# Diamond Light Source Ltd.
# Data extracted from: /dls/b21/data/2018/cm19678-3/processed/b21-386631_00718.dat
q(1/A)          Column          Error           
0.0035000000    2.0641839000    0.0243740810    
0.0037226610    1.8890867000    0.0228264460    
0.0039453220    1.6151982000    0.0192013560    
0.0041679830    1.2957610000    0.0141236270    
0.0043906440    0.9625275700    0.0116432890    
0.0046133050    0.7672323100    0.0099792155    
0.0048359660    0.5755626100    0.0081757373    
0.0050586270    0.4593376000    0.0071789029    
0.0052812880    0.4201483200    0.0064915357    
0.0055039490    0.3718802900    0.0058070862    
0.0057266100    0.3186776700    0.0052005187    
0.0059492710    0.2646170700    0.0047389246    
0.0061719320    0.2265661100    0.0042254798    
0.0063945930    0.1947152100    0.0039647082    
0.0066172539    0.1791582200    0.0035710435    
0.0068399149    0.1690085300    0.0034137912    
0.0070625759    0.1494154900    0.0031768966    
0.0072852369    0.1314759200    0.0029354909    
0.0075078979    0.1117557000    0.0026931039    
0.0077305589    0.0996698450    0.0024948667    
0.0079532199    0.0967444580    0.0024239196    
0.0081758809    0.0860558170    0.0023073670    
0.0083985419    0.0812121630    0.0020906265    
0.0086212029    0.0766914180    0.0020316053    
0.0088438639    0.0685269410    0.0019049966    
0.0090665249    0.0684692520    0.0018391365    
0.0092891859    0.0630753570    0.0018424509    
0.0095118469    0.0596767050    0.0017234363    
0.0097345079    0.0552109950    0.0016099853    
0.0099571689    0.0529574950    0.0015442719    
0.0101798300    0.0500754630    0.0015016634    
0.0104024910    0.0498265800    0.0014928579    
0.0106251520    0.0454822270    0.0014311364    
0.0108478130    0.0490284260    0.0014470282    
0.0110704740    0.0438603050    0.0013030368    
0.0112931350    0.0427554380    0.0012902985    
0.0115157960    0.0393333080    0.0012303680    
0.0117384570    0.0393399140    0.0012198789    
0.0119611180    0.0392236160    0.0012215698    
0.0121837790    0.0388723480    0.0011956478    
0.0124064400    0.0372189320    0.0011211742    
0.0126291010    0.0368529720    0.0011016851    
0.0128517620    0.0327344380    0.0010408946    
0.0130744230    0.0320876380    0.0010229165    
0.0132970840    0.0321620900    0.0010190948    
0.0135197450    0.0330357980    0.0010180535    
0.0137424060    0.0317258010    0.0009837753    
0.0139650670    0.0296574770    0.0009299802    
0.0141877280    0.0313411230    0.0009581261    
0.0144103890    0.0294492470    0.0009127437    
0.0146330500    0.0283781970    0.0008903032    
0.0148557110    0.0286669840    0.0008910700    
0.0150783720    0.0290395980    0.0008894305    
0.0153010330    0.0274321300    0.0008522748    
0.0155236940    0.0280487920    0.0008566763    
0.0157463550    0.0272874210    0.0008303298    
0.0159690160    0.0261027910    0.0008090243    
0.0161916770    0.0264045410    0.0008091030    
0.0164143380    0.0257238250    0.0008046557    
0.0166369990    0.0259824550    0.0007837568    
0.0168596600    0.0264789430    0.0007842386    
0.0170823210    0.0246528160    0.0007501613    
0.0173049820    0.0251504300    0.0007590043    
0.0175276430    0.0250754880    0.0007658646    
0.0177503040    0.0234356700    0.0007215246    
0.0179729650    0.0238005990    0.0007199094    
0.0181956260    0.0240070610    0.0007091640    
0.0184182870    0.0245491050    0.0007137454    
0.0186409480    0.0239361840    0.0007092397    
0.0188636090    0.0240925870    0.0007070780    
0.0190862700    0.0237690640    0.0007012164    
0.0193089310    0.0229113780    0.0006873757    
0.0195315920    0.0223609380    0.0006559745    
0.0197542530    0.0225998350    0.0006604300    
0.0199769140    0.0230051340    0.0006663258    
0.0201995750    0.0226642920    0.0006510148    
0.0204222360    0.0226936400    0.0006570281    
0.0206448970    0.0223347020    0.0006471788    
0.0208675580    0.0232231800    0.0006463363    
0.0210902190    0.0215647060    0.0006288396    
0.0213128800    0.0218399230    0.0006242526    
0.0215355410    0.0221762730    0.0006215476    
0.0217582020    0.0218801340    0.0006173837    
0.0219808630    0.0221528350    0.0006204035    
0.0222035240    0.0222479570    0.0006161002    
0.0224261850    0.0214682410    0.0005998213    
0.0226488460    0.0208498820    0.0005866808    
0.0228715070    0.0216662890    0.0005965710    
0.0230941680    0.0212720670    0.0005911189    
0.0233168290    0.0211635630    0.0005910780    
0.0235394900    0.0212641110    0.0005859416    
0.0237621510    0.0216940180    0.0005759023    
0.0239848120    0.0216216560    0.0005756062    
0.0242074730    0.0201911910    0.0005517872    
0.0244301340    0.0217184450    0.0005729284    
0.0246527950    0.0203521010    0.0005597493    
0.0248754560    0.0206832720    0.0005516030    
0.0250981170    0.0200959030    0.0005449267    
0.0253207780    0.0209303440    0.0005395207    
0.0255434390    0.0207402490    0.0005427971    
0.0257661000    0.0204743090    0.0005410504    
0.0259887610    0.0214689920    0.0005481494    
0.0262114220    0.0218398210    0.0005558088    
0.0264340830    0.0213183790    0.0005416621    
0.0266567440    0.0212596360    0.0005375730    
0.0268794050    0.0204932260    0.0005256402    
0.0271020660    0.0201939000    0.0005196749    
0.0273247270    0.0207712900    0.0005238865    
0.0275473880    0.0197411360    0.0005097139    
0.0277700490    0.0207699870    0.0005197371    
0.0279927100    0.0211120100    0.0005194270    
0.0282153710    0.0204273990    0.0005134198    
0.0284380320    0.0196682970    0.0005008695    
0.0286606930    0.0200100840    0.0005008786    
0.0288833540    0.0198848130    0.0005002568    
0.0291060150    0.0205002870    0.0005074577    
0.0293286760    0.0204703540    0.0005000211    
0.0295513370    0.0202062020    0.0004913748    
0.0297739980    0.0207757210    0.0005037371    
0.0299966590    0.0202255000    0.0004885329    
0.0302193200    0.0195681870    0.0004875316    
0.0304419810    0.0207131110    0.0005025145    
0.0306646420    0.0202972160    0.0004834041    
0.0308873030    0.0213320970    0.0004934338    
0.0311099640    0.0201351000    0.0004806348    
0.0313326250    0.0197475580    0.0004707139    
0.0315552860    0.0197446420    0.0004767791    
0.0317779470    0.0189602100    0.0004676191    
0.0320006080    0.0200250160    0.0004696517    
0.0322232690    0.0201152720    0.0004726794    
0.0324459300    0.0199911200    0.0004677005    
0.0326685910    0.0216484120    0.0004858988    
0.0328912520    0.0203319080    0.0004724519    
0.0331139130    0.0208437530    0.0004721391    
0.0333365740    0.0205702960    0.0004705548    
0.0335592350    0.0203983400    0.0004640783    
0.0337818960    0.0195225630    0.0004536452    
0.0340045570    0.0204588470    0.0004636584    
0.0342272170    0.0204124430    0.0004613055    
0.0344498780    0.0209002030    0.0004686333    
0.0346725390    0.0195663870    0.0004450356    
0.0348952000    0.0200003700    0.0004478942    
0.0351178610    0.0196069010    0.0004454963    
0.0353405220    0.0195991840    0.0004433796    
0.0355631830    0.0207260580    0.0004542306    
0.0357858440    0.0201785530    0.0004481910    
0.0360085050    0.0195695700    0.0004427097    
0.0362311660    0.0210040990    0.0004531969    
0.0364538270    0.0197253250    0.0004356595    
0.0366764880    0.0194661130    0.0004324735    
0.0368991490    0.0204592860    0.0004411337    
0.0371218100    0.0198979020    0.0004337949    
0.0373444710    0.0192222450    0.0004310094    
0.0375671320    0.0208140780    0.0004478476    
0.0377897930    0.0209573570    0.0004377531    
0.0380124540    0.0209063710    0.0004399635    
0.0382351150    0.0207860210    0.0004386955    
0.0384577760    0.0196058850    0.0004219492    
0.0386804370    0.0198509470    0.0004278181    
0.0389030980    0.0190701320    0.0004161444    
0.0391257590    0.0203976830    0.0004274638    
0.0393484200    0.0210080430    0.0004323521    
0.0395710810    0.0203152410    0.0004257361    
0.0397937420    0.0202617230    0.0004251751    
0.0400164030    0.0198962290    0.0004230369    
0.0402390640    0.0197989670    0.0004163823    
0.0404617250    0.0196525890    0.0004123929    
0.0406843860    0.0198687800    0.0004106487    
0.0409070470    0.0194183900    0.0004101968    
0.0411297080    0.0197328490    0.0004095045    
0.0413523690    0.0193563540    0.0004066245    
0.0415750300    0.0200601710    0.0004174675    
0.0417976910    0.0200170060    0.0004062326    
0.0420203520    0.0195281280    0.0004027488    
0.0422430130    0.0196176850    0.0004051995    
0.0424656740    0.0205126410    0.0004089463    
0.0426883350    0.0202556580    0.0004083935    
0.0429109960    0.0190981710    0.0003977922    
0.0431336570    0.0199087780    0.0004004242    
0.0433563180    0.0194753870    0.0003994584    
0.0435789790    0.0202256270    0.0004006842    
0.0438016400    0.0199728440    0.0004003386    
0.0440243010    0.0195617450    0.0003921772    
0.0442469620    0.0195502120    0.0003944109    
0.0444696230    0.0194339490    0.0003918262    
0.0446922840    0.0203945770    0.0004002015    
0.0449149450    0.0194630620    0.0003857287    
0.0451376060    0.0194688680    0.0003905508    
0.0453602670    0.0201521150    0.0003931793    
0.0455829280    0.0197152130    0.0003884441    
0.0458055890    0.0197832140    0.0003913825    
0.0460282500    0.0197850870    0.0003866813    
0.0462509110    0.0191143150    0.0003777061    
0.0464735720    0.0198233330    0.0003848647    
0.0466962330    0.0194987830    0.0003834363    
0.0469188940    0.0199207050    0.0003864639    
0.0471415550    0.0195577560    0.0003848938    
0.0473642160    0.0204130600    0.0003877140    
0.0475868770    0.0198097380    0.0003800440    
0.0478095380    0.0192609220    0.0003731028    
0.0480321990    0.0194833380    0.0003760730    
0.0482548600    0.0201846440    0.0003811138    
0.0484775210    0.0195379030    0.0003786814    
0.0487001820    0.0195686840    0.0003734318    
0.0489228430    0.0193554570    0.0003711922    
0.0491455040    0.0195730560    0.0003706912    
0.0493681650    0.0195181130    0.0003733516    
0.0495908260    0.0195157620    0.0003670478    
0.0498134870    0.0193684690    0.0003691409    
0.0500361480    0.0201688870    0.0003756946    
0.0502588090    0.0195757990    0.0003645836    
0.0504814700    0.0197843440    0.0003713120    
0.0507041310    0.0198678220    0.0003676705    
0.0509267920    0.0196346410    0.0003670187    
0.0511494530    0.0205244430    0.0003727407    
0.0513721140    0.0203501930    0.0003744237    
0.0515947750    0.0194787590    0.0003614623    
0.0518174360    0.0193243220    0.0003578578    
0.0520400970    0.0198480560    0.0003601601    
0.0522627580    0.0203264330    0.0003675720    
0.0524854190    0.0189964600    0.0003582325    
0.0527080800    0.0197582750    0.0003681737    
0.0529307410    0.0195287960    0.0003677485    
0.0531534020    0.0199162180    0.0003700263    
0.0533760630    0.0192663010    0.0003650781    
0.0535987240    0.0191005260    0.0003618069    
0.0538213850    0.0194755520    0.0003695744    
0.0540440460    0.0198196140    0.0003710601    
0.0542667070    0.0193823890    0.0003694733    
0.0544893680    0.0201786070    0.0003771867    
0.0547120290    0.0199378500    0.0003723612    
0.0549346900    0.0193253310    0.0003667898    
0.0551573510    0.0190703570    0.0003686513    
0.0553800120    0.0198894340    0.0003732843    
0.0556026730    0.0199709200    0.0003818036    
0.0558253340    0.0197872300    0.0003832260    
0.0560479950    0.0195645870    0.0003810640    
0.0562706560    0.0193015850    0.0003821534    
0.0564933170    0.0189685110    0.0003821315    
0.0567159780    0.0194933060    0.0003827371    
0.0569386390    0.0192181040    0.0003859866    
0.0571613000    0.0196092180    0.0003814994    
0.0573839610    0.0191681500    0.0003740527    
0.0576066220    0.0195313180    0.0003786248    
0.0578292830    0.0197668430    0.0003796405    
0.0580519440    0.0203025320    0.0003862422    
0.0582746050    0.0199490720    0.0003811770    
0.0584972660    0.0203387190    0.0003834083    
0.0587199270    0.0200890290    0.0003777628    
0.0589425880    0.0194615500    0.0003696416    
0.0591652490    0.0196983710    0.0003740721    
0.0593879100    0.0197498000    0.0003717784    
0.0596105710    0.0197360890    0.0003712573    
0.0598332320    0.0197765740    0.0003748145    
0.0600558930    0.0198197590    0.0003728312    
0.0602785540    0.0194769400    0.0003692021    
0.0605012150    0.0196179630    0.0003697556    
0.0607238760    0.0194979050    0.0003659361    
0.0609465370    0.0200363350    0.0003738747    
0.0611691980    0.0197569670    0.0003718475    
0.0613918590    0.0196702620    0.0003669800    
0.0616145200    0.0196605210    0.0003695743    
0.0618371810    0.0193647790    0.0003631818    
0.0620598420    0.0196299680    0.0003660371    
0.0622825030    0.0197143030    0.0003724323    
0.0625051640    0.0193764670    0.0003640419    
0.0627278250    0.0201004980    0.0003700175    
0.0629504860    0.0196074780    0.0003624804    
0.0631731470    0.0195874250    0.0003667774    
0.0633958080    0.0197093260    0.0003700344    
0.0636184690    0.0189694250    0.0003680782    
0.0638411300    0.0196708180    0.0003734143    
0.0640637910    0.0199413080    0.0003786173    
0.0642864520    0.0193612260    0.0003722624    
0.0645091130    0.0196510550    0.0003783249    
0.0647317740    0.0189498470    0.0003719233    
0.0649544350    0.0197530700    0.0003793061    
0.0651770960    0.0200928860    0.0003804679    
0.0653997570    0.0194032900    0.0003730712    
0.0656224180    0.0186880840    0.0003669271    
0.0658450790    0.0187706130    0.0003624508    
0.0660677400    0.0195730430    0.0003716922    
0.0662904010    0.0196745360    0.0003771034    
0.0665130620    0.0200201250    0.0003787508    
0.0667357230    0.0197214830    0.0003825990    
0.0669583840    0.0195381270    0.0003795421    
0.0671810450    0.0194906810    0.0003769880    
0.0674037060    0.0196061920    0.0003845091    
0.0676263670    0.0204050550    0.0003893924    
0.0678490280    0.0191139260    0.0003745669    
0.0680716890    0.0190073930    0.0003743528    
0.0682943500    0.0192712670    0.0003728139    
0.0685170110    0.0195164630    0.0003713550    
0.0687396720    0.0198556960    0.0003735733    
0.0689623330    0.0201840170    0.0003754557    
0.0691849940    0.0193175210    0.0003698530    
0.0694076550    0.0195657050    0.0003720227    
0.0696303160    0.0194938320    0.0003683988    
0.0698529770    0.0199252430    0.0003716723    
0.0700756380    0.0198088230    0.0003658278    
0.0702982990    0.0196212550    0.0003680567    
0.0705209600    0.0196723890    0.0003658753    
0.0707436210    0.0197685540    0.0003650841    
0.0709662820    0.0194349200    0.0003663056    
0.0711889430    0.0196070470    0.0003634052    
0.0714116040    0.0191799550    0.0003601592    
0.0716342650    0.0193800550    0.0003605631    
0.0718569260    0.0194371970    0.0003596399    
0.0720795870    0.0199368880    0.0003657067    
0.0723022480    0.0198765800    0.0003657096    
0.0725249090    0.0193639420    0.0003566400    
0.0727475700    0.0201504650    0.0003669183    
0.0729702310    0.0200407260    0.0003629995    
0.0731928920    0.0189618580    0.0003545047    
0.0734155530    0.0197378270    0.0003609639    
0.0736382140    0.0198241760    0.0003594310    
0.0738608750    0.0192361800    0.0003563478    
0.0740835360    0.0202048940    0.0003643036    
0.0743061970    0.0197739670    0.0003553229    
0.0745288580    0.0197069770    0.0003583679    
0.0747515190    0.0191960600    0.0003543905    
0.0749741800    0.0197349930    0.0003560047    
0.0751968410    0.0199482640    0.0003607334    
0.0754195020    0.0194444260    0.0003540621    
0.0756421630    0.0197683820    0.0003540811    
0.0758648240    0.0194620640    0.0003521716    
0.0760874850    0.0195070420    0.0003524090    
0.0763101460    0.0194950450    0.0003519626    
0.0765328070    0.0199868370    0.0003600209    
0.0767554680    0.0196909210    0.0003549210    
0.0769781290    0.0192059800    0.0003485091    
0.0772007900    0.0195276630    0.0003485971    
0.0774234510    0.0195930900    0.0003511667    
0.0776461120    0.0193737590    0.0003488644    
0.0778687730    0.0191336370    0.0003455504    
0.0780914340    0.0194460270    0.0003508490    
0.0783140950    0.0192017120    0.0003431066    
0.0785367560    0.0196043340    0.0003522747    
0.0787594170    0.0192919150    0.0003463255    
0.0789820780    0.0198393090    0.0003494049    
0.0792047390    0.0192879150    0.0003456416    
0.0794274000    0.0202137850    0.0003553394    
0.0796500610    0.0196128740    0.0003466016    
0.0798727220    0.0195583410    0.0003457999    
0.0800953830    0.0199005790    0.0003480101    
0.0803180440    0.0183398830    0.0003364125    
0.0805407050    0.0191927440    0.0003438257    
0.0807633660    0.0197227450    0.0003482172    
0.0809860270    0.0191989860    0.0003422937    
0.0812086880    0.0198522110    0.0003450602    
0.0814313490    0.0193981940    0.0003426473    
0.0816540100    0.0191593440    0.0003397560    
0.0818766710    0.0200277100    0.0003481632    
0.0820993320    0.0200211130    0.0003474715    
0.0823219930    0.0191833560    0.0003415269    
0.0825446540    0.0194389280    0.0003412965    
0.0827673150    0.0196515750    0.0003408528    
0.0829899760    0.0194638500    0.0003386170    
0.0832126370    0.0195375530    0.0003407770    
0.0834352980    0.0197698190    0.0003420302    
0.0836579590    0.0192165130    0.0003364594    
0.0838806200    0.0191354180    0.0003367993    
0.0841032810    0.0199875310    0.0003420798    
0.0843259420    0.0200449910    0.0003415161    
0.0845486030    0.0196609940    0.0003382294    
0.0847712640    0.0191806770    0.0003320365    
0.0849939250    0.0199166160    0.0003389357    
0.0852165860    0.0193616100    0.0003346176    
0.0854392470    0.0195413450    0.0003329836    
0.0856619080    0.0188341290    0.0003293103    
0.0858845690    0.0195481640    0.0003324729    
0.0861072300    0.0195036760    0.0003343869    
0.0863298910    0.0193434970    0.0003347548    
0.0865525520    0.0194208160    0.0003325268    
0.0867752130    0.0193663620    0.0003293809    
0.0869978740    0.0191724060    0.0003285625    
0.0872205350    0.0196178890    0.0003319349    
0.0874431960    0.0190450520    0.0003270531    
0.0876658570    0.0195707730    0.0003328093    
0.0878885180    0.0200865810    0.0003377447    
0.0881111790    0.0198028230    0.0003349202    
0.0883338400    0.0197991650    0.0003299861    
0.0885565010    0.0197917450    0.0003343983    
0.0887791620    0.0195624860    0.0003281447    
0.0890018230    0.0191638000    0.0003279339    
0.0892244840    0.0195893820    0.0003321189    
0.0894471450    0.0199490690    0.0003337384    
0.0896698060    0.0193721810    0.0003276369    
0.0898924670    0.0195242260    0.0003304448    
0.0901151280    0.0193017410    0.0003250078    
0.0903377890    0.0192477820    0.0003272694    
0.0905604500    0.0190439530    0.0003240380    
0.0907831110    0.0189602880    0.0003225211    
0.0910057720    0.0193284860    0.0003271319    
0.0912284330    0.0203712240    0.0003310316    
0.0914510940    0.0193706170    0.0003263990    
0.0916737550    0.0192253420    0.0003243658    
0.0918964160    0.0194021390    0.0003272090    
0.0921190770    0.0196814610    0.0003265761    
0.0923417380    0.0199958970    0.0003293095    
0.0925643990    0.0198873570    0.0003276109    
0.0927870600    0.0194359480    0.0003251996    
0.0930097210    0.0192507110    0.0003208898    
0.0932323820    0.0200124200    0.0003295817    
