# Diamond Light Source Ltd.
# Data extracted from: /dls/b21/data/2018/cm19678-3/processed/b21-386631_00717.dat
q(1/A)          Column          Error           
0.0035000000    2.1036104000    0.0246040510    
0.0037226610    1.8538007000    0.0226106890    
0.0039453220    1.6199955000    0.0192285180    
0.0041679830    1.3001992000    0.0141468140    
0.0043906440    0.9512690700    0.0115741920    
0.0046133050    0.7638815100    0.0099567103    
0.0048359660    0.5908104900    0.0082827518    
0.0050586270    0.4547866600    0.0071427566    
0.0052812880    0.4300182300    0.0065668860    
0.0055039490    0.3778128400    0.0058528172    
0.0057266100    0.3244885600    0.0052473551    
0.0059492710    0.2722174200    0.0048061657    
0.0061719320    0.2295289200    0.0042527237    
0.0063945930    0.2003383900    0.0040212705    
0.0066172539    0.1826207000    0.0036051362    
0.0068399149    0.1653310000    0.0033762120    
0.0070625759    0.1460854100    0.0031410771    
0.0072852369    0.1239214900    0.0028497113    
0.0075078979    0.1142060300    0.0027222793    
0.0077305589    0.0961593320    0.0024503667    
0.0079532199    0.0987348980    0.0024485581    
0.0081758809    0.0873429020    0.0023243968    
0.0083985419    0.0851829290    0.0021409775    
0.0086212029    0.0771650910    0.0020377284    
0.0088438639    0.0692057970    0.0019142766    
0.0090665249    0.0634216000    0.0017699243    
0.0092891859    0.0627975620    0.0018382618    
0.0095118469    0.0597679660    0.0017246341    
0.0097345079    0.0550155780    0.0016070222    
0.0099571689    0.0553365160    0.0015784683    
0.0101798300    0.0524548840    0.0015368199    
0.0104024910    0.0479860970    0.0014649256    
0.0106251520    0.0466916180    0.0014499384    
0.0108478130    0.0465449300    0.0014098053    
0.0110704740    0.0443187030    0.0013097376    
0.0112931350    0.0419319000    0.0012777229    
0.0115157960    0.0414828090    0.0012634521    
0.0117384570    0.0392209980    0.0012179495    
0.0119611180    0.0360609460    0.0011712051    
0.0121837790    0.0387934200    0.0011943506    
0.0124064400    0.0370786980    0.0011189825    
0.0126291010    0.0353989770    0.0010796587    
0.0128517620    0.0328622780    0.0010428529    
0.0130744230    0.0336808310    0.0010479309    
0.0132970840    0.0311244570    0.0010024513    
0.0135197450    0.0326861650    0.0010125818    
0.0137424060    0.0319349150    0.0009869438    
0.0139650670    0.0298283130    0.0009325903    
0.0141877280    0.0303996050    0.0009435595    
0.0144103890    0.0275500410    0.0008827602    
0.0146330500    0.0283742650    0.0008901799    
0.0148557110    0.0297153730    0.0009071546    
0.0150783720    0.0280822480    0.0008745861    
0.0153010330    0.0272430020    0.0008492729    
0.0155236940    0.0291698410    0.0008735678    
0.0157463550    0.0265510230    0.0008189925    
0.0159690160    0.0270769530    0.0008239255    
0.0161916770    0.0264504610    0.0008097501    
0.0164143380    0.0252924280    0.0007978247    
0.0166369990    0.0255060820    0.0007764849    
0.0168596600    0.0264288260    0.0007834418    
0.0170823210    0.0242157530    0.0007434304    
0.0173049820    0.0240934300    0.0007428323    
0.0175276430    0.0245107000    0.0007571380    
0.0177503040    0.0244985430    0.0007376536    
0.0179729650    0.0236231220    0.0007171705    
0.0181956260    0.0238361690    0.0007065865    
0.0184182870    0.0239439920    0.0007048450    
0.0186409480    0.0233235140    0.0007000555    
0.0188636090    0.0221388700    0.0006777558    
0.0190862700    0.0228349970    0.0006872526    
0.0193089310    0.0228875840    0.0006869711    
0.0195315920    0.0220307460    0.0006510682    
0.0197542530    0.0224423280    0.0006580790    
0.0199769140    0.0230019470    0.0006662335    
0.0201995750    0.0230911900    0.0006570718    
0.0204222360    0.0229757900    0.0006610541    
0.0206448970    0.0228003650    0.0006538453    
0.0208675580    0.0218710100    0.0006271942    
0.0210902190    0.0230468370    0.0006500454    
0.0213128800    0.0215157660    0.0006195597    
0.0215355410    0.0219641840    0.0006185254    
0.0217582020    0.0209713620    0.0006043846    
0.0219808630    0.0219760410    0.0006178801    
0.0222035240    0.0206583910    0.0005936417    
0.0224261850    0.0215155370    0.0006004401    
0.0226488460    0.0214412060    0.0005949009    
0.0228715070    0.0232892660    0.0006184686    
0.0230941680    0.0204643420    0.0005797473    
0.0233168290    0.0217218330    0.0005987817    
0.0235394900    0.0200988230    0.0005696210    
0.0237621510    0.0223788880    0.0005848816    
0.0239848120    0.0216339820    0.0005757303    
0.0242074730    0.0210327170    0.0005631295    
0.0244301340    0.0218816640    0.0005750374    
0.0246527950    0.0205493880    0.0005624167    
0.0248754560    0.0208716190    0.0005540704    
0.0250981170    0.0213341640    0.0005614254    
0.0253207780    0.0207744860    0.0005374709    
0.0255434390    0.0205669310    0.0005404869    
0.0257661000    0.0213292150    0.0005521925    
0.0259887610    0.0211581600    0.0005441292    
0.0262114220    0.0205497810    0.0005391063    
0.0264340830    0.0203521710    0.0005292083    
0.0266567440    0.0216780180    0.0005427992    
0.0268794050    0.0211509320    0.0005339714    
0.0271020660    0.0207393370    0.0005266098    
0.0273247270    0.0198436100    0.0005120186    
0.0275473880    0.0206595260    0.0005213994    
0.0277700490    0.0205590470    0.0005170554    
0.0279927100    0.0204574120    0.0005112756    
0.0282153710    0.0199084710    0.0005068214    
0.0284380320    0.0203032360    0.0005088546    
0.0286606930    0.0209098970    0.0005119810    
0.0288833540    0.0193912980    0.0004939757    
0.0291060150    0.0200327370    0.0005016028    
0.0293286760    0.0209193660    0.0005054403    
0.0295513370    0.0204184590    0.0004939147    
0.0297739980    0.0208094790    0.0005041113    
0.0299966590    0.0206356470    0.0004934273    
0.0302193200    0.0196019100    0.0004879178    
0.0304419810    0.0206736720    0.0005020011    
0.0306646420    0.0197533730    0.0004768509    
0.0308873030    0.0205759450    0.0004845760    
0.0311099640    0.0207517660    0.0004879056    
0.0313326250    0.0207545000    0.0004825323    
0.0315552860    0.0200872450    0.0004808644    
0.0317779470    0.0202952220    0.0004837684    
0.0320006080    0.0204958150    0.0004751076    
0.0322232690    0.0205011850    0.0004771590    
0.0324459300    0.0191240480    0.0004574136    
0.0326685910    0.0203695860    0.0004712960    
0.0328912520    0.0200656470    0.0004693157    
0.0331139130    0.0207767060    0.0004713465    
0.0333365740    0.0209656650    0.0004750225    
0.0335592350    0.0200260290    0.0004597918    
0.0337818960    0.0205106060    0.0004649509    
0.0340045570    0.0200252490    0.0004586870    
0.0342272170    0.0197946160    0.0004542392    
0.0344498780    0.0201093240    0.0004596492    
0.0346725390    0.0205251610    0.0004557772    
0.0348952000    0.0198872810    0.0004465952    
0.0351178610    0.0205150650    0.0004556654    
0.0353405220    0.0206093870    0.0004546311    
0.0355631830    0.0196083950    0.0004417829    
0.0357858440    0.0201558500    0.0004479078    
0.0360085050    0.0201376420    0.0004490581    
0.0362311660    0.0204243410    0.0004468676    
0.0364538270    0.0199919730    0.0004385639    
0.0366764880    0.0206930890    0.0004458641    
0.0368991490    0.0201901660    0.0004381924    
0.0371218100    0.0204530410    0.0004397741    
0.0373444710    0.0201665490    0.0004414387    
0.0375671320    0.0198766170    0.0004376157    
0.0377897930    0.0193179570    0.0004202536    
0.0380124540    0.0202924780    0.0004334258    
0.0382351150    0.0198203580    0.0004283543    
0.0384577760    0.0201842720    0.0004280982    
0.0386804370    0.0198758530    0.0004280568    
0.0389030980    0.0197575510    0.0004235490    
0.0391257590    0.0198574430    0.0004217358    
0.0393484200    0.0199019400    0.0004207871    
0.0395710810    0.0193668320    0.0004156509    
0.0397937420    0.0195541810    0.0004176566    
0.0400164030    0.0194887680    0.0004186537    
0.0402390640    0.0207505750    0.0004262417    
0.0404617250    0.0200565350    0.0004165807    
0.0406843860    0.0197641940    0.0004095381    
0.0409070470    0.0202127740    0.0004184741    
0.0411297080    0.0206308000    0.0004186892    
0.0413523690    0.0200284020    0.0004135946    
0.0415750300    0.0195101340    0.0004116758    
0.0417976910    0.0195196470    0.0004011263    
0.0420203520    0.0195835580    0.0004032921    
0.0422430130    0.0195061810    0.0004040184    
0.0424656740    0.0189446630    0.0003929785    
0.0426883350    0.0195448240    0.0004011358    
0.0429109960    0.0198328350    0.0004053430    
0.0431336570    0.0197771780    0.0003990710    
0.0433563180    0.0193743830    0.0003983936    
0.0435789790    0.0195958220    0.0003943691    
0.0438016400    0.0200824030    0.0004014073    
0.0440243010    0.0201564960    0.0003980669    
0.0442469620    0.0199214270    0.0003981102    
0.0444696230    0.0193759640    0.0003912142    
0.0446922840    0.0200305570    0.0003965864    
0.0449149450    0.0204387340    0.0003952513    
0.0451376060    0.0194270030    0.0003901036    
0.0453602670    0.0200266020    0.0003919258    
0.0455829280    0.0193987340    0.0003852871    
0.0458055890    0.0194707980    0.0003882530    
0.0460282500    0.0189511540    0.0003784181    
0.0462509110    0.0198206110    0.0003845944    
0.0464735720    0.0198803540    0.0003853911    
0.0466962330    0.0198278010    0.0003866310    
0.0469188940    0.0194306790    0.0003816546    
0.0471415550    0.0200700510    0.0003898751    
0.0473642160    0.0199905410    0.0003836539    
0.0475868770    0.0200256940    0.0003820835    
0.0478095380    0.0196051180    0.0003763956    
0.0480321990    0.0197637030    0.0003787429    
0.0482548600    0.0199588040    0.0003789494    
0.0484775210    0.0193590710    0.0003769182    
0.0487001820    0.0193735900    0.0003715399    
0.0489228430    0.0201997710    0.0003791755    
0.0491455040    0.0185735760    0.0003610777    
0.0493681650    0.0201437870    0.0003792622    
0.0495908260    0.0194440340    0.0003663473    
0.0498134870    0.0202521230    0.0003774416    
0.0500361480    0.0197392590    0.0003716459    
0.0502588090    0.0195051950    0.0003639004    
0.0504814700    0.0193635340    0.0003673164    
0.0507041310    0.0191575460    0.0003610136    
0.0509267920    0.0202767140    0.0003729455    
0.0511494530    0.0197026310    0.0003651767    
0.0513721140    0.0193554910    0.0003651329    
0.0515947750    0.0198918710    0.0003652499    
0.0518174360    0.0198649830    0.0003628043    
0.0520400970    0.0198191680    0.0003598730    
0.0522627580    0.0196257820    0.0003611563    
0.0524854190    0.0193653290    0.0003616688    
0.0527080800    0.0193645420    0.0003644616    
0.0529307410    0.0201423390    0.0003734548    
0.0531534020    0.0198515940    0.0003693999    
0.0533760630    0.0197478160    0.0003695864    
0.0535987240    0.0193171590    0.0003638277    
0.0538213850    0.0191222440    0.0003661814    
0.0540440460    0.0201988960    0.0003745678    
0.0542667070    0.0193726610    0.0003693550    
0.0544893680    0.0200771180    0.0003762109    
0.0547120290    0.0193649170    0.0003669467    
0.0549346900    0.0190233470    0.0003638875    
0.0551573510    0.0191959720    0.0003698378    
0.0553800120    0.0194313650    0.0003689352    
0.0556026730    0.0200849260    0.0003828653    
0.0558253340    0.0201406980    0.0003866069    
0.0560479950    0.0199848760    0.0003851087    
0.0562706560    0.0201916080    0.0003908379    
0.0564933170    0.0198972440    0.0003913476    
0.0567159780    0.0193253030    0.0003810578    
0.0569386390    0.0194479800    0.0003882613    
0.0571613000    0.0195693960    0.0003810854    
0.0573839610    0.0190195270    0.0003725740    
0.0576066220    0.0198001480    0.0003811952    
0.0578292830    0.0200192670    0.0003820304    
0.0580519440    0.0191388950    0.0003749842    
0.0582746050    0.0200846720    0.0003824438    
0.0584972660    0.0192808050    0.0003732779    
0.0587199270    0.0194754190    0.0003719230    
0.0589425880    0.0201397730    0.0003760013    
0.0591652490    0.0198590020    0.0003755682    
0.0593879100    0.0197750530    0.0003719903    
0.0596105710    0.0202989600    0.0003764881    
0.0598332320    0.0190138480    0.0003674903    
0.0600558930    0.0198871360    0.0003734385    
0.0602785540    0.0195512150    0.0003698797    
0.0605012150    0.0198591290    0.0003719956    
0.0607238760    0.0192960620    0.0003640119    
0.0609465370    0.0190360660    0.0003643975    
0.0611691980    0.0195233090    0.0003696165    
0.0613918590    0.0196675370    0.0003669291    
0.0616145200    0.0193104860    0.0003662442    
0.0618371810    0.0202134020    0.0003710287    
0.0620598420    0.0199002280    0.0003685227    
0.0622825030    0.0199226160    0.0003743689    
0.0625051640    0.0197157130    0.0003671894    
0.0627278250    0.0188922590    0.0003586994    
0.0629504860    0.0193434540    0.0003600067    
0.0631731470    0.0193168970    0.0003642105    
0.0633958080    0.0200191780    0.0003729059    
0.0636184690    0.0190524900    0.0003688577    
0.0638411300    0.0197247940    0.0003739003    
0.0640637910    0.0198379180    0.0003776083    
0.0642864520    0.0195875530    0.0003744060    
0.0645091130    0.0196774620    0.0003785528    
0.0647317740    0.0192391660    0.0003747257    
0.0649544350    0.0198013110    0.0003797426    
0.0651770960    0.0192112950    0.0003720019    
0.0653997570    0.0197233470    0.0003761095    
0.0656224180    0.0195066760    0.0003748512    
0.0658450790    0.0196917170    0.0003712116    
0.0660677400    0.0200502380    0.0003761698    
0.0662904010    0.0191586940    0.0003721012    
0.0665130620    0.0191432930    0.0003703381    
0.0667357230    0.0192734640    0.0003782020    
0.0669583840    0.0199777310    0.0003837616    
0.0671810450    0.0201660130    0.0003834369    
0.0674037060    0.0191209280    0.0003796945    
0.0676263670    0.0190574340    0.0003762883    
0.0678490280    0.0197424490    0.0003806492    
0.0680716890    0.0197714370    0.0003817762    
0.0682943500    0.0200834740    0.0003805627    
0.0685170110    0.0191322440    0.0003676559    
0.0687396720    0.0198951110    0.0003739181    
0.0689623330    0.0197762000    0.0003716176    
0.0691849940    0.0193927270    0.0003705466    
0.0694076550    0.0192517960    0.0003690007    
0.0696303160    0.0197974200    0.0003712306    
0.0698529770    0.0193124690    0.0003658872    
0.0700756380    0.0196844850    0.0003646526    
0.0702982990    0.0194942810    0.0003668385    
0.0705209600    0.0193907100    0.0003632213    
0.0707436210    0.0194085200    0.0003617192    
0.0709662820    0.0202122770    0.0003735336    
0.0711889430    0.0191733180    0.0003593383    
0.0714116040    0.0198399830    0.0003662783    
0.0716342650    0.0192834670    0.0003596385    
0.0718569260    0.0195609180    0.0003607577    
0.0720795870    0.0199341260    0.0003656561    
0.0723022480    0.0197930930    0.0003649155    
0.0725249090    0.0200442880    0.0003628260    
0.0727475700    0.0196065720    0.0003619075    
0.0729702310    0.0198472990    0.0003612184    
0.0731928920    0.0192905700    0.0003575394    
0.0734155530    0.0197746940    0.0003612758    
0.0736382140    0.0190264870    0.0003521009    
0.0738608750    0.0190817060    0.0003548895    
0.0740835360    0.0197160890    0.0003598450    
0.0743061970    0.0191966680    0.0003500734    
0.0745288580    0.0196977300    0.0003582590    
0.0747515190    0.0197625300    0.0003595565    
0.0749741800    0.0206504860    0.0003641433    
0.0751968410    0.0197433050    0.0003588506    
0.0754195020    0.0195126400    0.0003546581    
0.0756421630    0.0195627240    0.0003522100    
0.0758648240    0.0196441490    0.0003537907    
0.0760874850    0.0200899790    0.0003576111    
0.0763101460    0.0196003520    0.0003528875    
0.0765328070    0.0197895440    0.0003582148    
0.0767554680    0.0197009850    0.0003549871    
0.0769781290    0.0192222880    0.0003486328    
0.0772007900    0.0202156100    0.0003546598    
0.0774234510    0.0202133910    0.0003566575    
0.0776461120    0.0196851330    0.0003516324    
0.0778687730    0.0194866490    0.0003486994    
0.0780914340    0.0188610450    0.0003455076    
0.0783140950    0.0192297010    0.0003433328    
0.0785367560    0.0197155430    0.0003532480    
0.0787594170    0.0194135680    0.0003473917    
0.0789820780    0.0189013380    0.0003410216    
0.0792047390    0.0197125650    0.0003494015    
0.0794274000    0.0196738570    0.0003505373    
0.0796500610    0.0195672860    0.0003461746    
0.0798727220    0.0193049960    0.0003435292    
0.0800953830    0.0192589000    0.0003423297    
0.0803180440    0.0190715760    0.0003430339    
0.0805407050    0.0198182580    0.0003493594    
0.0807633660    0.0192651240    0.0003441298    
0.0809860270    0.0196173520    0.0003459791    
0.0812086880    0.0198374660    0.0003449081    
0.0814313490    0.0192684210    0.0003414756    
0.0816540100    0.0195301850    0.0003430045    
0.0818766710    0.0195044920    0.0003435615    
0.0820993320    0.0195600880    0.0003434238    
0.0823219930    0.0194664330    0.0003440137    
0.0825446540    0.0195800290    0.0003425092    
0.0827673150    0.0199739690    0.0003436135    
0.0829899760    0.0193374590    0.0003374924    
0.0832126370    0.0197071950    0.0003422296    
0.0834352980    0.0194061720    0.0003388465    
0.0836579590    0.0198499930    0.0003419364    
0.0838806200    0.0196069360    0.0003409000    
0.0841032810    0.0197271960    0.0003398212    
0.0843259420    0.0199898530    0.0003410225    
0.0845486030    0.0197920790    0.0003393316    
0.0847712640    0.0195458320    0.0003351590    
0.0849939250    0.0196658700    0.0003367720    
0.0852165860    0.0194340960    0.0003352201    
0.0854392470    0.0194194990    0.0003319209    
0.0856619080    0.0197123570    0.0003368772    
0.0858845690    0.0193362620    0.0003306431    
0.0861072300    0.0198563710    0.0003373735    
0.0863298910    0.0194334960    0.0003355094    
0.0865525520    0.0193156550    0.0003316023    
0.0867752130    0.0193468750    0.0003291923    
0.0869978740    0.0194962830    0.0003313032    
0.0872205350    0.0203339630    0.0003379152    
0.0874431960    0.0200419850    0.0003354806    
0.0876658570    0.0191153580    0.0003288915    
0.0878885180    0.0196806460    0.0003342913    
0.0881111790    0.0196301700    0.0003334339    
0.0883338400    0.0193620010    0.0003263001    
0.0885565010    0.0196873180    0.0003334918    
0.0887791620    0.0198239480    0.0003303074    
0.0890018230    0.0195651280    0.0003313269    
0.0892244840    0.0195585180    0.0003318341    
0.0894471450    0.0198737320    0.0003330845    
0.0896698060    0.0195135490    0.0003288074    
0.0898924670    0.0189008140    0.0003251039    
0.0901151280    0.0196273740    0.0003277152    
0.0903377890    0.0196957810    0.0003310332    
0.0905604500    0.0188924680    0.0003227243    
0.0907831110    0.0195884860    0.0003277977    
0.0910057720    0.0193590230    0.0003273675    
0.0912284330    0.0192066440    0.0003214079    
0.0914510940    0.0192854460    0.0003256580    
0.0916737550    0.0192007910    0.0003241361    
0.0918964160    0.0195539410    0.0003284637    
0.0921190770    0.0191640100    0.0003222321    
0.0923417380    0.0203727090    0.0003323749    
0.0925643990    0.0191453360    0.0003214187    
0.0927870600    0.0198521690    0.0003286405    
0.0930097210    0.0196972890    0.0003245679    
0.0932323820    0.0199499490    0.0003290440    
