# Diamond Light Source Ltd.
# Data extracted from: /dls/b21/data/2018/cm19678-3/processed/b21-386631_00714.dat
q(1/A)          Column          Error           
0.0035000000    2.1019959000    0.0245918970    
0.0037226610    1.8773798000    0.0227515230    
0.0039453220    1.6139339000    0.0191903950    
0.0041679830    1.2775985000    0.0140217760    
0.0043906440    0.9771061800    0.0117290280    
0.0046133050    0.7711089400    0.0100025990    
0.0048359660    0.6046114100    0.0083780096    
0.0050586270    0.4685939500    0.0072495736    
0.0052812880    0.4295224000    0.0065623757    
0.0055039490    0.3738317000    0.0058212574    
0.0057266100    0.3160181700    0.0051778435    
0.0059492710    0.2691032900    0.0047780690    
0.0061719320    0.2182919500    0.0041468607    
0.0063945930    0.1984381600    0.0040017129    
0.0066172539    0.1820112200    0.0035987186    
0.0068399149    0.1657081400    0.0033796881    
0.0070625759    0.1498345300    0.0031807772    
0.0072852369    0.1272355800    0.0028872472    
0.0075078979    0.1140511000    0.0027201325    
0.0077305589    0.0962629920    0.0024514169    
0.0079532199    0.1001094500    0.0024652714    
0.0081758809    0.0917764160    0.0023823970    
0.0083985419    0.0812906110    0.0020912606    
0.0086212029    0.0764486940    0.0020280237    
0.0088438639    0.0717315890    0.0019486812    
0.0090665249    0.0638520680    0.0017757250    
0.0092891859    0.0628913190    0.0018394308    
0.0095118469    0.0592572510    0.0017170606    
0.0097345079    0.0559890090    0.0016209983    
0.0099571689    0.0535236910    0.0015522266    
0.0101798300    0.0486620020    0.0014800525    
0.0104024910    0.0477966740    0.0014618702    
0.0106251520    0.0460060900    0.0014390964    
0.0108478130    0.0461931320    0.0014043126    
0.0110704740    0.0447733080    0.0013162928    
0.0112931350    0.0431682700    0.0012962802    
0.0115157960    0.0415890840    0.0012649301    
0.0117384570    0.0388720340    0.0012123854    
0.0119611180    0.0395898420    0.0012270391    
0.0121837790    0.0356967850    0.0011455644    
0.0124064400    0.0367329070    0.0011136298    
0.0126291010    0.0375969510    0.0011125501    
0.0128517620    0.0329212080    0.0010436725    
0.0130744230    0.0341623720    0.0010552792    
0.0132970840    0.0321505460    0.0010187290    
0.0135197450    0.0328984930    0.0010157534    
0.0137424060    0.0323243060    0.0009928332    
0.0139650670    0.0311043950    0.0009522249    
0.0141877280    0.0301001020    0.0009387964    
0.0144103890    0.0288165340    0.0009027233    
0.0146330500    0.0287589090    0.0008960945    
0.0148557110    0.0290443210    0.0008967543    
0.0150783720    0.0281849860    0.0008760878    
0.0153010330    0.0293810180    0.0008818716    
0.0155236940    0.0271232810    0.0008422729    
0.0157463550    0.0269997990    0.0008257939    
0.0159690160    0.0260182250    0.0008075678    
0.0161916770    0.0263454950    0.0008080528    
0.0164143380    0.0238778350    0.0007751073    
0.0166369990    0.0256422610    0.0007784692    
0.0168596600    0.0261675940    0.0007794744    
0.0170823210    0.0266976310    0.0007805124    
0.0173049820    0.0243399920    0.0007465412    
0.0175276430    0.0243650000    0.0007548012    
0.0177503040    0.0247152020    0.0007408266    
0.0179729650    0.0253593280    0.0007429760    
0.0181956260    0.0228885680    0.0006923227    
0.0184182870    0.0243743410    0.0007110726    
0.0186409480    0.0249779700    0.0007243796    
0.0188636090    0.0232956620    0.0006951606    
0.0190862700    0.0230160770    0.0006898962    
0.0193089310    0.0231093030    0.0006902144    
0.0195315920    0.0234493970    0.0006716296    
0.0197542530    0.0225724300    0.0006599110    
0.0199769140    0.0235177790    0.0006735882    
0.0201995750    0.0219832020    0.0006410432    
0.0204222360    0.0215065330    0.0006394979    
0.0206448970    0.0229828010    0.0006563836    
0.0208675580    0.0212008530    0.0006174424    
0.0210902190    0.0223268580    0.0006397407    
0.0213128800    0.0221174700    0.0006280940    
0.0215355410    0.0215588150    0.0006127235    
0.0217582020    0.0217503800    0.0006154399    
0.0219808630    0.0227006760    0.0006279152    
0.0222035240    0.0205685620    0.0005922844    
0.0224261850    0.0209076880    0.0005918324    
0.0226488460    0.0222780970    0.0006063330    
0.0228715070    0.0213629450    0.0005922737    
0.0230941680    0.0214614760    0.0005936382    
0.0233168290    0.0208589250    0.0005867031    
0.0235394900    0.0212887590    0.0005861759    
0.0237621510    0.0216403830    0.0005750867    
0.0239848120    0.0205416260    0.0005609452    
0.0242074730    0.0216461110    0.0005712190    
0.0244301340    0.0204566590    0.0005559367    
0.0246527950    0.0208218680    0.0005660708    
0.0248754560    0.0213081820    0.0005597733    
0.0250981170    0.0200886900    0.0005447311    
0.0253207780    0.0207142990    0.0005366327    
0.0255434390    0.0213860300    0.0005510839    
0.0257661000    0.0217675840    0.0005577766    
0.0259887610    0.0203840240    0.0005340232    
0.0262114220    0.0206725110    0.0005406541    
0.0264340830    0.0202788970    0.0005281966    
0.0266567440    0.0204910640    0.0005276717    
0.0268794050    0.0202971850    0.0005230261    
0.0271020660    0.0201732830    0.0005193163    
0.0273247270    0.0209091290    0.0005255275    
0.0275473880    0.0211022780    0.0005268987    
0.0277700490    0.0212565680    0.0005256955    
0.0279927100    0.0195203220    0.0004993733    
0.0282153710    0.0217616250    0.0005298266    
0.0284380320    0.0207832790    0.0005147783    
0.0286606930    0.0212687500    0.0005162987    
0.0288833540    0.0201418730    0.0005033895    
0.0291060150    0.0211207750    0.0005149877    
0.0293286760    0.0210856870    0.0005073896    
0.0295513370    0.0210350980    0.0005012621    
0.0297739980    0.0201577920    0.0004961002    
0.0299966590    0.0194986880    0.0004795887    
0.0302193200    0.0203746940    0.0004973878    
0.0304419810    0.0203278790    0.0004977303    
0.0306646420    0.0206582110    0.0004875964    
0.0308873030    0.0193848180    0.0004702892    
0.0311099640    0.0202310930    0.0004816927    
0.0313326250    0.0200881710    0.0004746709    
0.0315552860    0.0197835900    0.0004771634    
0.0317779470    0.0209824790    0.0004918369    
0.0320006080    0.0196214350    0.0004648116    
0.0322232690    0.0207520420    0.0004800165    
0.0324459300    0.0203230270    0.0004714825    
0.0326685910    0.0205068240    0.0004728289    
0.0328912520    0.0198088130    0.0004662511    
0.0331139130    0.0205583110    0.0004688110    
0.0333365740    0.0206597550    0.0004714922    
0.0335592350    0.0197999740    0.0004571389    
0.0337818960    0.0201583470    0.0004608901    
0.0340045570    0.0192540350    0.0004497183    
0.0342272170    0.0198527810    0.0004548559    
0.0344498780    0.0197267440    0.0004552056    
0.0346725390    0.0207837220    0.0004585884    
0.0348952000    0.0202238050    0.0004503083    
0.0351178610    0.0200147290    0.0004500249    
0.0353405220    0.0198227630    0.0004458213    
0.0355631830    0.0193652410    0.0004389868    
0.0357858440    0.0207086810    0.0004539588    
0.0360085050    0.0198328570    0.0004455978    
0.0362311660    0.0198431180    0.0004404148    
0.0364538270    0.0204973560    0.0004440237    
0.0366764880    0.0203139450    0.0004417119    
0.0368991490    0.0204709590    0.0004411804    
0.0371218100    0.0204107180    0.0004392704    
0.0373444710    0.0201524430    0.0004412356    
0.0375671320    0.0201226860    0.0004402676    
0.0377897930    0.0197615800    0.0004250048    
0.0380124540    0.0208063120    0.0004388306    
0.0382351150    0.0198622670    0.0004287597    
0.0384577760    0.0201889010    0.0004281001    
0.0386804370    0.0202677960    0.0004322091    
0.0389030980    0.0197804300    0.0004237475    
0.0391257590    0.0202560370    0.0004259005    
0.0393484200    0.0197285530    0.0004189040    
0.0395710810    0.0201206560    0.0004236162    
0.0397937420    0.0201474260    0.0004238981    
0.0400164030    0.0201048820    0.0004251730    
0.0402390640    0.0197480920    0.0004157723    
0.0404617250    0.0201905240    0.0004179239    
0.0406843860    0.0197768060    0.0004096236    
0.0409070470    0.0200264180    0.0004164946    
0.0411297080    0.0194199400    0.0004061718    
0.0413523690    0.0189907670    0.0004026940    
0.0415750300    0.0197142670    0.0004137783    
0.0417976910    0.0193834840    0.0003996807    
0.0420203520    0.0192969290    0.0004002857    
0.0422430130    0.0201711870    0.0004108023    
0.0424656740    0.0199347810    0.0004030726    
0.0426883350    0.0200096870    0.0004058334    
0.0429109960    0.0198036160    0.0004049997    
0.0431336570    0.0202478170    0.0004037469    
0.0433563180    0.0203201900    0.0004079570    
0.0435789790    0.0201152120    0.0003995173    
0.0438016400    0.0189710010    0.0003900988    
0.0440243010    0.0198062310    0.0003945496    
0.0442469620    0.0193363880    0.0003921777    
0.0444696230    0.0199481850    0.0003969051    
0.0446922840    0.0198141830    0.0003943951    
0.0449149450    0.0198916600    0.0003898827    
0.0451376060    0.0195323650    0.0003911169    
0.0453602670    0.0199531720    0.0003911635    
0.0455829280    0.0202895870    0.0003939911    
0.0458055890    0.0198844750    0.0003923125    
0.0460282500    0.0193322630    0.0003821620    
0.0462509110    0.0192939770    0.0003794089    
0.0464735720    0.0197415240    0.0003840008    
0.0466962330    0.0199440290    0.0003877198    
0.0469188940    0.0193214700    0.0003805386    
0.0471415550    0.0194523010    0.0003837858    
0.0473642160    0.0195518130    0.0003793788    
0.0475868770    0.0195621100    0.0003775934    
0.0478095380    0.0195718980    0.0003760351    
0.0480321990    0.0195489090    0.0003766376    
0.0482548600    0.0194868360    0.0003744009    
0.0484775210    0.0199197470    0.0003822952    
0.0487001820    0.0199392160    0.0003768831    
0.0489228430    0.0194481350    0.0003720130    
0.0491455040    0.0196291920    0.0003711557    
0.0493681650    0.0194611340    0.0003727393    
0.0495908260    0.0202816550    0.0003741137    
0.0498134870    0.0194318460    0.0003696780    
0.0500361480    0.0194340930    0.0003687212    
0.0502588090    0.0197995530    0.0003665955    
0.0504814700    0.0197842090    0.0003712441    
0.0507041310    0.0195614200    0.0003647589    
0.0509267920    0.0191132430    0.0003620478    
0.0511494530    0.0198945260    0.0003669103    
0.0513721140    0.0195715940    0.0003671252    
0.0515947750    0.0200081800    0.0003662757    
0.0518174360    0.0192113920    0.0003567466    
0.0520400970    0.0193901500    0.0003559174    
0.0522627580    0.0195815890    0.0003607097    
0.0524854190    0.0192192460    0.0003602624    
0.0527080800    0.0195042930    0.0003657341    
0.0529307410    0.0195771670    0.0003681376    
0.0531534020    0.0194623690    0.0003657203    
0.0533760630    0.0196397320    0.0003685330    
0.0535987240    0.0197445130    0.0003677896    
0.0538213850    0.0197770300    0.0003723570    
0.0540440460    0.0199861110    0.0003725486    
0.0542667070    0.0195866470    0.0003713484    
0.0544893680    0.0200163090    0.0003755993    
0.0547120290    0.0198959340    0.0003719029    
0.0549346900    0.0193740670    0.0003671861    
0.0551573510    0.0193840860    0.0003716046    
0.0553800120    0.0189088400    0.0003639008    
0.0556026730    0.0200367190    0.0003823634    
0.0558253340    0.0192978660    0.0003783895    
0.0560479950    0.0202995060    0.0003880855    
0.0562706560    0.0193627290    0.0003826895    
0.0564933170    0.0198466850    0.0003908070    
0.0567159780    0.0190280730    0.0003780743    
0.0569386390    0.0193816970    0.0003875564    
0.0571613000    0.0198544410    0.0003838085    
0.0573839610    0.0199785060    0.0003818091    
0.0576066220    0.0197811090    0.0003809699    
0.0578292830    0.0201897840    0.0003836116    
0.0580519440    0.0195974340    0.0003794078    
0.0582746050    0.0194322600    0.0003761396    
0.0584972660    0.0199701640    0.0003798504    
0.0587199270    0.0190876680    0.0003681614    
0.0589425880    0.0194686010    0.0003696422    
0.0591652490    0.0198404230    0.0003753511    
0.0593879100    0.0191970230    0.0003664729    
0.0596105710    0.0194288120    0.0003682897    
0.0598332320    0.0193647120    0.0003708245    
0.0600558930    0.0197004710    0.0003716409    
0.0602785540    0.0196588420    0.0003708555    
0.0605012150    0.0195691220    0.0003692287    
0.0607238760    0.0191064430    0.0003621790    
0.0609465370    0.0197222900    0.0003708665    
0.0611691980    0.0197498760    0.0003717140    
0.0613918590    0.0197863970    0.0003679956    
0.0616145200    0.0198270810    0.0003710699    
0.0618371810    0.0192829300    0.0003623485    
0.0620598420    0.0196160990    0.0003658421    
0.0622825030    0.0196790930    0.0003720328    
0.0625051640    0.0193216530    0.0003634613    
0.0627278250    0.0193306780    0.0003627976    
0.0629504860    0.0198750880    0.0003648802    
0.0631731470    0.0192508500    0.0003635473    
0.0633958080    0.0189313850    0.0003625930    
0.0636184690    0.0195837560    0.0003739238    
0.0638411300    0.0194299180    0.0003710541    
0.0640637910    0.0194958000    0.0003742968    
0.0642864520    0.0192326410    0.0003709576    
0.0645091130    0.0188285350    0.0003702561    
0.0647317740    0.0193735690    0.0003759909    
0.0649544350    0.0199425660    0.0003810527    
0.0651770960    0.0200424630    0.0003799220    
0.0653997570    0.0197405120    0.0003762316    
0.0656224180    0.0199704920    0.0003792397    
0.0658450790    0.0193235730    0.0003676847    
0.0660677400    0.0195589620    0.0003714918    
0.0662904010    0.0187209490    0.0003677851    
0.0665130620    0.0201490330    0.0003799000    
0.0667357230    0.0198034420    0.0003833243    
0.0669583840    0.0192141930    0.0003763151    
0.0671810450    0.0193160360    0.0003752279    
0.0674037060    0.0192222480    0.0003806572    
0.0676263670    0.0192537940    0.0003781802    
0.0678490280    0.0199729000    0.0003828222    
0.0680716890    0.0199734470    0.0003836793    
0.0682943500    0.0197329810    0.0003771858    
0.0685170110    0.0197496180    0.0003734996    
0.0687396720    0.0193356680    0.0003685827    
0.0689623330    0.0199603430    0.0003733025    
0.0691849940    0.0192822730    0.0003694491    
0.0694076550    0.0199475930    0.0003755683    
0.0696303160    0.0194937940    0.0003683323    
0.0698529770    0.0191626730    0.0003644253    
0.0700756380    0.0196531320    0.0003643219    
0.0702982990    0.0191173010    0.0003632342    
0.0705209600    0.0200394530    0.0003692066    
0.0707436210    0.0201793330    0.0003687915    
0.0709662820    0.0195383690    0.0003672133    
0.0711889430    0.0197144720    0.0003643339    
0.0714116040    0.0192541980    0.0003607908    
0.0716342650    0.0199565040    0.0003658205    
0.0718569260    0.0197694680    0.0003626357    
0.0720795870    0.0202583180    0.0003685768    
0.0723022480    0.0193851530    0.0003610956    
0.0725249090    0.0191206100    0.0003543285    
0.0727475700    0.0195020680    0.0003609020    
0.0729702310    0.0190279130    0.0003536445    
0.0731928920    0.0193326950    0.0003578902    
0.0734155530    0.0193875990    0.0003576829    
0.0736382140    0.0197388870    0.0003585926    
0.0738608750    0.0193216600    0.0003570746    
0.0740835360    0.0193177710    0.0003561522    
0.0743061970    0.0199583470    0.0003569116    
0.0745288580    0.0194718960    0.0003561601    
0.0747515190    0.0193722980    0.0003559497    
0.0749741800    0.0196380330    0.0003550653    
0.0751968410    0.0197324330    0.0003587122    
0.0754195020    0.0190829840    0.0003506930    
0.0756421630    0.0199197830    0.0003553706    
0.0758648240    0.0195761150    0.0003531386    
0.0760874850    0.0191245500    0.0003488743    
0.0763101460    0.0198120010    0.0003547486    
0.0765328070    0.0193119450    0.0003538268    
0.0767554680    0.0194792130    0.0003529445    
0.0769781290    0.0199260840    0.0003549187    
0.0772007900    0.0199187800    0.0003520076    
0.0774234510    0.0193595560    0.0003490050    
0.0776461120    0.0192286510    0.0003474931    
0.0778687730    0.0199876600    0.0003531146    
0.0780914340    0.0192302290    0.0003488342    
0.0783140950    0.0191886910    0.0003429287    
0.0785367560    0.0196922140    0.0003530000    
0.0787594170    0.0194155040    0.0003473707    
0.0789820780    0.0197768250    0.0003487916    
0.0792047390    0.0191571580    0.0003444062    
0.0794274000    0.0192511530    0.0003467129    
0.0796500610    0.0192139630    0.0003429971    
0.0798727220    0.0189584860    0.0003403947    
0.0800953830    0.0191573180    0.0003413881    
0.0803180440    0.0192277580    0.0003443977    
0.0805407050    0.0195799160    0.0003472140    
0.0807633660    0.0191932740    0.0003434497    
0.0809860270    0.0197411380    0.0003470307    
0.0812086880    0.0192275490    0.0003395271    
0.0814313490    0.0197118970    0.0003453448    
0.0816540100    0.0195740620    0.0003433518    
0.0818766710    0.0192097780    0.0003409184    
0.0820993320    0.0195075500    0.0003429245    
0.0823219930    0.0199970170    0.0003486320    
0.0825446540    0.0196775450    0.0003433233    
0.0827673150    0.0190062520    0.0003351494    
0.0829899760    0.0201517520    0.0003444870    
0.0832126370    0.0198454530    0.0003433901    
0.0834352980    0.0196503340    0.0003409338    
0.0836579590    0.0199516180    0.0003427728    
0.0838806200    0.0189329970    0.0003349530    
0.0841032810    0.0196467650    0.0003390903    
0.0843259420    0.0195899260    0.0003375567    
0.0845486030    0.0195376070    0.0003371059    
0.0847712640    0.0191048420    0.0003313200    
0.0849939250    0.0198056820    0.0003379297    
0.0852165860    0.0198980710    0.0003391607    
0.0854392470    0.0194208910    0.0003318962    
0.0856619080    0.0197425470    0.0003370980    
0.0858845690    0.0196768110    0.0003335053    
0.0861072300    0.0190038150    0.0003300149    
0.0863298910    0.0200025330    0.0003403485    
0.0865525520    0.0191008110    0.0003297166    
0.0867752130    0.0193762110    0.0003294055    
0.0869978740    0.0199535340    0.0003351288    
0.0872205350    0.0190213430    0.0003267905    
0.0874431960    0.0196221070    0.0003319113    
0.0876658570    0.0197843920    0.0003345607    
0.0878885180    0.0196081850    0.0003336386    
0.0881111790    0.0194333220    0.0003317213    
0.0883338400    0.0192092930    0.0003249750    
0.0885565010    0.0194062310    0.0003310660    
0.0887791620    0.0197535500    0.0003296840    
0.0890018230    0.0200320260    0.0003352200    
0.0892244840    0.0187886990    0.0003252023    
0.0894471450    0.0195065690    0.0003299570    
0.0896698060    0.0196255720    0.0003297135    
0.0898924670    0.0195451720    0.0003305627    
0.0901151280    0.0201701090    0.0003321786    
0.0903377890    0.0200418810    0.0003338922    
0.0905604500    0.0191638850    0.0003249984    
0.0907831110    0.0199790330    0.0003310129    
0.0910057720    0.0194488460    0.0003280900    
0.0912284330    0.0193260900    0.0003223703    
0.0914510940    0.0193856560    0.0003264670    
0.0916737550    0.0194208560    0.0003259524    
0.0918964160    0.0194999840    0.0003279741    
0.0921190770    0.0198152380    0.0003276253    
0.0923417380    0.0193381510    0.0003237900    
0.0925643990    0.0188605820    0.0003189843    
0.0927870600    0.0197498870    0.0003277566    
0.0930097210    0.0200832780    0.0003276965    
0.0932323820    0.0196742570    0.0003267266    
