# Diamond Light Source Ltd.
# Data extracted from: /dls/b21/data/2018/cm19678-3/processed/b21-386631_00725.dat
q(1/A)          Column          Error           
0.0035000000    2.1116606000    0.0246577630    
0.0037226610    1.8415607000    0.0225420250    
0.0039453220    1.5882185000    0.0190441530    
0.0041679830    1.2765705000    0.0140214770    
0.0043906440    0.9665791600    0.0116701210    
0.0046133050    0.7750730100    0.0100320990    
0.0048359660    0.5848568800    0.0082431461    
0.0050586270    0.4652472400    0.0072263923    
0.0052812880    0.4157021900    0.0064583986    
0.0055039490    0.3724838500    0.0058129685    
0.0057266100    0.3044577900    0.0050841920    
0.0059492710    0.2530073400    0.0046347358    
0.0061719320    0.2160144400    0.0041267437    
0.0063945930    0.1972165500    0.0039908970    
0.0066172539    0.1815091300    0.0035951214    
0.0068399149    0.1675590600    0.0033998063    
0.0070625759    0.1452185300    0.0031325920    
0.0072852369    0.1280538500    0.0028976205    
0.0075078979    0.1097231700    0.0026690395    
0.0077305589    0.1013343900    0.0025161205    
0.0079532199    0.0977555620    0.0024370445    
0.0081758809    0.0886899490    0.0023428868    
0.0083985419    0.0815141160    0.0020949318    
0.0086212029    0.0770992280    0.0020374104    
0.0088438639    0.0697201110    0.0019218971    
0.0090665249    0.0614791490    0.0017430813    
0.0092891859    0.0631007950    0.0018431939    
0.0095118469    0.0599995240    0.0017284399    
0.0097345079    0.0576285810    0.0016451884    
0.0099571689    0.0514021000    0.0015217315    
0.0101798300    0.0509516090    0.0015150487    
0.0104024910    0.0480568480    0.0014664023    
0.0106251520    0.0468070210    0.0014521224    
0.0108478130    0.0432803350    0.0013598340    
0.0110704740    0.0431034480    0.0012920057    
0.0112931350    0.0418377580    0.0012766336    
0.0115157960    0.0407737490    0.0012529469    
0.0117384570    0.0381069900    0.0012008532    
0.0119611180    0.0390110760    0.0012185013    
0.0121837790    0.0396974260    0.0012085138    
0.0124064400    0.0351728980    0.0010901413    
0.0126291010    0.0341002760    0.0010599557    
0.0128517620    0.0320522900    0.0010301996    
0.0130744230    0.0336338380    0.0010474833    
0.0132970840    0.0342748390    0.0010522471    
0.0135197450    0.0320761650    0.0010033605    
0.0137424060    0.0328372400    0.0010010609    
0.0139650670    0.0299903460    0.0009353732    
0.0141877280    0.0292146740    0.0009252380    
0.0144103890    0.0298573350    0.0009192313    
0.0146330500    0.0304853340    0.0009229509    
0.0148557110    0.0281520790    0.0008832093    
0.0150783720    0.0270618670    0.0008587824    
0.0153010330    0.0277345780    0.0008571330    
0.0155236940    0.0281386300    0.0008582202    
0.0157463550    0.0267928990    0.0008229374    
0.0159690160    0.0263892510    0.0008136155    
0.0161916770    0.0278785660    0.0008315479    
0.0164143380    0.0254572160    0.0008006364    
0.0166369990    0.0265842190    0.0007929408    
0.0168596600    0.0252580860    0.0007661004    
0.0170823210    0.0248454460    0.0007532382    
0.0173049820    0.0244502110    0.0007485148    
0.0175276430    0.0245239830    0.0007575484    
0.0177503040    0.0242229220    0.0007336912    
0.0179729650    0.0240062560    0.0007231587    
0.0181956260    0.0247711950    0.0007205070    
0.0184182870    0.0235625280    0.0006993973    
0.0186409480    0.0235253660    0.0007032688    
0.0188636090    0.0232511450    0.0006947608    
0.0190862700    0.0225783350    0.0006835646    
0.0193089310    0.0232507080    0.0006925868    
0.0195315920    0.0232940160    0.0006696559    
0.0197542530    0.0229564820    0.0006657549    
0.0199769140    0.0227054940    0.0006621056    
0.0201995750    0.0228043840    0.0006531554    
0.0204222360    0.0225124920    0.0006545325    
0.0206448970    0.0232066910    0.0006598244    
0.0208675580    0.0226386850    0.0006382795    
0.0210902190    0.0228208450    0.0006470257    
0.0213128800    0.0220272330    0.0006270503    
0.0215355410    0.0222026440    0.0006220424    
0.0217582020    0.0215578350    0.0006129433    
0.0219808630    0.0216403150    0.0006133084    
0.0222035240    0.0217619510    0.0006094565    
0.0224261850    0.0217451510    0.0006037991    
0.0226488460    0.0222125100    0.0006056706    
0.0228715070    0.0215928630    0.0005956793    
0.0230941680    0.0207712250    0.0005842363    
0.0233168290    0.0217170900    0.0005988786    
0.0235394900    0.0213211440    0.0005868452    
0.0237621510    0.0218557110    0.0005781611    
0.0239848120    0.0211551520    0.0005694775    
0.0242074730    0.0218587270    0.0005742363    
0.0244301340    0.0213038480    0.0005675480    
0.0246527950    0.0200522860    0.0005557230    
0.0248754560    0.0202206810    0.0005455096    
0.0250981170    0.0203996550    0.0005491402    
0.0253207780    0.0208553090    0.0005386613    
0.0255434390    0.0207628250    0.0005432020    
0.0257661000    0.0220273410    0.0005613086    
0.0259887610    0.0215756570    0.0005496202    
0.0262114220    0.0204477130    0.0005379115    
0.0264340830    0.0202117500    0.0005275224    
0.0266567440    0.0206698710    0.0005301710    
0.0268794050    0.0218637610    0.0005430419    
0.0271020660    0.0209913950    0.0005299438    
0.0273247270    0.0201716110    0.0005163727    
0.0275473880    0.0207760510    0.0005230094    
0.0277700490    0.0205962110    0.0005176627    
0.0279927100    0.0217981200    0.0005279063    
0.0282153710    0.0207583730    0.0005176668    
0.0284380320    0.0208118860    0.0005153289    
0.0286606930    0.0205324050    0.0005074760    
0.0288833540    0.0210637400    0.0005149766    
0.0291060150    0.0199933270    0.0005012449    
0.0293286760    0.0210651090    0.0005073353    
0.0295513370    0.0205490650    0.0004956261    
0.0297739980    0.0208085370    0.0005042364    
0.0299966590    0.0205169750    0.0004921398    
0.0302193200    0.0198920180    0.0004916482    
0.0304419810    0.0195994070    0.0004889168    
0.0306646420    0.0208927960    0.0004905439    
0.0308873030    0.0199933470    0.0004777959    
0.0311099640    0.0209236990    0.0004900553    
0.0313326250    0.0200249150    0.0004741036    
0.0315552860    0.0197986750    0.0004775273    
0.0317779470    0.0200293180    0.0004807190    
0.0320006080    0.0197906670    0.0004669897    
0.0322232690    0.0201789420    0.0004735223    
0.0324459300    0.0201305400    0.0004694232    
0.0326685910    0.0203806250    0.0004715514    
0.0328912520    0.0207025390    0.0004768348    
0.0331139130    0.0201246330    0.0004640167    
0.0333365740    0.0200186300    0.0004642957    
0.0335592350    0.0202058800    0.0004619769    
0.0337818960    0.0198046220    0.0004570027    
0.0340045570    0.0204250490    0.0004633687    
0.0342272170    0.0194716040    0.0004506398    
0.0344498780    0.0208350470    0.0004679966    
0.0346725390    0.0204451460    0.0004550112    
0.0348952000    0.0199281620    0.0004471751    
0.0351178610    0.0199894850    0.0004499125    
0.0353405220    0.0199482550    0.0004474008    
0.0355631830    0.0198480750    0.0004445952    
0.0357858440    0.0197186220    0.0004431431    
0.0360085050    0.0204491300    0.0004526404    
0.0362311660    0.0197408600    0.0004394460    
0.0364538270    0.0200894420    0.0004397508    
0.0366764880    0.0206370190    0.0004453802    
0.0368991490    0.0199727390    0.0004359447    
0.0371218100    0.0195085650    0.0004296165    
0.0373444710    0.0196650640    0.0004360335    
0.0375671320    0.0193475470    0.0004318692    
0.0377897930    0.0197034690    0.0004245412    
0.0380124540    0.0201645370    0.0004321744    
0.0382351150    0.0201460250    0.0004319761    
0.0384577760    0.0194411840    0.0004202578    
0.0386804370    0.0201817870    0.0004314555    
0.0389030980    0.0193140250    0.0004188815    
0.0391257590    0.0204148710    0.0004277301    
0.0393484200    0.0196812860    0.0004185613    
0.0395710810    0.0199931890    0.0004224332    
0.0397937420    0.0196451070    0.0004187399    
0.0400164030    0.0196433020    0.0004204241    
0.0402390640    0.0199733970    0.0004182968    
0.0404617250    0.0201886040    0.0004180633    
0.0406843860    0.0200890610    0.0004130021    
0.0409070470    0.0195822550    0.0004120070    
0.0411297080    0.0200298630    0.0004126581    
0.0413523690    0.0198598010    0.0004119617    
0.0415750300    0.0201377910    0.0004183587    
0.0417976910    0.0200415740    0.0004065638    
0.0420203520    0.0195443130    0.0004029969    
0.0422430130    0.0202619210    0.0004118821    
0.0424656740    0.0201538850    0.0004054361    
0.0426883350    0.0195389410    0.0004011841    
0.0429109960    0.0203243380    0.0004104462    
0.0431336570    0.0202390850    0.0004038137    
0.0433563180    0.0193357030    0.0003981035    
0.0435789790    0.0198367310    0.0003968934    
0.0438016400    0.0194029060    0.0003946648    
0.0440243010    0.0193651280    0.0003902800    
0.0442469620    0.0197013790    0.0003960126    
0.0444696230    0.0197263010    0.0003948420    
0.0446922840    0.0205127900    0.0004014406    
0.0449149450    0.0196850460    0.0003880004    
0.0451376060    0.0199234690    0.0003951638    
0.0453602670    0.0193544470    0.0003853969    
0.0455829280    0.0201442720    0.0003927274    
0.0458055890    0.0201397650    0.0003949733    
0.0460282500    0.0195284520    0.0003842427    
0.0462509110    0.0197193530    0.0003837147    
0.0464735720    0.0197640520    0.0003843663    
0.0466962330    0.0192350920    0.0003809116    
0.0469188940    0.0194337080    0.0003817877    
0.0471415550    0.0202173260    0.0003914090    
0.0473642160    0.0197803640    0.0003817351    
0.0475868770    0.0194822040    0.0003769651    
0.0478095380    0.0195362090    0.0003758353    
0.0480321990    0.0196800070    0.0003780425    
0.0482548600    0.0190697630    0.0003705137    
0.0484775210    0.0191492860    0.0003749720    
0.0487001820    0.0198403540    0.0003760909    
0.0489228430    0.0192279550    0.0003700422    
0.0491455040    0.0197705790    0.0003726320    
0.0493681650    0.0197831880    0.0003759541    
0.0495908260    0.0201935280    0.0003734423    
0.0498134870    0.0190595590    0.0003662592    
0.0500361480    0.0201350140    0.0003754547    
0.0502588090    0.0201203260    0.0003696941    
0.0504814700    0.0197992940    0.0003715271    
0.0507041310    0.0197601190    0.0003667466    
0.0509267920    0.0189562360    0.0003606951    
0.0511494530    0.0196659040    0.0003649351    
0.0513721140    0.0196485440    0.0003679864    
0.0515947750    0.0199563330    0.0003659403    
0.0518174360    0.0194050410    0.0003586767    
0.0520400970    0.0194572400    0.0003566685    
0.0522627580    0.0195765710    0.0003608010    
0.0524854190    0.0199908220    0.0003675628    
0.0527080800    0.0189220600    0.0003603712    
0.0529307410    0.0195505270    0.0003680273    
0.0531534020    0.0198554740    0.0003695361    
0.0533760630    0.0195162940    0.0003675131    
0.0535987240    0.0201503710    0.0003716920    
0.0538213850    0.0197359820    0.0003721122    
0.0540440460    0.0191951810    0.0003652417    
0.0542667070    0.0191506470    0.0003673320    
0.0544893680    0.0190864190    0.0003669109    
0.0547120290    0.0197441360    0.0003706226    
0.0549346900    0.0196534860    0.0003699654    
0.0551573510    0.0197125570    0.0003748827    
0.0553800120    0.0195189900    0.0003698663    
0.0556026730    0.0196576750    0.0003788739    
0.0558253340    0.0192606050    0.0003781682    
0.0560479950    0.0189933220    0.0003755352    
0.0562706560    0.0197938060    0.0003870735    
0.0564933170    0.0191763970    0.0003842973    
0.0567159780    0.0187343520    0.0003752880    
0.0569386390    0.0189621680    0.0003834851    
0.0571613000    0.0196171260    0.0003816533    
0.0573839610    0.0193292290    0.0003756968    
0.0576066220    0.0192161110    0.0003756329    
0.0578292830    0.0200082330    0.0003820285    
0.0580519440    0.0196344300    0.0003799106    
0.0582746050    0.0190681910    0.0003727414    
0.0584972660    0.0194937100    0.0003754348    
0.0587199270    0.0198484040    0.0003755693    
0.0589425880    0.0191392900    0.0003666423    
0.0591652490    0.0199124040    0.0003761747    
0.0593879100    0.0194497060    0.0003690175    
0.0596105710    0.0200514570    0.0003742872    
0.0598332320    0.0195287150    0.0003725335    
0.0600558930    0.0198488000    0.0003731795    
0.0602785540    0.0199398840    0.0003736394    
0.0605012150    0.0192842520    0.0003666711    
0.0607238760    0.0197187580    0.0003680770    
0.0609465370    0.0207074440    0.0003801612    
0.0611691980    0.0199679750    0.0003739033    
0.0613918590    0.0194110700    0.0003646276    
0.0616145200    0.0191819510    0.0003651222    
0.0618371810    0.0198155080    0.0003674583    
0.0620598420    0.0196856820    0.0003666301    
0.0622825030    0.0193914370    0.0003694445    
0.0625051640    0.0199042980    0.0003690413    
0.0627278250    0.0191682490    0.0003614079    
0.0629504860    0.0192466750    0.0003592023    
0.0631731470    0.0199869560    0.0003705739    
0.0633958080    0.0194323230    0.0003674990    
0.0636184690    0.0192200050    0.0003705760    
0.0638411300    0.0196503860    0.0003732956    
0.0640637910    0.0191654710    0.0003712538    
0.0642864520    0.0196769330    0.0003753609    
0.0645091130    0.0191124920    0.0003731798    
0.0647317740    0.0189940020    0.0003724314    
0.0649544350    0.0201326490    0.0003830103    
0.0651770960    0.0198919790    0.0003786373    
0.0653997570    0.0192532430    0.0003717009    
0.0656224180    0.0193442730    0.0003733887    
0.0658450790    0.0202135020    0.0003761995    
0.0660677400    0.0192773020    0.0003689478    
0.0662904010    0.0198777040    0.0003791219    
0.0665130620    0.0194045580    0.0003729577    
0.0667357230    0.0194918220    0.0003804414    
0.0669583840    0.0192583480    0.0003768909    
0.0671810450    0.0193599430    0.0003757973    
0.0674037060    0.0197574330    0.0003860671    
0.0676263670    0.0194543200    0.0003802894    
0.0678490280    0.0197311190    0.0003806430    
0.0680716890    0.0190519380    0.0003748668    
0.0682943500    0.0193511910    0.0003736615    
0.0685170110    0.0201393290    0.0003773104    
0.0687396720    0.0191816580    0.0003672518    
0.0689623330    0.0197449950    0.0003714248    
0.0691849940    0.0199557930    0.0003759894    
0.0694076550    0.0193613000    0.0003701489    
0.0696303160    0.0202260420    0.0003753294    
0.0698529770    0.0193714850    0.0003665451    
0.0700756380    0.0191206550    0.0003594896    
0.0702982990    0.0192216660    0.0003643631    
0.0705209600    0.0194284480    0.0003636730    
0.0707436210    0.0197967610    0.0003654181    
0.0709662820    0.0192631800    0.0003647571    
0.0711889430    0.0197227660    0.0003645495    
0.0714116040    0.0203446350    0.0003710079    
0.0716342650    0.0195489330    0.0003622036    
0.0718569260    0.0197179720    0.0003623012    
0.0720795870    0.0192537010    0.0003594587    
0.0723022480    0.0195816830    0.0003630598    
0.0725249090    0.0195951710    0.0003588354    
0.0727475700    0.0200717010    0.0003662744    
0.0729702310    0.0202987600    0.0003654025    
0.0731928920    0.0194667830    0.0003592660    
0.0734155530    0.0199835290    0.0003632769    
0.0736382140    0.0195713930    0.0003572041    
0.0738608750    0.0188014720    0.0003523694    
0.0740835360    0.0196084910    0.0003589589    
0.0743061970    0.0196989050    0.0003547194    
0.0745288580    0.0191086130    0.0003529565    
0.0747515190    0.0198714190    0.0003606434    
0.0749741800    0.0191840070    0.0003510706    
0.0751968410    0.0192776120    0.0003546892    
0.0754195020    0.0188459970    0.0003486415    
0.0756421630    0.0195289120    0.0003520009    
0.0758648240    0.0190172730    0.0003481943    
0.0760874850    0.0197059820    0.0003542729    
0.0763101460    0.0199161040    0.0003558149    
0.0765328070    0.0202089900    0.0003620892    
0.0767554680    0.0197244620    0.0003552948    
0.0769781290    0.0193655620    0.0003500245    
0.0772007900    0.0199401940    0.0003523310    
0.0774234510    0.0193617250    0.0003491576    
0.0776461120    0.0192244590    0.0003475877    
0.0778687730    0.0194098060    0.0003481055    
0.0780914340    0.0200554700    0.0003563763    
0.0783140950    0.0202091820    0.0003520635    
0.0785367560    0.0197325600    0.0003534962    
0.0787594170    0.0200273980    0.0003529365    
0.0789820780    0.0192747910    0.0003444674    
0.0792047390    0.0187937830    0.0003412542    
0.0794274000    0.0183409720    0.0003385465    
0.0796500610    0.0194124430    0.0003448956    
0.0798727220    0.0192542940    0.0003431707    
0.0800953830    0.0202373700    0.0003510133    
0.0803180440    0.0201066920    0.0003523155    
0.0805407050    0.0201001220    0.0003519303    
0.0807633660    0.0193616710    0.0003450845    
0.0809860270    0.0196707190    0.0003465433    
0.0812086880    0.0200642190    0.0003469678    
0.0814313490    0.0196784880    0.0003451835    
0.0816540100    0.0192333720    0.0003404803    
0.0818766710    0.0193334140    0.0003421441    
0.0820993320    0.0191725170    0.0003400965    
0.0823219930    0.0189538650    0.0003395463    
0.0825446540    0.0199862890    0.0003461381    
0.0827673150    0.0197423020    0.0003417076    
0.0829899760    0.0199549560    0.0003429314    
0.0832126370    0.0194146140    0.0003397717    
0.0834352980    0.0197245140    0.0003417070    
0.0836579590    0.0194069590    0.0003381907    
0.0838806200    0.0193388360    0.0003386530    
0.0841032810    0.0191404790    0.0003348203    
0.0843259420    0.0201753140    0.0003426936    
0.0845486030    0.0193138460    0.0003352977    
0.0847712640    0.0196714290    0.0003363252    
0.0849939250    0.0188225310    0.0003295612    
0.0852165860    0.0195950480    0.0003366966    
0.0854392470    0.0195549020    0.0003331663    
0.0856619080    0.0191470170    0.0003321013    
0.0858845690    0.0195617050    0.0003326551    
0.0861072300    0.0193796300    0.0003333891    
0.0863298910    0.0196990310    0.0003378853    
0.0865525520    0.0195824370    0.0003339749    
0.0867752130    0.0195254890    0.0003307980    
0.0869978740    0.0190674800    0.0003277283    
0.0872205350    0.0186313070    0.0003235460    
0.0874431960    0.0193673750    0.0003298755    
0.0876658570    0.0189728480    0.0003277520    
0.0878885180    0.0197878930    0.0003352917    
0.0881111790    0.0192554720    0.0003303258    
0.0883338400    0.0191304060    0.0003244306    
0.0885565010    0.0192627660    0.0003299657    
0.0887791620    0.0196639870    0.0003290612    
0.0890018230    0.0193736300    0.0003297908    
0.0892244840    0.0190903100    0.0003279270    
0.0894471450    0.0192365800    0.0003277904    
0.0896698060    0.0192802110    0.0003269241    
0.0898924670    0.0193922260    0.0003293922    
0.0901151280    0.0197913050    0.0003291700    
0.0903377890    0.0197843890    0.0003318669    
0.0905604500    0.0196914680    0.0003295672    
0.0907831110    0.0194893330    0.0003270556    
0.0910057720    0.0195966090    0.0003294595    
0.0912284330    0.0198843490    0.0003271178    
0.0914510940    0.0195379900    0.0003278722    
0.0916737550    0.0196984560    0.0003283988    
0.0918964160    0.0196307830    0.0003291977    
0.0921190770    0.0189087620    0.0003201657    
0.0923417380    0.0186530020    0.0003181235    
0.0925643990    0.0193986670    0.0003236259    
0.0927870600    0.0194437860    0.0003253308    
0.0930097210    0.0191835600    0.0003203942    
0.0932323820    0.0198412990    0.0003282357    
