# Diamond Light Source Ltd.
# Data extracted from: /dls/b21/data/2018/cm19678-3/processed/b21-386631_00728.dat
q(1/A)          Column          Error           
0.0035000000    2.0403603000    0.0242419520    
0.0037226610    1.8568052000    0.0226389170    
0.0039453220    1.5707030000    0.0189420130    
0.0041679830    1.2865488000    0.0140785200    
0.0043906440    0.9523845200    0.0115860490    
0.0046133050    0.7755917800    0.0100371330    
0.0048359660    0.6005095900    0.0083541201    
0.0050586270    0.4551851700    0.0071490154    
0.0052812880    0.4237704800    0.0065218618    
0.0055039490    0.3728805500    0.0058170348    
0.0057266100    0.3044745900    0.0050851817    
0.0059492710    0.2745792100    0.0048290844    
0.0061719320    0.2272852700    0.0042337411    
0.0063945930    0.2009178700    0.0040288461    
0.0066172539    0.1881943400    0.0036613407    
0.0068399149    0.1711343500    0.0034364604    
0.0070625759    0.1447938700    0.0031285309    
0.0072852369    0.1256698200    0.0028710003    
0.0075078979    0.1121628600    0.0026990001    
0.0077305589    0.0994308800    0.0024927929    
0.0079532199    0.0962688320    0.0024188454    
0.0081758809    0.0907007620    0.0023696932    
0.0083985419    0.0820799360    0.0021025412    
0.0086212029    0.0740012130    0.0019963904    
0.0088438639    0.0693724320    0.0019174193    
0.0090665249    0.0640704180    0.0017797338    
0.0092891859    0.0669996750    0.0018996015    
0.0095118469    0.0605674690    0.0017368913    
0.0097345079    0.0543590450    0.0015981044    
0.0099571689    0.0518248620    0.0015282318    
0.0101798300    0.0505179830    0.0015088400    
0.0104024910    0.0474462570    0.0014573002    
0.0106251520    0.0461016200    0.0014413796    
0.0108478130    0.0444060160    0.0013776346    
0.0110704740    0.0436602140    0.0013005406    
0.0112931350    0.0421245150    0.0012812152    
0.0115157960    0.0396704390    0.0012360852    
0.0117384570    0.0388768180    0.0012131248    
0.0119611180    0.0384530270    0.0012099568    
0.0121837790    0.0343006150    0.0011235540    
0.0124064400    0.0364352100    0.0011097161    
0.0126291010    0.0361221170    0.0010911084    
0.0128517620    0.0334210400    0.0010521421    
0.0130744230    0.0336777100    0.0010483413    
0.0132970840    0.0327351680    0.0010285132    
0.0135197450    0.0317729220    0.0009987732    
0.0137424060    0.0301617410    0.0009595728    
0.0139650670    0.0313427960    0.0009563912    
0.0141877280    0.0303089940    0.0009425649    
0.0144103890    0.0295275890    0.0009142939    
0.0146330500    0.0292935890    0.0009048820    
0.0148557110    0.0277734340    0.0008773961    
0.0150783720    0.0285157820    0.0008816972    
0.0153010330    0.0286712900    0.0008716329    
0.0155236940    0.0275719800    0.0008496768    
0.0157463550    0.0270546990    0.0008270863    
0.0159690160    0.0266239080    0.0008173614    
0.0161916770    0.0249849610    0.0007873430    
0.0164143380    0.0250627040    0.0007945411    
0.0166369990    0.0248186520    0.0007662852    
0.0168596600    0.0247319080    0.0007582053    
0.0170823210    0.0241684420    0.0007430291    
0.0173049820    0.0250085220    0.0007571391    
0.0175276430    0.0242746830    0.0007538140    
0.0177503040    0.0240531730    0.0007312380    
0.0179729650    0.0247987730    0.0007351214    
0.0181956260    0.0236054870    0.0007034671    
0.0184182870    0.0234873340    0.0006983971    
0.0186409480    0.0235121970    0.0007031894    
0.0188636090    0.0230927790    0.0006925064    
0.0190862700    0.0229999200    0.0006900321    
0.0193089310    0.0232584770    0.0006928182    
0.0195315920    0.0231862540    0.0006682167    
0.0197542530    0.0242195520    0.0006839390    
0.0199769140    0.0222881760    0.0006561024    
0.0201995750    0.0220634560    0.0006425644    
0.0204222360    0.0224057960    0.0006530887    
0.0206448970    0.0222948750    0.0006468399    
0.0208675580    0.0231503000    0.0006455593    
0.0210902190    0.0226266110    0.0006443739    
0.0213128800    0.0224988560    0.0006338335    
0.0215355410    0.0214604300    0.0006116590    
0.0217582020    0.0217219380    0.0006153746    
0.0219808630    0.0221170110    0.0006201302    
0.0222035240    0.0226399920    0.0006217338    
0.0224261850    0.0211821920    0.0005960315    
0.0226488460    0.0210304640    0.0005894333    
0.0228715070    0.0223562450    0.0006062188    
0.0230941680    0.0207946040    0.0005846627    
0.0233168290    0.0220382350    0.0006033911    
0.0235394900    0.0210697440    0.0005834726    
0.0237621510    0.0215264250    0.0005738850    
0.0239848120    0.0218062880    0.0005782717    
0.0242074730    0.0217754880    0.0005732377    
0.0244301340    0.0210084690    0.0005636938    
0.0246527950    0.0222928980    0.0005860468    
0.0248754560    0.0215671000    0.0005634728    
0.0250981170    0.0214563690    0.0005632777    
0.0253207780    0.0209040300    0.0005393803    
0.0255434390    0.0206276010    0.0005415206    
0.0257661000    0.0210474320    0.0005487731    
0.0259887610    0.0216809070    0.0005510512    
0.0262114220    0.0207942750    0.0005425414    
0.0264340830    0.0201083210    0.0005262588    
0.0266567440    0.0211256820    0.0005360743    
0.0268794050    0.0205353260    0.0005263738    
0.0271020660    0.0215069750    0.0005365021    
0.0273247270    0.0210642940    0.0005277631    
0.0275473880    0.0210068910    0.0005259948    
0.0277700490    0.0211497320    0.0005246603    
0.0279927100    0.0211531600    0.0005201247    
0.0282153710    0.0206878270    0.0005168727    
0.0284380320    0.0215081220    0.0005239653    
0.0286606930    0.0208529380    0.0005115072    
0.0288833540    0.0202269400    0.0005047280    
0.0291060150    0.0203897000    0.0005062738    
0.0293286760    0.0208521370    0.0005048485    
0.0295513370    0.0209146740    0.0005000992    
0.0297739980    0.0210477240    0.0005072109    
0.0299966590    0.0200632850    0.0004867493    
0.0302193200    0.0207495540    0.0005022177    
0.0304419810    0.0206795860    0.0005022928    
0.0306646420    0.0207845630    0.0004893534    
0.0308873030    0.0198058530    0.0004756297    
0.0311099640    0.0202418030    0.0004820844    
0.0313326250    0.0200989770    0.0004750589    
0.0315552860    0.0203698390    0.0004844472    
0.0317779470    0.0207746650    0.0004896635    
0.0320006080    0.0202712680    0.0004727049    
0.0322232690    0.0206414190    0.0004789979    
0.0324459300    0.0208271240    0.0004775557    
0.0326685910    0.0197544210    0.0004643282    
0.0328912520    0.0198854730    0.0004674085    
0.0331139130    0.0197567710    0.0004598330    
0.0333365740    0.0198098780    0.0004619457    
0.0335592350    0.0208888520    0.0004697981    
0.0337818960    0.0189567610    0.0004471879    
0.0340045570    0.0198324830    0.0004566740    
0.0342272170    0.0200519160    0.0004573821    
0.0344498780    0.0201690080    0.0004605324    
0.0346725390    0.0200569180    0.0004507457    
0.0348952000    0.0201958000    0.0004502431    
0.0351178610    0.0200265530    0.0004504047    
0.0353405220    0.0195634510    0.0004431386    
0.0355631830    0.0201635360    0.0004481893    
0.0357858440    0.0205919250    0.0004529254    
0.0360085050    0.0196441390    0.0004437159    
0.0362311660    0.0195321720    0.0004371900    
0.0364538270    0.0194028510    0.0004322431    
0.0366764880    0.0198554650    0.0004369382    
0.0368991490    0.0198937460    0.0004351544    
0.0371218100    0.0198747220    0.0004337020    
0.0373444710    0.0204260050    0.0004444639    
0.0375671320    0.0197011690    0.0004358708    
0.0377897930    0.0196093980    0.0004235973    
0.0380124540    0.0197450560    0.0004277270    
0.0382351150    0.0195690220    0.0004258162    
0.0384577760    0.0197384860    0.0004235298    
0.0386804370    0.0199301770    0.0004288291    
0.0389030980    0.0195567590    0.0004215759    
0.0391257590    0.0196148650    0.0004193355    
0.0393484200    0.0195097720    0.0004168032    
0.0395710810    0.0195802300    0.0004181176    
0.0397937420    0.0204463100    0.0004272649    
0.0400164030    0.0204509830    0.0004290521    
0.0402390640    0.0196645960    0.0004151199    
0.0404617250    0.0198922470    0.0004150528    
0.0406843860    0.0197645250    0.0004097210    
0.0409070470    0.0204386000    0.0004209896    
0.0411297080    0.0194837640    0.0004070618    
0.0413523690    0.0197638560    0.0004110340    
0.0415750300    0.0199619420    0.0004165977    
0.0417976910    0.0197512590    0.0004036758    
0.0420203520    0.0195840940    0.0004034743    
0.0422430130    0.0189453640    0.0003983425    
0.0424656740    0.0200871900    0.0004048323    
0.0426883350    0.0201469960    0.0004074468    
0.0429109960    0.0199662970    0.0004068828    
0.0431336570    0.0203667430    0.0004051529    
0.0433563180    0.0197357310    0.0004022677    
0.0435789790    0.0202961510    0.0004015302    
0.0438016400    0.0198189380    0.0003989402    
0.0440243010    0.0198751660    0.0003954523    
0.0442469620    0.0202335080    0.0004013921    
0.0444696230    0.0199147260    0.0003967896    
0.0446922840    0.0199773790    0.0003962331    
0.0449149450    0.0198369770    0.0003895599    
0.0451376060    0.0197105970    0.0003931128    
0.0453602670    0.0202130400    0.0003939183    
0.0455829280    0.0197067770    0.0003885042    
0.0458055890    0.0195343520    0.0003890564    
0.0460282500    0.0196711100    0.0003857080    
0.0462509110    0.0197035350    0.0003836249    
0.0464735720    0.0192547040    0.0003794445    
0.0466962330    0.0200262720    0.0003887314    
0.0469188940    0.0199504040    0.0003868945    
0.0471415550    0.0200042550    0.0003894060    
0.0473642160    0.0203617910    0.0003873696    
0.0475868770    0.0195033070    0.0003772322    
0.0478095380    0.0202081450    0.0003823079    
0.0480321990    0.0193524200    0.0003749455    
0.0482548600    0.0196882430    0.0003765370    
0.0484775210    0.0187737470    0.0003713390    
0.0487001820    0.0199753500    0.0003774312    
0.0489228430    0.0194053530    0.0003718074    
0.0491455040    0.0191729790    0.0003670184    
0.0493681650    0.0199184430    0.0003773001    
0.0495908260    0.0194334390    0.0003664079    
0.0498134870    0.0202557880    0.0003776411    
0.0500361480    0.0203308340    0.0003773390    
0.0502588090    0.0193388200    0.0003625038    
0.0504814700    0.0200290750    0.0003737392    
0.0507041310    0.0200799390    0.0003697643    
0.0509267920    0.0199306090    0.0003699108    
0.0511494530    0.0202279650    0.0003701752    
0.0513721140    0.0195379100    0.0003670102    
0.0515947750    0.0197549140    0.0003641498    
0.0518174360    0.0192125690    0.0003569531    
0.0520400970    0.0193329370    0.0003555868    
0.0522627580    0.0201019580    0.0003656715    
0.0524854190    0.0195986330    0.0003640002    
0.0527080800    0.0195188220    0.0003660709    
0.0529307410    0.0202154300    0.0003742957    
0.0531534020    0.0197313920    0.0003684412    
0.0533760630    0.0195989680    0.0003683522    
0.0535987240    0.0196221420    0.0003668491    
0.0538213850    0.0198969800    0.0003736893    
0.0540440460    0.0197925200    0.0003709431    
0.0542667070    0.0192627690    0.0003684673    
0.0544893680    0.0195514190    0.0003714155    
0.0547120290    0.0188112160    0.0003618211    
0.0549346900    0.0197088210    0.0003705477    
0.0551573510    0.0196906170    0.0003747366    
0.0553800120    0.0199391590    0.0003738884    
0.0556026730    0.0199564320    0.0003818058    
0.0558253340    0.0197498310    0.0003830048    
0.0560479950    0.0195195970    0.0003807660    
0.0562706560    0.0188842250    0.0003781385    
0.0564933170    0.0202921720    0.0003953854    
0.0567159780    0.0199062600    0.0003869124    
0.0569386390    0.0188831650    0.0003827494    
0.0571613000    0.0196905290    0.0003824305    
0.0573839610    0.0195183060    0.0003775930    
0.0576066220    0.0197220100    0.0003806090    
0.0578292830    0.0195041470    0.0003772485    
0.0580519440    0.0199057140    0.0003825900    
0.0582746050    0.0194535760    0.0003765522    
0.0584972660    0.0192832340    0.0003734649    
0.0587199270    0.0195209190    0.0003725204    
0.0589425880    0.0198553050    0.0003734999    
0.0591652490    0.0199403840    0.0003765018    
0.0593879100    0.0198974360    0.0003733030    
0.0596105710    0.0194081900    0.0003682961    
0.0598332320    0.0194996960    0.0003723188    
0.0600558930    0.0194764320    0.0003697242    
0.0602785540    0.0191411210    0.0003661403    
0.0605012150    0.0192279280    0.0003661964    
0.0607238760    0.0196359990    0.0003673651    
0.0609465370    0.0198277030    0.0003720602    
0.0611691980    0.0203948710    0.0003779421    
0.0613918590    0.0193695950    0.0003642987    
0.0616145200    0.0198140680    0.0003711515    
0.0618371810    0.0192222850    0.0003619766    
0.0620598420    0.0198903430    0.0003685926    
0.0622825030    0.0196936390    0.0003723743    
0.0625051640    0.0194865830    0.0003652094    
0.0627278250    0.0191405720    0.0003612072    
0.0629504860    0.0199438310    0.0003657111    
0.0631731470    0.0198767930    0.0003696129    
0.0633958080    0.0195778640    0.0003689342    
0.0636184690    0.0194408480    0.0003727612    
0.0638411300    0.0191461970    0.0003685370    
0.0640637910    0.0192078450    0.0003717261    
0.0642864520    0.0192823890    0.0003716407    
0.0645091130    0.0194541700    0.0003765637    
0.0647317740    0.0196139700    0.0003785240    
0.0649544350    0.0194833700    0.0003768466    
0.0651770960    0.0195237240    0.0003751788    
0.0653997570    0.0192022490    0.0003712703    
0.0656224180    0.0192209630    0.0003722589    
0.0658450790    0.0193517730    0.0003681547    
0.0660677400    0.0193896980    0.0003700836    
0.0662904010    0.0190886830    0.0003715834    
0.0665130620    0.0196333330    0.0003752125    
0.0667357230    0.0197360290    0.0003828812    
0.0669583840    0.0190581900    0.0003749898    
0.0671810450    0.0197604540    0.0003797280    
0.0674037060    0.0193187970    0.0003818212    
0.0676263670    0.0194533850    0.0003803438    
0.0678490280    0.0203327080    0.0003864668    
0.0680716890    0.0194493580    0.0003788197    
0.0682943500    0.0196247090    0.0003763558    
0.0685170110    0.0193752900    0.0003701459    
0.0687396720    0.0197367000    0.0003725896    
0.0689623330    0.0201360010    0.0003751471    
0.0691849940    0.0196435720    0.0003730988    
0.0694076550    0.0195235050    0.0003717583    
0.0696303160    0.0194246030    0.0003678796    
0.0698529770    0.0195930370    0.0003686968    
0.0700756380    0.0196003180    0.0003640315    
0.0702982990    0.0194699080    0.0003667697    
0.0705209600    0.0198435230    0.0003675987    
0.0707436210    0.0193243170    0.0003610918    
0.0709662820    0.0195390730    0.0003674212    
0.0711889430    0.0199383110    0.0003665973    
0.0714116040    0.0193497660    0.0003618834    
0.0716342650    0.0188975740    0.0003561778    
0.0718569260    0.0202839340    0.0003675253    
0.0720795870    0.0196495000    0.0003631952    
0.0723022480    0.0195208890    0.0003625563    
0.0725249090    0.0192993440    0.0003561759    
0.0727475700    0.0198042770    0.0003638869    
0.0729702310    0.0199568090    0.0003623722    
0.0731928920    0.0196258370    0.0003607910    
0.0734155530    0.0191181950    0.0003553838    
0.0736382140    0.0187692510    0.0003498658    
0.0738608750    0.0194089160    0.0003580761    
0.0740835360    0.0193521070    0.0003566641    
0.0743061970    0.0202613810    0.0003598081    
0.0745288580    0.0199367280    0.0003605838    
0.0747515190    0.0192102190    0.0003546519    
0.0749741800    0.0197174150    0.0003559773    
0.0751968410    0.0196692120    0.0003583335    
0.0754195020    0.0199362040    0.0003586437    
0.0756421630    0.0194021550    0.0003509153    
0.0758648240    0.0193552490    0.0003513334    
0.0760874850    0.0199801580    0.0003567885    
0.0763101460    0.0196874750    0.0003538258    
0.0765328070    0.0194823950    0.0003555797    
0.0767554680    0.0200191440    0.0003579988    
0.0769781290    0.0196378370    0.0003525354    
0.0772007900    0.0191995500    0.0003457835    
0.0774234510    0.0192926110    0.0003485921    
0.0776461120    0.0191743030    0.0003471920    
0.0778687730    0.0192851430    0.0003470437    
0.0780914340    0.0192893310    0.0003495615    
0.0783140950    0.0198907620    0.0003493373    
0.0785367560    0.0196187930    0.0003525346    
0.0787594170    0.0200278690    0.0003529996    
0.0789820780    0.0193120230    0.0003448575    
0.0792047390    0.0192525540    0.0003454519    
0.0794274000    0.0196910960    0.0003508444    
0.0796500610    0.0199031770    0.0003492861    
0.0798727220    0.0196155960    0.0003464334    
0.0800953830    0.0189712610    0.0003399125    
0.0803180440    0.0192920760    0.0003451624    
0.0805407050    0.0197801480    0.0003491762    
0.0807633660    0.0196634610    0.0003478216    
0.0809860270    0.0196711840    0.0003466053    
0.0812086880    0.0197288050    0.0003441129    
0.0814313490    0.0196063240    0.0003446076    
0.0816540100    0.0188358300    0.0003369995    
0.0818766710    0.0192611340    0.0003415610    
0.0820993320    0.0196255070    0.0003441483    
0.0823219930    0.0194956600    0.0003444226    
0.0825446540    0.0198190630    0.0003447445    
0.0827673150    0.0193465850    0.0003383222    
0.0829899760    0.0194192520    0.0003383535    
0.0832126370    0.0196709290    0.0003420643    
0.0834352980    0.0198909910    0.0003432033    
0.0836579590    0.0193839660    0.0003380467    
0.0838806200    0.0191080050    0.0003366821    
0.0841032810    0.0190765680    0.0003343167    
0.0843259420    0.0194774880    0.0003367712    
0.0845486030    0.0192911860    0.0003351569    
0.0847712640    0.0195169420    0.0003350579    
0.0849939250    0.0194926210    0.0003354322    
0.0852165860    0.0190923130    0.0003324049    
0.0854392470    0.0199816240    0.0003368381    
0.0856619080    0.0186982040    0.0003282408    
0.0858845690    0.0193305700    0.0003307393    
0.0861072300    0.0193229960    0.0003329572    
0.0863298910    0.0194389300    0.0003357033    
0.0865525520    0.0194294430    0.0003327233    
0.0867752130    0.0192292790    0.0003283341    
0.0869978740    0.0198908990    0.0003347858    
0.0872205350    0.0194525030    0.0003306547    
0.0874431960    0.0197335580    0.0003330351    
0.0876658570    0.0194039680    0.0003315102    
0.0878885180    0.0192261870    0.0003305538    
0.0881111790    0.0200328350    0.0003369839    
0.0883338400    0.0190927680    0.0003241655    
0.0885565010    0.0191448120    0.0003290089    
0.0887791620    0.0197697090    0.0003299997    
0.0890018230    0.0188802980    0.0003256192    
0.0892244840    0.0200827970    0.0003363995    
0.0894471450    0.0207795430    0.0003407398    
0.0896698060    0.0192977440    0.0003271274    
0.0898924670    0.0201710720    0.0003359979    
0.0901151280    0.0191845390    0.0003241390    
0.0903377890    0.0193120960    0.0003279366    
0.0905604500    0.0193780230    0.0003269883    
0.0907831110    0.0194299630    0.0003266117    
0.0910057720    0.0195255870    0.0003289169    
0.0912284330    0.0195249350    0.0003242021    
0.0914510940    0.0193133530    0.0003260363    
0.0916737550    0.0193271490    0.0003253434    
0.0918964160    0.0199079360    0.0003315688    
0.0921190770    0.0193109520    0.0003236068    
0.0923417380    0.0199183810    0.0003287918    
0.0925643990    0.0199884380    0.0003285635    
0.0927870600    0.0189819950    0.0003214979    
0.0930097210    0.0187189190    0.0003165432    
0.0932323820    0.0191906770    0.0003228631    
