# Diamond Light Source Ltd.
# Data extracted from: /dls/b21/data/2018/cm19678-3/processed/b21-386631_00726.dat
q(1/A)          Column          Error           
0.0035000000    2.0822403000    0.0244867800    
0.0037226610    1.8748851000    0.0227463590    
0.0039453220    1.5776647000    0.0189818500    
0.0041679830    1.2513012000    0.0138827950    
0.0043906440    0.9596430100    0.0116288330    
0.0046133050    0.7743817700    0.0100281940    
0.0048359660    0.5862013800    0.0082530838    
0.0050586270    0.4675451400    0.0072446273    
0.0052812880    0.4272895900    0.0065481631    
0.0055039490    0.3737962900    0.0058235309    
0.0057266100    0.3088228200    0.0051207990    
0.0059492710    0.2600836900    0.0046993698    
0.0061719320    0.2167485600    0.0041339846    
0.0063945930    0.1953812300    0.0039725091    
0.0066172539    0.1816721600    0.0035969396    
0.0068399149    0.1685439500    0.0034099768    
0.0070625759    0.1506416200    0.0031907291    
0.0072852369    0.1233469600    0.0028440293    
0.0075078979    0.1088915000    0.0026590558    
0.0077305589    0.1004711400    0.0025055225    
0.0079532199    0.1011085800    0.0024786281    
0.0081758809    0.0936518630    0.0024076700    
0.0083985419    0.0845926070    0.0021342452    
0.0086212029    0.0735541180    0.0019901309    
0.0088438639    0.0713705520    0.0019446223    
0.0090665249    0.0647482500    0.0017889261    
0.0092891859    0.0642387290    0.0018598449    
0.0095118469    0.0565204880    0.0016776755    
0.0097345079    0.0584336510    0.0016567342    
0.0099571689    0.0554628970    0.0015807876    
0.0101798300    0.0503266180    0.0015058134    
0.0104024910    0.0491363190    0.0014828644    
0.0106251520    0.0471277190    0.0014571712    
0.0108478130    0.0449944370    0.0013865791    
0.0110704740    0.0413266830    0.0012651684    
0.0112931350    0.0426606550    0.0012892005    
0.0115157960    0.0395076620    0.0012334105    
0.0117384570    0.0384140850    0.0012057506    
0.0119611180    0.0385587360    0.0012114851    
0.0121837790    0.0366479350    0.0011612343    
0.0124064400    0.0380153710    0.0011333994    
0.0126291010    0.0363448040    0.0010943458    
0.0128517620    0.0350363330    0.0010771491    
0.0130744230    0.0338986640    0.0010516587    
0.0132970840    0.0338910330    0.0010463984    
0.0135197450    0.0340887160    0.0010344172    
0.0137424060    0.0310096850    0.0009728603    
0.0139650670    0.0292643290    0.0009240343    
0.0141877280    0.0304195310    0.0009441779    
0.0144103890    0.0296342910    0.0009158433    
0.0146330500    0.0285046460    0.0008925151    
0.0148557110    0.0286263750    0.0008906687    
0.0150783720    0.0294634410    0.0008961292    
0.0153010330    0.0266780220    0.0008406958    
0.0155236940    0.0270685070    0.0008417905    
0.0157463550    0.0268970560    0.0008245822    
0.0159690160    0.0260911930    0.0008090536    
0.0161916770    0.0256244010    0.0007972666    
0.0164143380    0.0274495690    0.0008314235    
0.0166369990    0.0246949060    0.0007642881    
0.0168596600    0.0244011040    0.0007530344    
0.0170823210    0.0258074810    0.0007677263    
0.0173049820    0.0252092630    0.0007600879    
0.0175276430    0.0246671860    0.0007598000    
0.0177503040    0.0251369110    0.0007474474    
0.0179729650    0.0234860990    0.0007153219    
0.0181956260    0.0249416810    0.0007230232    
0.0184182870    0.0249147510    0.0007192269    
0.0186409480    0.0239485550    0.0007096063    
0.0188636090    0.0241673250    0.0007083568    
0.0190862700    0.0235743740    0.0006985191    
0.0193089310    0.0229232190    0.0006877309    
0.0195315920    0.0237202350    0.0006757929    
0.0197542530    0.0226694430    0.0006616172    
0.0199769140    0.0229204760    0.0006652705    
0.0201995750    0.0218153640    0.0006388710    
0.0204222360    0.0219250490    0.0006459730    
0.0206448970    0.0217083170    0.0006382039    
0.0208675580    0.0213274130    0.0006195538    
0.0210902190    0.0215575040    0.0006288970    
0.0213128800    0.0224581880    0.0006331905    
0.0215355410    0.0225537530    0.0006269771    
0.0217582020    0.0225711920    0.0006272196    
0.0219808630    0.0210343390    0.0006046947    
0.0222035240    0.0219351220    0.0006119113    
0.0224261850    0.0220494360    0.0006080434    
0.0226488460    0.0220828960    0.0006039352    
0.0228715070    0.0208393120    0.0005852262    
0.0230941680    0.0218418430    0.0005991379    
0.0233168290    0.0207120310    0.0005848896    
0.0235394900    0.0211781760    0.0005849075    
0.0237621510    0.0215981570    0.0005747770    
0.0239848120    0.0220621140    0.0005815897    
0.0242074730    0.0214538550    0.0005689257    
0.0244301340    0.0220623430    0.0005775958    
0.0246527950    0.0224266060    0.0005877368    
0.0248754560    0.0210913560    0.0005571619    
0.0250981170    0.0215994760    0.0005650906    
0.0253207780    0.0209133330    0.0005394408    
0.0255434390    0.0209641630    0.0005458603    
0.0257661000    0.0213861110    0.0005531096    
0.0259887610    0.0211720280    0.0005444858    
0.0262114220    0.0210161240    0.0005453677    
0.0264340830    0.0212467770    0.0005408914    
0.0266567440    0.0215290260    0.0005411079    
0.0268794050    0.0205982430    0.0005271214    
0.0271020660    0.0207395500    0.0005267851    
0.0273247270    0.0203589810    0.0005187949    
0.0275473880    0.0207389050    0.0005225713    
0.0277700490    0.0202732390    0.0005136170    
0.0279927100    0.0204196760    0.0005109712    
0.0282153710    0.0207736390    0.0005178865    
0.0284380320    0.0196784620    0.0005011283    
0.0286606930    0.0204845580    0.0005069131    
0.0288833540    0.0209528040    0.0005136479    
0.0291060150    0.0216168600    0.0005212288    
0.0293286760    0.0209452980    0.0005059192    
0.0295513370    0.0208741940    0.0004995599    
0.0297739980    0.0208719990    0.0005050334    
0.0299966590    0.0211568420    0.0004997834    
0.0302193200    0.0210487990    0.0005057704    
0.0304419810    0.0204920600    0.0004999551    
0.0306646420    0.0200197350    0.0004802125    
0.0308873030    0.0198928400    0.0004766205    
0.0311099640    0.0198126180    0.0004768936    
0.0313326250    0.0197577630    0.0004709572    
0.0315552860    0.0196742140    0.0004760510    
0.0317779470    0.0201700580    0.0004824324    
0.0320006080    0.0207076190    0.0004777127    
0.0322232690    0.0207257700    0.0004799227    
0.0324459300    0.0199467130    0.0004673015    
0.0326685910    0.0195973000    0.0004624269    
0.0328912520    0.0194197570    0.0004618518    
0.0331139130    0.0201697170    0.0004645625    
0.0333365740    0.0200424410    0.0004645981    
0.0335592350    0.0205778990    0.0004662368    
0.0337818960    0.0196170270    0.0004548589    
0.0340045570    0.0188398570    0.0004450498    
0.0342272170    0.0203708390    0.0004609542    
0.0344498780    0.0209110050    0.0004688755    
0.0346725390    0.0207411650    0.0004583193    
0.0348952000    0.0205024440    0.0004535983    
0.0351178610    0.0204981300    0.0004556265    
0.0353405220    0.0204121510    0.0004525987    
0.0355631830    0.0200694480    0.0004470930    
0.0357858440    0.0197308200    0.0004433053    
0.0360085050    0.0202710850    0.0004506912    
0.0362311660    0.0198409350    0.0004405834    
0.0364538270    0.0196103670    0.0004345004    
0.0366764880    0.0199760550    0.0004382147    
0.0368991490    0.0203556630    0.0004401289    
0.0371218100    0.0201068890    0.0004361797    
0.0373444710    0.0198123350    0.0004376880    
0.0375671320    0.0196582590    0.0004353479    
0.0377897930    0.0201814230    0.0004296839    
0.0380124540    0.0196480640    0.0004266281    
0.0382351150    0.0205837000    0.0004366680    
0.0384577760    0.0195160750    0.0004210904    
0.0386804370    0.0197412820    0.0004267450    
0.0389030980    0.0197523300    0.0004236318    
0.0391257590    0.0198794210    0.0004221074    
0.0393484200    0.0198704720    0.0004205921    
0.0395710810    0.0198794130    0.0004212534    
0.0397937420    0.0192545680    0.0004145803    
0.0400164030    0.0185386140    0.0004084545    
0.0402390640    0.0205539060    0.0004243560    
0.0404617250    0.0200783390    0.0004169437    
0.0406843860    0.0204734670    0.0004169585    
0.0409070470    0.0191510000    0.0004074681    
0.0411297080    0.0197600520    0.0004098925    
0.0413523690    0.0196825780    0.0004101427    
0.0415750300    0.0197836920    0.0004146877    
0.0417976910    0.0194004650    0.0004000309    
0.0420203520    0.0197376750    0.0004050085    
0.0422430130    0.0198120440    0.0004073070    
0.0424656740    0.0202622150    0.0004065473    
0.0426883350    0.0194917290    0.0004007218    
0.0429109960    0.0198872840    0.0004060321    
0.0431336570    0.0200641080    0.0004020872    
0.0433563180    0.0195264400    0.0004000849    
0.0435789790    0.0195530720    0.0003940678    
0.0438016400    0.0193890500    0.0003945463    
0.0440243010    0.0198314490    0.0003949735    
0.0442469620    0.0195443930    0.0003944541    
0.0444696230    0.0202818230    0.0004003858    
0.0446922840    0.0198472560    0.0003948970    
0.0449149450    0.0193736900    0.0003849415    
0.0451376060    0.0199884390    0.0003958301    
0.0453602670    0.0196252720    0.0003881060    
0.0455829280    0.0199244930    0.0003906013    
0.0458055890    0.0187708420    0.0003813353    
0.0460282500    0.0204455780    0.0003931842    
0.0462509110    0.0199232130    0.0003857149    
0.0464735720    0.0190859870    0.0003777367    
0.0466962330    0.0200746620    0.0003891579    
0.0469188940    0.0188883170    0.0003764137    
0.0471415550    0.0192722990    0.0003821733    
0.0473642160    0.0198120800    0.0003820627    
0.0475868770    0.0196084270    0.0003782057    
0.0478095380    0.0197264350    0.0003776821    
0.0480321990    0.0197621310    0.0003788519    
0.0482548600    0.0198134930    0.0003776912    
0.0484775210    0.0199078240    0.0003823482    
0.0487001820    0.0194219390    0.0003721252    
0.0489228430    0.0200207100    0.0003776148    
0.0491455040    0.0198711590    0.0003735999    
0.0493681650    0.0197925780    0.0003760646    
0.0495908260    0.0201267500    0.0003728455    
0.0498134870    0.0200190320    0.0003753862    
0.0500361480    0.0198782310    0.0003730741    
0.0502588090    0.0189473190    0.0003587761    
0.0504814700    0.0194110880    0.0003678877    
0.0507041310    0.0197895920    0.0003670408    
0.0509267920    0.0197957960    0.0003686170    
0.0511494530    0.0194243150    0.0003627072    
0.0513721140    0.0195956330    0.0003675114    
0.0515947750    0.0192069630    0.0003590243    
0.0518174360    0.0204482200    0.0003682123    
0.0520400970    0.0198321590    0.0003601088    
0.0522627580    0.0197051500    0.0003620045    
0.0524854190    0.0191752520    0.0003600074    
0.0527080800    0.0199606800    0.0003701503    
0.0529307410    0.0190954530    0.0003637394    
0.0531534020    0.0189222750    0.0003607680    
0.0533760630    0.0189163420    0.0003618406    
0.0535987240    0.0193915330    0.0003646468    
0.0538213850    0.0196540210    0.0003713598    
0.0540440460    0.0194614790    0.0003677874    
0.0542667070    0.0192303330    0.0003681163    
0.0544893680    0.0192790480    0.0003687786    
0.0547120290    0.0195167670    0.0003685034    
0.0549346900    0.0199134280    0.0003724251    
0.0551573510    0.0198716560    0.0003764138    
0.0553800120    0.0198226100    0.0003727530    
0.0556026730    0.0199593320    0.0003817915    
0.0558253340    0.0199608260    0.0003850028    
0.0560479950    0.0195895500    0.0003814056    
0.0562706560    0.0195765170    0.0003849649    
0.0564933170    0.0198871790    0.0003913768    
0.0567159780    0.0191650410    0.0003795988    
0.0569386390    0.0192125230    0.0003860303    
0.0571613000    0.0195376670    0.0003809011    
0.0573839610    0.0196454570    0.0003787791    
0.0576066220    0.0198131260    0.0003814451    
0.0578292830    0.0193904180    0.0003761055    
0.0580519440    0.0194455120    0.0003780999    
0.0582746050    0.0194492840    0.0003764691    
0.0584972660    0.0197490220    0.0003779068    
0.0587199270    0.0193460380    0.0003708070    
0.0589425880    0.0196963890    0.0003719612    
0.0591652490    0.0200141650    0.0003771561    
0.0593879100    0.0196689790    0.0003711128    
0.0596105710    0.0195366680    0.0003694723    
0.0598332320    0.0195309310    0.0003725757    
0.0600558930    0.0201317320    0.0003758511    
0.0602785540    0.0195360210    0.0003698571    
0.0605012150    0.0204160150    0.0003772988    
0.0607238760    0.0191781530    0.0003630169    
0.0609465370    0.0197535280    0.0003713227    
0.0611691980    0.0193610510    0.0003681979    
0.0613918590    0.0191598180    0.0003622807    
0.0616145200    0.0198653030    0.0003715901    
0.0618371810    0.0196541980    0.0003659803    
0.0620598420    0.0190733080    0.0003609031    
0.0622825030    0.0202031730    0.0003771192    
0.0625051640    0.0188048190    0.0003587243    
0.0627278250    0.0194770970    0.0003643285    
0.0629504860    0.0190477220    0.0003573612    
0.0631731470    0.0193364300    0.0003645140    
0.0633958080    0.0194136750    0.0003673435    
0.0636184690    0.0200725350    0.0003787271    
0.0638411300    0.0200497810    0.0003770915    
0.0640637910    0.0197502280    0.0003768963    
0.0642864520    0.0198295530    0.0003768352    
0.0645091130    0.0203535070    0.0003851268    
0.0647317740    0.0195950360    0.0003782995    
0.0649544350    0.0190782680    0.0003728672    
0.0651770960    0.0194545450    0.0003744722    
0.0653997570    0.0192123670    0.0003713271    
0.0656224180    0.0197429120    0.0003772378    
0.0658450790    0.0197396360    0.0003717848    
0.0660677400    0.0192583030    0.0003687869    
0.0662904010    0.0197497890    0.0003779215    
0.0665130620    0.0196648470    0.0003754721    
0.0667357230    0.0192118340    0.0003777206    
0.0669583840    0.0196883810    0.0003810972    
0.0671810450    0.0198509360    0.0003805544    
0.0674037060    0.0204839700    0.0003931237    
0.0676263670    0.0192260530    0.0003780732    
0.0678490280    0.0190870840    0.0003744005    
0.0680716890    0.0198434100    0.0003825958    
0.0682943500    0.0190070180    0.0003703447    
0.0685170110    0.0196608740    0.0003728227    
0.0687396720    0.0203582120    0.0003783688    
0.0689623330    0.0195166420    0.0003692918    
0.0691849940    0.0194975410    0.0003716684    
0.0694076550    0.0189742460    0.0003664512    
0.0696303160    0.0190511370    0.0003642858    
0.0698529770    0.0194083660    0.0003669147    
0.0700756380    0.0191295840    0.0003595939    
0.0702982990    0.0196590260    0.0003685060    
0.0705209600    0.0198731870    0.0003678328    
0.0707436210    0.0194954450    0.0003626471    
0.0709662820    0.0194035180    0.0003661041    
0.0711889430    0.0196239190    0.0003636554    
0.0714116040    0.0193454970    0.0003618035    
0.0716342650    0.0199001590    0.0003654637    
0.0718569260    0.0197867870    0.0003629534    
0.0720795870    0.0195646240    0.0003623700    
0.0723022480    0.0201359430    0.0003681830    
0.0725249090    0.0189927800    0.0003532967    
0.0727475700    0.0186501500    0.0003530858    
0.0729702310    0.0198339950    0.0003612156    
0.0731928920    0.0195419350    0.0003599793    
0.0734155530    0.0193253270    0.0003572644    
0.0736382140    0.0198213810    0.0003594985    
0.0738608750    0.0191734700    0.0003558584    
0.0740835360    0.0190652440    0.0003539717    
0.0743061970    0.0198736210    0.0003563092    
0.0745288580    0.0202713820    0.0003635574    
0.0747515190    0.0190946990    0.0003535449    
0.0749741800    0.0194946030    0.0003539212    
0.0751968410    0.0192406390    0.0003543690    
0.0754195020    0.0195318800    0.0003549491    
0.0756421630    0.0198991610    0.0003553422    
0.0758648240    0.0195741370    0.0003532754    
0.0760874850    0.0197018490    0.0003542558    
0.0763101460    0.0191363790    0.0003488000    
0.0765328070    0.0191536780    0.0003525283    
0.0767554680    0.0198419110    0.0003563712    
0.0769781290    0.0196651410    0.0003527415    
0.0772007900    0.0198428380    0.0003514898    
0.0774234510    0.0194457850    0.0003499346    
0.0776461120    0.0196728950    0.0003516382    
0.0778687730    0.0197679060    0.0003513219    
0.0780914340    0.0198297450    0.0003543852    
0.0783140950    0.0197820960    0.0003483433    
0.0785367560    0.0193611300    0.0003501733    
0.0787594170    0.0198492800    0.0003513835    
0.0789820780    0.0195355640    0.0003468094    
0.0792047390    0.0191677440    0.0003446522    
0.0794274000    0.0197929980    0.0003517123    
0.0796500610    0.0189059920    0.0003403861    
0.0798727220    0.0198743010    0.0003486720    
0.0800953830    0.0196977500    0.0003463215    
0.0803180440    0.0197755730    0.0003494223    
0.0805407050    0.0191472000    0.0003435063    
0.0807633660    0.0195422520    0.0003467097    
0.0809860270    0.0201614160    0.0003508589    
0.0812086880    0.0186443190    0.0003344844    
0.0814313490    0.0194869420    0.0003435189    
0.0816540100    0.0195249020    0.0003430705    
0.0818766710    0.0200622830    0.0003485536    
0.0820993320    0.0191927940    0.0003402956    
0.0823219930    0.0193149390    0.0003427847    
0.0825446540    0.0191791820    0.0003390962    
0.0827673150    0.0192654210    0.0003375745    
0.0829899760    0.0193560280    0.0003377650    
0.0832126370    0.0184831450    0.0003315396    
0.0834352980    0.0200109310    0.0003441985    
0.0836579590    0.0195152540    0.0003391522    
0.0838806200    0.0197324770    0.0003421017    
0.0841032810    0.0199217120    0.0003416043    
0.0843259420    0.0197875570    0.0003394037    
0.0845486030    0.0196012960    0.0003378028    
0.0847712640    0.0194091220    0.0003340942    
0.0849939250    0.0196614480    0.0003368445    
0.0852165860    0.0188971620    0.0003306652    
0.0854392470    0.0198352920    0.0003355654    
0.0856619080    0.0195409300    0.0003355191    
0.0858845690    0.0199542980    0.0003359957    
0.0861072300    0.0195022840    0.0003344614    
0.0863298910    0.0201939430    0.0003421228    
0.0865525520    0.0193966740    0.0003324059    
0.0867752130    0.0196734340    0.0003320677    
0.0869978740    0.0200555180    0.0003361313    
0.0872205350    0.0196954590    0.0003326765    
0.0874431960    0.0196730120    0.0003324871    
0.0876658570    0.0197054620    0.0003340389    
0.0878885180    0.0195287700    0.0003331080    
0.0881111790    0.0195976980    0.0003332672    
0.0883338400    0.0190335300    0.0003236265    
0.0885565010    0.0197454450    0.0003340932    
0.0887791620    0.0196992620    0.0003293749    
0.0890018230    0.0193140680    0.0003293021    
0.0892244840    0.0193403570    0.0003300864    
0.0894471450    0.0196912420    0.0003316604    
0.0896698060    0.0194930740    0.0003287425    
0.0898924670    0.0200155400    0.0003346631    
0.0901151280    0.0192843390    0.0003249452    
0.0903377890    0.0195583700    0.0003299845    
0.0905604500    0.0199198770    0.0003314919    
0.0907831110    0.0191512250    0.0003242247    
0.0910057720    0.0198093350    0.0003312616    
0.0912284330    0.0185141870    0.0003156643    
0.0914510940    0.0190449610    0.0003237273    
0.0916737550    0.0195364280    0.0003270640    
0.0918964160    0.0195281100    0.0003283543    
0.0921190770    0.0192036790    0.0003226712    
0.0923417380    0.0196264000    0.0003263371    
0.0925643990    0.0201082200    0.0003295101    
0.0927870600    0.0197290810    0.0003277274    
0.0930097210    0.0198065310    0.0003255734    
0.0932323820    0.0192407500    0.0003232484    
