# Diamond Light Source Ltd.
# Data extracted from: /dls/b21/data/2018/cm19678-3/processed/b21-386631_00729.dat
q(1/A)          Column          Error           
0.0035000000    2.0808928000    0.0244810920    
0.0037226610    1.8821280000    0.0227923350    
0.0039453220    1.6149577000    0.0192066430    
0.0041679830    1.2780271000    0.0140315520    
0.0043906440    0.9584089700    0.0116224160    
0.0046133050    0.7791992700    0.0100602580    
0.0048359660    0.5771274800    0.0081897075    
0.0050586270    0.4552802100    0.0071496263    
0.0052812880    0.4214459600    0.0065038267    
0.0055039490    0.3832112300    0.0058969532    
0.0057266100    0.3172021000    0.0051902796    
0.0059492710    0.2665007500    0.0047574251    
0.0061719320    0.2195483000    0.0041609785    
0.0063945930    0.2014757500    0.0040343592    
0.0066172539    0.1812779900    0.0035933637    
0.0068399149    0.1647795800    0.0033719895    
0.0070625759    0.1498580100    0.0031827104    
0.0072852369    0.1237630300    0.0028490822    
0.0075078979    0.1124183900    0.0027020216    
0.0077305589    0.0990521530    0.0024879937    
0.0079532199    0.0981491640    0.0024423075    
0.0081758809    0.0925546090    0.0023937426    
0.0083985419    0.0807842780    0.0020858411    
0.0086212029    0.0747523970    0.0020064595    
0.0088438639    0.0755701620    0.0020012004    
0.0090665249    0.0613490570    0.0017414941    
0.0092891859    0.0658123000    0.0018826581    
0.0095118469    0.0566304310    0.0016794599    
0.0097345079    0.0559073580    0.0016206733    
0.0099571689    0.0529494840    0.0015446952    
0.0101798300    0.0501105000    0.0015027140    
0.0104024910    0.0506223440    0.0015052580    
0.0106251520    0.0466406350    0.0014497539    
0.0108478130    0.0453445610    0.0013920906    
0.0110704740    0.0431162180    0.0012923885    
0.0112931350    0.0423177530    0.0012841261    
0.0115157960    0.0413250190    0.0012615754    
0.0117384570    0.0379290130    0.0011982231    
0.0119611180    0.0376901540    0.0011978717    
0.0121837790    0.0365442280    0.0011596960    
0.0124064400    0.0345411640    0.0010804670    
0.0126291010    0.0357911800    0.0010860782    
0.0128517620    0.0332872880    0.0010500147    
0.0130744230    0.0322079850    0.0010251915    
0.0132970840    0.0304073310    0.0009912507    
0.0135197450    0.0317717180    0.0009987354    
0.0137424060    0.0299774370    0.0009566185    
0.0139650670    0.0297074090    0.0009310883    
0.0141877280    0.0314802960    0.0009605869    
0.0144103890    0.0288470500    0.0009036793    
0.0146330500    0.0293204300    0.0009052793    
0.0148557110    0.0269963070    0.0008650175    
0.0150783720    0.0278059230    0.0008706372    
0.0153010330    0.0287231990    0.0008724051    
0.0155236940    0.0271781870    0.0008435713    
0.0157463550    0.0282167300    0.0008446457    
0.0159690160    0.0263468850    0.0008130825    
0.0161916770    0.0260260490    0.0008035641    
0.0164143380    0.0258425730    0.0008067929    
0.0166369990    0.0260242920    0.0007846619    
0.0168596600    0.0250331350    0.0007627942    
0.0170823210    0.0250127050    0.0007558813    
0.0173049820    0.0248012800    0.0007539811    
0.0175276430    0.0246716950    0.0007599389    
0.0177503040    0.0241856390    0.0007332349    
0.0179729650    0.0239044150    0.0007217301    
0.0181956260    0.0243592690    0.0007145970    
0.0184182870    0.0238602340    0.0007039060    
0.0186409480    0.0223546670    0.0006856486    
0.0188636090    0.0245455320    0.0007139433    
0.0190862700    0.0241169140    0.0007065758    
0.0193089310    0.0222670330    0.0006778781    
0.0195315920    0.0225113820    0.0006584077    
0.0197542530    0.0232722930    0.0006704180    
0.0199769140    0.0226156550    0.0006608923    
0.0201995750    0.0229795570    0.0006557563    
0.0204222360    0.0225572320    0.0006552796    
0.0206448970    0.0216559860    0.0006374925    
0.0208675580    0.0222493680    0.0006328612    
0.0210902190    0.0219834980    0.0006351384    
0.0213128800    0.0224087260    0.0006325506    
0.0215355410    0.0222615200    0.0006229589    
0.0217582020    0.0223312590    0.0006239340    
0.0219808630    0.0222378820    0.0006218106    
0.0222035240    0.0219562040    0.0006122612    
0.0224261850    0.0219360710    0.0006065337    
0.0226488460    0.0222686500    0.0006065253    
0.0228715070    0.0224211490    0.0006070866    
0.0230941680    0.0209746320    0.0005871770    
0.0233168290    0.0221860780    0.0006054002    
0.0235394900    0.0215698180    0.0005903450    
0.0237621510    0.0210666410    0.0005677123    
0.0239848120    0.0214221030    0.0005731442    
0.0242074730    0.0220462810    0.0005767800    
0.0244301340    0.0205085710    0.0005569363    
0.0246527950    0.0213369000    0.0005733323    
0.0248754560    0.0200205770    0.0005428841    
0.0250981170    0.0214851300    0.0005636444    
0.0253207780    0.0210145730    0.0005407943    
0.0255434390    0.0214086770    0.0005516674    
0.0257661000    0.0204314030    0.0005406723    
0.0259887610    0.0214279920    0.0005478173    
0.0262114220    0.0203405310    0.0005365793    
0.0264340830    0.0206997680    0.0005339321    
0.0266567440    0.0209480470    0.0005338057    
0.0268794050    0.0203996300    0.0005246219    
0.0271020660    0.0203418570    0.0005217576    
0.0273247270    0.0208254910    0.0005247530    
0.0275473880    0.0203871070    0.0005181674    
0.0277700490    0.0206283420    0.0005181431    
0.0279927100    0.0204106190    0.0005109045    
0.0282153710    0.0213714460    0.0005253333    
0.0284380320    0.0199756300    0.0005049441    
0.0286606930    0.0207015910    0.0005096379    
0.0288833540    0.0203017380    0.0005056508    
0.0291060150    0.0192953170    0.0004924903    
0.0293286760    0.0205702330    0.0005014148    
0.0295513370    0.0202562130    0.0004921546    
0.0297739980    0.0210958170    0.0005077804    
0.0299966590    0.0202278430    0.0004887321    
0.0302193200    0.0205664420    0.0004999873    
0.0304419810    0.0196296130    0.0004893659    
0.0306646420    0.0205072740    0.0004860690    
0.0308873030    0.0205360870    0.0004843093    
0.0311099640    0.0207462010    0.0004880446    
0.0313326250    0.0197276900    0.0004706417    
0.0315552860    0.0207953430    0.0004894716    
0.0317779470    0.0208777480    0.0004908676    
0.0320006080    0.0205460650    0.0004758890    
0.0322232690    0.0209963190    0.0004830890    
0.0324459300    0.0195342700    0.0004624873    
0.0326685910    0.0198846360    0.0004658472    
0.0328912520    0.0200055660    0.0004688089    
0.0331139130    0.0205586780    0.0004690634    
0.0333365740    0.0201645930    0.0004660543    
0.0335592350    0.0199054660    0.0004585977    
0.0337818960    0.0199159760    0.0004583536    
0.0340045570    0.0201156440    0.0004599138    
0.0342272170    0.0201867780    0.0004589090    
0.0344498780    0.0202628810    0.0004615942    
0.0346725390    0.0201371930    0.0004516383    
0.0348952000    0.0197132450    0.0004448232    
0.0351178610    0.0197117840    0.0004468425    
0.0353405220    0.0200043510    0.0004480958    
0.0355631830    0.0192263590    0.0004376414    
0.0357858440    0.0198440060    0.0004446156    
0.0360085050    0.0192324870    0.0004390338    
0.0362311660    0.0203925370    0.0004467066    
0.0364538270    0.0201531660    0.0004405129    
0.0366764880    0.0202104630    0.0004408186    
0.0368991490    0.0200452830    0.0004368004    
0.0371218100    0.0203471590    0.0004388181    
0.0373444710    0.0200964160    0.0004408551    
0.0375671320    0.0202886390    0.0004423134    
0.0377897930    0.0198648580    0.0004263395    
0.0380124540    0.0204947960    0.0004357637    
0.0382351150    0.0198184440    0.0004285131    
0.0384577760    0.0201739320    0.0004281678    
0.0386804370    0.0199847820    0.0004294081    
0.0389030980    0.0188926400    0.0004143482    
0.0391257590    0.0195782650    0.0004189362    
0.0393484200    0.0196604040    0.0004184012    
0.0395710810    0.0205615870    0.0004284594    
0.0397937420    0.0200080550    0.0004226530    
0.0400164030    0.0204322060    0.0004288470    
0.0402390640    0.0201282830    0.0004199777    
0.0404617250    0.0195624220    0.0004115897    
0.0406843860    0.0190418510    0.0004021530    
0.0409070470    0.0193539360    0.0004096587    
0.0411297080    0.0187941890    0.0003997859    
0.0413523690    0.0197802040    0.0004111962    
0.0415750300    0.0194221640    0.0004109188    
0.0417976910    0.0194947610    0.0004010385    
0.0420203520    0.0200155820    0.0004078871    
0.0422430130    0.0201422970    0.0004107253    
0.0424656740    0.0202332840    0.0004062941    
0.0426883350    0.0199567190    0.0004055105    
0.0429109960    0.0192524860    0.0003995358    
0.0431336570    0.0200113600    0.0004015950    
0.0433563180    0.0205466840    0.0004104414    
0.0435789790    0.0197631740    0.0003962155    
0.0438016400    0.0195050150    0.0003957606    
0.0440243010    0.0199530920    0.0003962193    
0.0442469620    0.0199540530    0.0003986030    
0.0444696230    0.0200404600    0.0003980326    
0.0446922840    0.0201416530    0.0003978513    
0.0449149450    0.0195990790    0.0003872096    
0.0451376060    0.0199058520    0.0003950476    
0.0453602670    0.0196442120    0.0003883287    
0.0455829280    0.0198362300    0.0003897707    
0.0458055890    0.0195026180    0.0003887329    
0.0460282500    0.0197762420    0.0003867301    
0.0462509110    0.0198521660    0.0003850618    
0.0464735720    0.0192764070    0.0003796511    
0.0466962330    0.0201386940    0.0003898136    
0.0469188940    0.0202197450    0.0003894900    
0.0471415550    0.0199504380    0.0003888745    
0.0473642160    0.0198009630    0.0003819904    
0.0475868770    0.0201884050    0.0003837933    
0.0478095380    0.0193973490    0.0003745527    
0.0480321990    0.0195114980    0.0003764763    
0.0482548600    0.0192626390    0.0003724379    
0.0484775210    0.0194046790    0.0003775201    
0.0487001820    0.0193185200    0.0003711670    
0.0489228430    0.0199816270    0.0003772805    
0.0491455040    0.0200574510    0.0003753813    
0.0493681650    0.0198104890    0.0003762691    
0.0495908260    0.0196813970    0.0003687310    
0.0498134870    0.0195298670    0.0003708054    
0.0500361480    0.0200149230    0.0003743888    
0.0502588090    0.0195011630    0.0003640152    
0.0504814700    0.0202166050    0.0003754777    
0.0507041310    0.0197251200    0.0003664759    
0.0509267920    0.0201289470    0.0003717398    
0.0511494530    0.0206065440    0.0003736161    
0.0513721140    0.0199645880    0.0003709890    
0.0515947750    0.0197541660    0.0003641360    
0.0518174360    0.0196097400    0.0003606170    
0.0520400970    0.0193976040    0.0003561742    
0.0522627580    0.0194094280    0.0003593107    
0.0524854190    0.0201522290    0.0003690984    
0.0527080800    0.0197171770    0.0003679193    
0.0529307410    0.0192098220    0.0003648604    
0.0531534020    0.0195448960    0.0003666889    
0.0533760630    0.0192520900    0.0003650710    
0.0535987240    0.0191550390    0.0003624496    
0.0538213850    0.0195312870    0.0003702323    
0.0540440460    0.0193955180    0.0003671971    
0.0542667070    0.0197694920    0.0003732751    
0.0544893680    0.0192190720    0.0003682382    
0.0547120290    0.0197221490    0.0003704711    
0.0549346900    0.0195408790    0.0003689586    
0.0551573510    0.0197112650    0.0003749259    
0.0553800120    0.0197491150    0.0003720953    
0.0556026730    0.0194808890    0.0003772222    
0.0558253340    0.0191474750    0.0003771117    
0.0560479950    0.0198456570    0.0003839258    
0.0562706560    0.0189062250    0.0003783516    
0.0564933170    0.0197598510    0.0003901575    
0.0567159780    0.0206048690    0.0003936358    
0.0569386390    0.0197358060    0.0003912878    
0.0571613000    0.0193926910    0.0003795200    
0.0573839610    0.0194372180    0.0003768007    
0.0576066220    0.0198828520    0.0003821506    
0.0578292830    0.0194377400    0.0003765986    
0.0580519440    0.0195373030    0.0003790259    
0.0582746050    0.0192268970    0.0003743448    
0.0584972660    0.0200202440    0.0003805277    
0.0587199270    0.0198258490    0.0003754115    
0.0589425880    0.0195313720    0.0003704336    
0.0591652490    0.0192429860    0.0003698523    
0.0593879100    0.0193924370    0.0003685284    
0.0596105710    0.0192187610    0.0003664874    
0.0598332320    0.0205012730    0.0003817537    
0.0600558930    0.0192230370    0.0003673043    
0.0602785540    0.0187762170    0.0003626266    
0.0605012150    0.0192899650    0.0003667798    
0.0607238760    0.0191816580    0.0003630833    
0.0609465370    0.0194848670    0.0003688226    
0.0611691980    0.0194626380    0.0003691964    
0.0613918590    0.0197045790    0.0003674284    
0.0616145200    0.0197785570    0.0003708117    
0.0618371810    0.0190443370    0.0003602904    
0.0620598420    0.0194797770    0.0003647617    
0.0622825030    0.0195872820    0.0003713604    
0.0625051640    0.0193694920    0.0003641036    
0.0627278250    0.0196169800    0.0003656678    
0.0629504860    0.0199229580    0.0003655127    
0.0631731470    0.0195805110    0.0003668409    
0.0633958080    0.0201610990    0.0003743822    
0.0636184690    0.0192757280    0.0003711678    
0.0638411300    0.0190887240    0.0003679765    
0.0640637910    0.0196459320    0.0003759342    
0.0642864520    0.0190238060    0.0003691334    
0.0645091130    0.0186298140    0.0003684920    
0.0647317740    0.0193429520    0.0003758926    
0.0649544350    0.0194826330    0.0003768323    
0.0651770960    0.0197392660    0.0003772370    
0.0653997570    0.0190077120    0.0003693779    
0.0656224180    0.0199772210    0.0003795044    
0.0658450790    0.0197222330    0.0003716548    
0.0660677400    0.0200105400    0.0003759547    
0.0662904010    0.0196883010    0.0003773672    
0.0665130620    0.0194748400    0.0003736879    
0.0667357230    0.0195198790    0.0003807715    
0.0669583840    0.0188066150    0.0003724995    
0.0671810450    0.0197013310    0.0003791523    
0.0674037060    0.0198991160    0.0003875063    
0.0676263670    0.0196906010    0.0003826485    
0.0678490280    0.0195680210    0.0003791227    
0.0680716890    0.0195002670    0.0003793080    
0.0682943500    0.0195084890    0.0003752326    
0.0685170110    0.0198341720    0.0003744964    
0.0687396720    0.0191521730    0.0003670238    
0.0689623330    0.0190100140    0.0003645004    
0.0691849940    0.0201530310    0.0003778989    
0.0694076550    0.0197634380    0.0003740286    
0.0696303160    0.0194935370    0.0003685249    
0.0698529770    0.0191690900    0.0003646792    
0.0700756380    0.0200322670    0.0003680139    
0.0702982990    0.0197938870    0.0003698016    
0.0705209600    0.0195840120    0.0003651802    
0.0707436210    0.0192088850    0.0003600049    
0.0709662820    0.0196834200    0.0003687689    
0.0711889430    0.0197286090    0.0003646575    
0.0714116040    0.0200325770    0.0003682061    
0.0716342650    0.0199574990    0.0003660232    
0.0718569260    0.0197238140    0.0003624085    
0.0720795870    0.0191922760    0.0003589380    
0.0723022480    0.0195403500    0.0003627301    
0.0725249090    0.0193117590    0.0003562837    
0.0727475700    0.0196497520    0.0003624577    
0.0729702310    0.0198836770    0.0003617008    
0.0731928920    0.0191541980    0.0003564227    
0.0734155530    0.0194279480    0.0003582444    
0.0736382140    0.0197793540    0.0003591500    
0.0738608750    0.0198970190    0.0003625438    
0.0740835360    0.0186677660    0.0003502944    
0.0743061970    0.0195258400    0.0003532100    
0.0745288580    0.0202229150    0.0003631557    
0.0747515190    0.0199427780    0.0003613439    
0.0749741800    0.0190226000    0.0003496424    
0.0751968410    0.0195836050    0.0003575461    
0.0754195020    0.0192257730    0.0003521889    
0.0756421630    0.0191856380    0.0003489452    
0.0758648240    0.0194565500    0.0003522449    
0.0760874850    0.0198264980    0.0003554072    
0.0763101460    0.0192161820    0.0003495585    
0.0765328070    0.0193843130    0.0003546768    
0.0767554680    0.0190837250    0.0003495281    
0.0769781290    0.0195358390    0.0003516120    
0.0772007900    0.0196222810    0.0003495629    
0.0774234510    0.0189391720    0.0003453777    
0.0776461120    0.0197142090    0.0003520394    
0.0778687730    0.0194904960    0.0003488800    
0.0780914340    0.0197573550    0.0003537701    
0.0783140950    0.0196936850    0.0003475958    
0.0785367560    0.0192316440    0.0003490322    
0.0787594170    0.0190876590    0.0003446077    
0.0789820780    0.0192127640    0.0003439636    
0.0792047390    0.0194005830    0.0003467709    
0.0794274000    0.0201279130    0.0003547079    
0.0796500610    0.0200188830    0.0003502932    
0.0798727220    0.0194313070    0.0003447957    
0.0800953830    0.0193907570    0.0003436436    
0.0803180440    0.0197668370    0.0003493770    
0.0805407050    0.0190397520    0.0003425724    
0.0807633660    0.0197611530    0.0003486780    
0.0809860270    0.0195849420    0.0003458381    
0.0812086880    0.0192419090    0.0003398337    
0.0814313490    0.0197085450    0.0003454982    
0.0816540100    0.0192692160    0.0003408479    
0.0818766710    0.0190423620    0.0003396093    
0.0820993320    0.0190816430    0.0003393398    
0.0823219930    0.0195070910    0.0003445171    
0.0825446540    0.0191646980    0.0003389991    
0.0827673150    0.0191387860    0.0003364939    
0.0829899760    0.0198724410    0.0003422724    
0.0832126370    0.0193727820    0.0003394557    
0.0834352980    0.0192388750    0.0003375241    
0.0836579590    0.0194127080    0.0003382909    
0.0838806200    0.0196115090    0.0003410826    
0.0841032810    0.0194800930    0.0003378277    
0.0843259420    0.0196514300    0.0003382652    
0.0845486030    0.0188421110    0.0003312267    
0.0847712640    0.0189582690    0.0003302213    
0.0849939250    0.0195726900    0.0003361140    
0.0852165860    0.0197108080    0.0003377397    
0.0854392470    0.0198502740    0.0003357228    
0.0856619080    0.0198844550    0.0003384864    
0.0858845690    0.0195052550    0.0003322240    
0.0861072300    0.0196894330    0.0003360931    
0.0863298910    0.0192526810    0.0003340848    
0.0865525520    0.0195711460    0.0003339280    
0.0867752130    0.0186174970    0.0003230627    
0.0869978740    0.0192252630    0.0003291302    
0.0872205350    0.0193618420    0.0003298770    
0.0874431960    0.0189853130    0.0003266540    
0.0876658570    0.0197826890    0.0003347234    
0.0878885180    0.0195380220    0.0003332174    
0.0881111790    0.0195786060    0.0003331353    
0.0883338400    0.0191635920    0.0003247600    
0.0885565010    0.0192345490    0.0003297728    
0.0887791620    0.0194494850    0.0003273100    
0.0890018230    0.0196657640    0.0003323171    
0.0892244840    0.0191748510    0.0003287010    
0.0894471450    0.0191584710    0.0003271727    
0.0896698060    0.0195243630    0.0003290363    
0.0898924670    0.0197505590    0.0003324708    
0.0901151280    0.0192933400    0.0003250507    
0.0903377890    0.0198069560    0.0003321053    
0.0905604500    0.0192062490    0.0003255296    
0.0907831110    0.0197147090    0.0003289900    
0.0910057720    0.0189597130    0.0003241095    
0.0912284330    0.0199117720    0.0003273918    
0.0914510940    0.0199235370    0.0003311404    
0.0916737550    0.0194523750    0.0003263895    
0.0918964160    0.0192390070    0.0003259444    
0.0921190770    0.0190661990    0.0003215435    
0.0923417380    0.0191686800    0.0003225387    
0.0925643990    0.0197014480    0.0003261901    
0.0927870600    0.0196074520    0.0003267455    
0.0930097210    0.0192588270    0.0003210697    
0.0932323820    0.0198200200    0.0003281083    
