# Diamond Light Source Ltd.
# Data extracted from: /dls/b21/data/2018/cm19678-3/processed/b21-386631_00730.dat
q(1/A)          Column          Error           
0.0035000000    2.0718854000    0.0244292820    
0.0037226610    1.8632711000    0.0226790140    
0.0039453220    1.6036983000    0.0191405370    
0.0041679830    1.2904816000    0.0141004660    
0.0043906440    0.9718965400    0.0117045010    
0.0046133050    0.7791479800    0.0100604340    
0.0048359660    0.5933413200    0.0083043705    
0.0050586270    0.4594807800    0.0071828953    
0.0052812880    0.4160680500    0.0064625230    
0.0055039490    0.3748098600    0.0058322479    
0.0057266100    0.3201219100    0.0052143758    
0.0059492710    0.2604122800    0.0047030043    
0.0061719320    0.2158636200    0.0041261220    
0.0063945930    0.2061012400    0.0040806127    
0.0066172539    0.1831484200    0.0036120365    
0.0068399149    0.1672115500    0.0033969533    
0.0070625759    0.1406792900    0.0030838562    
0.0072852369    0.1264648600    0.0028801583    
0.0075078979    0.1145731000    0.0027279310    
0.0077305589    0.1027496300    0.0025341328    
0.0079532199    0.0968826930    0.0024266215    
0.0081758809    0.0876106910    0.0023290504    
0.0083985419    0.0791765790    0.0020650856    
0.0086212029    0.0757294480    0.0020196315    
0.0088438639    0.0687938040    0.0019094662    
0.0090665249    0.0663487020    0.0018111573    
0.0092891859    0.0635567500    0.0018502085    
0.0095118469    0.0592263640    0.0017176083    
0.0097345079    0.0547383550    0.0016037209    
0.0099571689    0.0540364560    0.0015605485    
0.0101798300    0.0479522930    0.0014700719    
0.0104024910    0.0478521170    0.0014635660    
0.0106251520    0.0459242520    0.0014386495    
0.0108478130    0.0447080070    0.0013823546    
0.0110704740    0.0438566780    0.0013035044    
0.0112931350    0.0440367260    0.0013100136    
0.0115157960    0.0398655260    0.0012391598    
0.0117384570    0.0392956960    0.0012196811    
0.0119611180    0.0378462540    0.0012004103    
0.0121837790    0.0373576370    0.0011725905    
0.0124064400    0.0373163330    0.0011230896    
0.0126291010    0.0350037450    0.0010741186    
0.0128517620    0.0338206460    0.0010584468    
0.0130744230    0.0325702250    0.0010309925    
0.0132970840    0.0323494250    0.0010224675    
0.0135197450    0.0329052570    0.0010164468    
0.0137424060    0.0305605320    0.0009659260    
0.0139650670    0.0300314420    0.0009361997    
0.0141877280    0.0311610160    0.0009557515    
0.0144103890    0.0282270950    0.0008939611    
0.0146330500    0.0280375200    0.0008852973    
0.0148557110    0.0291057310    0.0008982224    
0.0150783720    0.0287902130    0.0008859576    
0.0153010330    0.0272685920    0.0008500706    
0.0155236940    0.0283069210    0.0008609537    
0.0157463550    0.0268793990    0.0008244284    
0.0159690160    0.0261487840    0.0008100608    
0.0161916770    0.0265001190    0.0008108905    
0.0164143380    0.0266260780    0.0008189732    
0.0166369990    0.0249148580    0.0007677932    
0.0168596600    0.0265001420    0.0007848665    
0.0170823210    0.0253350580    0.0007607748    
0.0173049820    0.0249871740    0.0007568397    
0.0175276430    0.0252594340    0.0007689762    
0.0177503040    0.0245660180    0.0007390156    
0.0179729650    0.0234055890    0.0007141960    
0.0181956260    0.0234182860    0.0007006942    
0.0184182870    0.0242572370    0.0007097737    
0.0186409480    0.0245232100    0.0007181713    
0.0188636090    0.0233019160    0.0006956571    
0.0190862700    0.0229185560    0.0006888322    
0.0193089310    0.0230948320    0.0006903984    
0.0195315920    0.0239388110    0.0006789957    
0.0197542530    0.0225406680    0.0006598289    
0.0199769140    0.0227724570    0.0006632129    
0.0201995750    0.0219525570    0.0006409676    
0.0204222360    0.0226166210    0.0006561747    
0.0206448970    0.0228780850    0.0006552663    
0.0208675580    0.0227556940    0.0006400539    
0.0210902190    0.0215636190    0.0006290754    
0.0213128800    0.0229645650    0.0006403800    
0.0215355410    0.0220371180    0.0006198424    
0.0217582020    0.0216361350    0.0006141773    
0.0219808630    0.0222922910    0.0006226023    
0.0222035240    0.0212924950    0.0006029667    
0.0224261850    0.0217873320    0.0006045044    
0.0226488460    0.0227004540    0.0006124084    
0.0228715070    0.0206972690    0.0005833110    
0.0230941680    0.0217329630    0.0005977275    
0.0233168290    0.0207344280    0.0005852888    
0.0235394900    0.0208125310    0.0005799185    
0.0237621510    0.0214206780    0.0005724917    
0.0239848120    0.0211942260    0.0005701164    
0.0242074730    0.0213090270    0.0005670825    
0.0244301340    0.0211459250    0.0005655527    
0.0246527950    0.0222480810    0.0005854758    
0.0248754560    0.0221573590    0.0005711494    
0.0250981170    0.0212506860    0.0005605890    
0.0253207780    0.0202929400    0.0005314546    
0.0255434390    0.0216809610    0.0005551925    
0.0257661000    0.0219931620    0.0005609843    
0.0259887610    0.0216682660    0.0005509079    
0.0262114220    0.0213052110    0.0005491836    
0.0264340830    0.0215558250    0.0005448883    
0.0266567440    0.0214263010    0.0005398920    
0.0268794050    0.0213192240    0.0005363433    
0.0271020660    0.0207989700    0.0005276140    
0.0273247270    0.0209069350    0.0005258047    
0.0275473880    0.0202837930    0.0005168789    
0.0277700490    0.0195240600    0.0005041090    
0.0279927100    0.0195685450    0.0005002796    
0.0282153710    0.0210378230    0.0005212430    
0.0284380320    0.0206797340    0.0005137921    
0.0286606930    0.0205531070    0.0005078326    
0.0288833540    0.0212232510    0.0005170255    
0.0291060150    0.0210949890    0.0005149717    
0.0293286760    0.0201444820    0.0004962237    
0.0295513370    0.0200310380    0.0004894362    
0.0297739980    0.0201445030    0.0004962242    
0.0299966590    0.0201708350    0.0004880676    
0.0302193200    0.0200457940    0.0004936429    
0.0304419810    0.0209371130    0.0005054267    
0.0306646420    0.0206936960    0.0004882979    
0.0308873030    0.0209036880    0.0004886494    
0.0311099640    0.0201741850    0.0004812936    
0.0313326250    0.0208638280    0.0004840287    
0.0315552860    0.0202674230    0.0004832431    
0.0317779470    0.0202912010    0.0004839476    
0.0320006080    0.0197544330    0.0004666546    
0.0322232690    0.0210095530    0.0004832656    
0.0324459300    0.0197552570    0.0004651194    
0.0326685910    0.0199848750    0.0004670434    
0.0328912520    0.0211502470    0.0004820589    
0.0331139130    0.0202503610    0.0004655563    
0.0333365740    0.0206514020    0.0004716702    
0.0335592350    0.0202033390    0.0004620396    
0.0337818960    0.0208780150    0.0004693170    
0.0340045570    0.0206329710    0.0004658137    
0.0342272170    0.0203035830    0.0004602579    
0.0344498780    0.0197285940    0.0004554909    
0.0346725390    0.0202405280    0.0004528184    
0.0348952000    0.0194241230    0.0004415714    
0.0351178610    0.0201392500    0.0004516844    
0.0353405220    0.0200866760    0.0004490395    
0.0355631830    0.0204836180    0.0004517468    
0.0357858440    0.0197961940    0.0004441020    
0.0360085050    0.0197857010    0.0004453258    
0.0362311660    0.0206196790    0.0004492102    
0.0364538270    0.0195292610    0.0004336625    
0.0366764880    0.0206067520    0.0004451419    
0.0368991490    0.0204471090    0.0004411789    
0.0371218100    0.0204438590    0.0004398818    
0.0373444710    0.0196051710    0.0004354555    
0.0375671320    0.0198567120    0.0004376019    
0.0377897930    0.0201596950    0.0004295134    
0.0380124540    0.0205153950    0.0004360046    
0.0382351150    0.0194312620    0.0004243281    
0.0384577760    0.0196942880    0.0004230686    
0.0386804370    0.0203466710    0.0004333004    
0.0389030980    0.0200487590    0.0004268593    
0.0391257590    0.0201360890    0.0004248839    
0.0393484200    0.0193061850    0.0004146358    
0.0395710810    0.0199832720    0.0004224123    
0.0397937420    0.0200457890    0.0004230727    
0.0400164030    0.0195160750    0.0004191436    
0.0402390640    0.0205334450    0.0004242049    
0.0404617250    0.0196856450    0.0004129048    
0.0406843860    0.0198252290    0.0004103626    
0.0409070470    0.0201884000    0.0004184180    
0.0411297080    0.0199272530    0.0004116814    
0.0413523690    0.0202181940    0.0004157448    
0.0415750300    0.0196241030    0.0004130704    
0.0417976910    0.0197855070    0.0004040384    
0.0420203520    0.0199843490    0.0004075893    
0.0422430130    0.0195663830    0.0004048313    
0.0424656740    0.0198436730    0.0004023836    
0.0426883350    0.0200741000    0.0004067218    
0.0429109960    0.0199343860    0.0004065703    
0.0431336570    0.0188768960    0.0003900651    
0.0433563180    0.0200403680    0.0004053732    
0.0435789790    0.0200670470    0.0003992701    
0.0438016400    0.0196675990    0.0003974266    
0.0440243010    0.0192862630    0.0003895618    
0.0442469620    0.0194304880    0.0003933587    
0.0444696230    0.0194653210    0.0003922993    
0.0446922840    0.0205130770    0.0004015231    
0.0449149450    0.0205956450    0.0003969519    
0.0451376060    0.0198529740    0.0003945424    
0.0453602670    0.0197306440    0.0003892017    
0.0455829280    0.0190033400    0.0003815193    
0.0458055890    0.0205739670    0.0003992876    
0.0460282500    0.0192941810    0.0003820068    
0.0462509110    0.0196674290    0.0003832853    
0.0464735720    0.0194129560    0.0003810126    
0.0466962330    0.0199822560    0.0003883162    
0.0469188940    0.0191262820    0.0003788311    
0.0471415550    0.0198159970    0.0003875816    
0.0473642160    0.0198766590    0.0003827392    
0.0475868770    0.0196358790    0.0003785241    
0.0478095380    0.0201587860    0.0003818527    
0.0480321990    0.0197168830    0.0003784716    
0.0482548600    0.0195454490    0.0003751809    
0.0484775210    0.0194727450    0.0003782007    
0.0487001820    0.0189923990    0.0003680393    
0.0489228430    0.0197912870    0.0003754983    
0.0491455040    0.0201789180    0.0003765353    
0.0493681650    0.0191263400    0.0003697335    
0.0495908260    0.0192135790    0.0003643408    
0.0498134870    0.0194403040    0.0003699729    
0.0500361480    0.0200939840    0.0003751464    
0.0502588090    0.0206787540    0.0003748637    
0.0504814700    0.0198490040    0.0003720671    
0.0507041310    0.0197543480    0.0003667658    
0.0509267920    0.0193688570    0.0003646720    
0.0511494530    0.0197143630    0.0003654570    
0.0513721140    0.0193805660    0.0003655410    
0.0515947750    0.0203401840    0.0003695163    
0.0518174360    0.0197244670    0.0003616886    
0.0520400970    0.0196219430    0.0003582460    
0.0522627580    0.0198836990    0.0003636924    
0.0524854190    0.0194511280    0.0003626393    
0.0527080800    0.0196093090    0.0003669300    
0.0529307410    0.0200018540    0.0003723249    
0.0531534020    0.0190514880    0.0003620490    
0.0533760630    0.0198009820    0.0003702574    
0.0535987240    0.0198565820    0.0003690458    
0.0538213850    0.0193999010    0.0003690035    
0.0540440460    0.0194322370    0.0003675631    
0.0542667070    0.0194049560    0.0003698363    
0.0544893680    0.0192421800    0.0003684781    
0.0547120290    0.0198563750    0.0003717484    
0.0549346900    0.0189924460    0.0003637625    
0.0551573510    0.0202267680    0.0003798161    
0.0553800120    0.0197160500    0.0003718025    
0.0556026730    0.0196435670    0.0003788131    
0.0558253340    0.0199813440    0.0003852552    
0.0560479950    0.0199293670    0.0003847540    
0.0562706560    0.0194003340    0.0003832831    
0.0564933170    0.0208481680    0.0004007781    
0.0567159780    0.0194487460    0.0003824524    
0.0569386390    0.0198386580    0.0003923259    
0.0571613000    0.0195432090    0.0003810092    
0.0573839610    0.0199432390    0.0003816932    
0.0576066220    0.0197526350    0.0003809164    
0.0578292830    0.0197680750    0.0003798043    
0.0580519440    0.0194142580    0.0003778495    
0.0582746050    0.0201618510    0.0003833578    
0.0584972660    0.0200945980    0.0003812529    
0.0587199270    0.0191737930    0.0003692050    
0.0589425880    0.0198846620    0.0003737877    
0.0591652490    0.0196572670    0.0003738312    
0.0593879100    0.0190932160    0.0003656926    
0.0596105710    0.0194443590    0.0003686507    
0.0598332320    0.0197497510    0.0003747102    
0.0600558930    0.0196601520    0.0003714756    
0.0602785540    0.0194294960    0.0003688997    
0.0605012150    0.0198708080    0.0003722796    
0.0607238760    0.0200152720    0.0003709077    
0.0609465370    0.0191098030    0.0003652740    
0.0611691980    0.0192614800    0.0003673020    
0.0613918590    0.0195010050    0.0003655439    
0.0616145200    0.0195789230    0.0003689542    
0.0618371810    0.0193052980    0.0003627688    
0.0620598420    0.0193656170    0.0003637096    
0.0622825030    0.0192160620    0.0003678431    
0.0625051640    0.0199258930    0.0003693148    
0.0627278250    0.0197416630    0.0003668466    
0.0629504860    0.0197304800    0.0003637611    
0.0631731470    0.0195618660    0.0003666847    
0.0633958080    0.0192314570    0.0003656673    
0.0636184690    0.0195635860    0.0003739479    
0.0638411300    0.0193247600    0.0003702632    
0.0640637910    0.0199141070    0.0003785104    
0.0642864520    0.0195414820    0.0003741410    
0.0645091130    0.0192731600    0.0003748195    
0.0647317740    0.0199804800    0.0003820562    
0.0649544350    0.0189597600    0.0003717600    
0.0651770960    0.0198205680    0.0003780321    
0.0653997570    0.0194116460    0.0003733009    
0.0656224180    0.0193519560    0.0003735370    
0.0658450790    0.0195771320    0.0003703038    
0.0660677400    0.0194050480    0.0003702417    
0.0662904010    0.0197698580    0.0003781671    
0.0665130620    0.0198568750    0.0003773544    
0.0667357230    0.0191949990    0.0003776086    
0.0669583840    0.0200997990    0.0003851130    
0.0671810450    0.0193822270    0.0003760882    
0.0674037060    0.0194558570    0.0003831854    
0.0676263670    0.0193653690    0.0003794943    
0.0678490280    0.0200254530    0.0003835477    
0.0680716890    0.0193251430    0.0003776200    
0.0682943500    0.0200806840    0.0003807150    
0.0685170110    0.0194967300    0.0003713158    
0.0687396720    0.0197238750    0.0003724802    
0.0689623330    0.0194662610    0.0003688671    
0.0691849940    0.0198503280    0.0003750690    
0.0694076550    0.0200910800    0.0003771352    
0.0696303160    0.0199065950    0.0003724276    
0.0698529770    0.0200591500    0.0003730684    
0.0700756380    0.0198246820    0.0003661207    
0.0702982990    0.0193882200    0.0003660110    
0.0705209600    0.0197698620    0.0003669274    
0.0707436210    0.0199530740    0.0003669308    
0.0709662820    0.0192777400    0.0003649674    
0.0711889430    0.0198047490    0.0003653789    
0.0714116040    0.0190328680    0.0003589191    
0.0716342650    0.0193217210    0.0003601641    
0.0718569260    0.0199122730    0.0003641541    
0.0720795870    0.0193217710    0.0003601650    
0.0723022480    0.0199396330    0.0003664358    
0.0725249090    0.0192545440    0.0003557735    
0.0727475700    0.0194511380    0.0003606394    
0.0729702310    0.0194184810    0.0003574626    
0.0731928920    0.0197332020    0.0003617879    
0.0734155530    0.0200178920    0.0003636613    
0.0736382140    0.0197422170    0.0003588308    
0.0738608750    0.0190269570    0.0003545464    
0.0740835360    0.0198134940    0.0003609021    
0.0743061970    0.0192658200    0.0003508681    
0.0745288580    0.0194814390    0.0003564539    
0.0747515190    0.0199316940    0.0003612617    
0.0749741800    0.0192558990    0.0003517976    
0.0751968410    0.0197030940    0.0003586533    
0.0754195020    0.0194083760    0.0003538753    
0.0756421630    0.0193779890    0.0003507077    
0.0758648240    0.0194266240    0.0003519917    
0.0760874850    0.0191594770    0.0003493952    
0.0763101460    0.0198667790    0.0003554446    
0.0765328070    0.0196134260    0.0003567847    
0.0767554680    0.0192136990    0.0003507341    
0.0769781290    0.0190061680    0.0003468302    
0.0772007900    0.0196491720    0.0003498200    
0.0774234510    0.0194701990    0.0003502038    
0.0776461120    0.0194144190    0.0003493701    
0.0778687730    0.0197235490    0.0003509773    
0.0780914340    0.0192398650    0.0003491239    
0.0783140950    0.0195361430    0.0003462201    
0.0785367560    0.0194553150    0.0003510737    
0.0787594170    0.0195811350    0.0003490515    
0.0789820780    0.0196458010    0.0003478359    
0.0792047390    0.0194397330    0.0003471381    
0.0794274000    0.0201799560    0.0003551840    
0.0796500610    0.0194998450    0.0003457398    
0.0798727220    0.0188825770    0.0003399095    
0.0800953830    0.0197581540    0.0003469013    
0.0803180440    0.0195959080    0.0003478807    
0.0805407050    0.0200587900    0.0003516381    
0.0807633660    0.0199600400    0.0003504459    
0.0809860270    0.0198984030    0.0003486123    
0.0812086880    0.0192738620    0.0003401329    
0.0814313490    0.0194016100    0.0003428146    
0.0816540100    0.0197354530    0.0003449642    
0.0818766710    0.0194804110    0.0003435106    
0.0820993320    0.0198440130    0.0003460697    
0.0823219930    0.0189674780    0.0003397357    
0.0825446540    0.0195684350    0.0003425686    
0.0827673150    0.0193241360    0.0003381365    
0.0829899760    0.0192671870    0.0003370368    
0.0832126370    0.0196186310    0.0003416201    
0.0834352980    0.0195665300    0.0003404033    
0.0836579590    0.0193085430    0.0003373991    
0.0838806200    0.0192575260    0.0003380074    
0.0841032810    0.0195230730    0.0003382172    
0.0843259420    0.0194088370    0.0003361877    
0.0845486030    0.0196126790    0.0003379488    
0.0847712640    0.0193801120    0.0003338918    
0.0849939250    0.0197882480    0.0003379768    
0.0852165860    0.0194870770    0.0003358344    
0.0854392470    0.0199885610    0.0003369071    
0.0856619080    0.0200017120    0.0003395001    
0.0858845690    0.0192921740    0.0003304210    
0.0861072300    0.0197774830    0.0003368607    
0.0863298910    0.0192372300    0.0003339676    
0.0865525520    0.0189235320    0.0003283732    
0.0867752130    0.0191519980    0.0003276839    
0.0869978740    0.0191032280    0.0003281005    
0.0872205350    0.0194930750    0.0003310098    
0.0874431960    0.0192008210    0.0003285193    
0.0876658570    0.0190483520    0.0003284687    
0.0878885180    0.0202106500    0.0003389217    
0.0881111790    0.0192461120    0.0003303111    
0.0883338400    0.0190554420    0.0003238586    
0.0885565010    0.0192477980    0.0003299030    
0.0887791620    0.0197323940    0.0003296985    
0.0890018230    0.0198193840    0.0003336294    
0.0892244840    0.0196388770    0.0003326712    
0.0894471450    0.0196577140    0.0003314249    
0.0896698060    0.0193266880    0.0003273829    
0.0898924670    0.0197637460    0.0003325986    
0.0901151280    0.0194212560    0.0003261429    
0.0903377890    0.0194358310    0.0003289958    
0.0905604500    0.0191750780    0.0003252818    
0.0907831110    0.0194860930    0.0003270934    
0.0910057720    0.0197041320    0.0003304277    
0.0912284330    0.0191493160    0.0003210786    
0.0914510940    0.0193145700    0.0003260569    
0.0916737550    0.0193940910    0.0003259166    
0.0918964160    0.0191801990    0.0003254623    
0.0921190770    0.0191440480    0.0003222155    
0.0923417380    0.0190946260    0.0003219313    
0.0925643990    0.0194495810    0.0003241147    
0.0927870600    0.0197782420    0.0003281820    
0.0930097210    0.0197746760    0.0003253576    
0.0932323820    0.0199143660    0.0003289048    
