# Diamond Light Source Ltd.
# Data extracted from: /dls/b21/data/2018/cm19678-3/processed/b21-386631_00733.dat
q(1/A)          Column          Error           
0.0035000000    2.0739537000    0.0244434760    
0.0037226610    1.8688223000    0.0227146340    
0.0039453220    1.5961928000    0.0190972600    
0.0041679830    1.2703527000    0.0139912120    
0.0043906440    0.9661347500    0.0116707120    
0.0046133050    0.7653740200    0.0099719296    
0.0048359660    0.5794890200    0.0082075329    
0.0050586270    0.4513577800    0.0071197039    
0.0052812880    0.4198508800    0.0064923669    
0.0055039490    0.3844927100    0.0059075871    
0.0057266100    0.3234024700    0.0052414555    
0.0059492710    0.2620690200    0.0047183276    
0.0061719320    0.2190542800    0.0041568448    
0.0063945930    0.1919940600    0.0039388058    
0.0066172539    0.1781198500    0.0035623969    
0.0068399149    0.1598536800    0.0033216460    
0.0070625759    0.1469227400    0.0031518036    
0.0072852369    0.1238614100    0.0028505919    
0.0075078979    0.1160860000    0.0027461078    
0.0077305589    0.1008911800    0.0025113164    
0.0079532199    0.0965946310    0.0024232099    
0.0081758809    0.0886158700    0.0023425652    
0.0083985419    0.0830143640    0.0021147154    
0.0086212029    0.0768192740    0.0020342786    
0.0088438639    0.0703423320    0.0019309957    
0.0090665249    0.0627004090    0.0017608029    
0.0092891859    0.0646984520    0.0018669057    
0.0095118469    0.0625242000    0.0017649251    
0.0097345079    0.0565330810    0.0016299333    
0.0099571689    0.0553074250    0.0015789238    
0.0101798300    0.0514309570    0.0015225858    
0.0104024910    0.0482181300    0.0014692730    
0.0106251520    0.0469685150    0.0014550334    
0.0108478130    0.0462970470    0.0014068217    
0.0110704740    0.0429726420    0.0012904057    
0.0112931350    0.0418612380    0.0012773500    
0.0115157960    0.0404113950    0.0012477170    
0.0117384570    0.0383176930    0.0012045063    
0.0119611180    0.0379667030    0.0012024175    
0.0121837790    0.0370692700    0.0011681518    
0.0124064400    0.0361392210    0.0011053249    
0.0126291010    0.0330645130    0.0010440268    
0.0128517620    0.0332961050    0.0010502928    
0.0130744230    0.0333263050    0.0010429759    
0.0132970840    0.0340678170    0.0010493588    
0.0135197450    0.0319371500    0.0010014648    
0.0137424060    0.0305044730    0.0009651188    
0.0139650670    0.0302990750    0.0009404391    
0.0141877280    0.0311368060    0.0009554585    
0.0144103890    0.0302422080    0.0009253965    
0.0146330500    0.0287131150    0.0008959733    
0.0148557110    0.0297204380    0.0009077323    
0.0150783720    0.0266134990    0.0008518773    
0.0153010330    0.0269815140    0.0008456535    
0.0155236940    0.0281020420    0.0008579027    
0.0157463550    0.0280977510    0.0008429747    
0.0159690160    0.0260777750    0.0008090265    
0.0161916770    0.0265292810    0.0008114030    
0.0164143380    0.0245141170    0.0007858865    
0.0166369990    0.0268594500    0.0007972586    
0.0168596600    0.0260394970    0.0007780788    
0.0170823210    0.0241510790    0.0007428464    
0.0173049820    0.0248537040    0.0007548775    
0.0175276430    0.0250060230    0.0007651719    
0.0177503040    0.0249702820    0.0007451326    
0.0179729650    0.0233658340    0.0007136477    
0.0181956260    0.0229188760    0.0006932394    
0.0184182870    0.0237211530    0.0007019444    
0.0186409480    0.0231599320    0.0006979810    
0.0188636090    0.0235134530    0.0006988648    
0.0190862700    0.0230051400    0.0006901887    
0.0193089310    0.0227889850    0.0006858679    
0.0195315920    0.0227099650    0.0006613930    
0.0197542530    0.0228534560    0.0006644457    
0.0199769140    0.0234716470    0.0006733726    
0.0201995750    0.0221807720    0.0006443435    
0.0204222360    0.0221633530    0.0006496194    
0.0206448970    0.0234261950    0.0006631236    
0.0208675580    0.0209948500    0.0006148419    
0.0210902190    0.0227785870    0.0006466077    
0.0213128800    0.0236470210    0.0006498789    
0.0215355410    0.0222151050    0.0006223915    
0.0217582020    0.0212037500    0.0006080592    
0.0219808630    0.0219133330    0.0006173382    
0.0222035240    0.0222694200    0.0006166945    
0.0224261850    0.0214721770    0.0006001656    
0.0226488460    0.0218118720    0.0006003520    
0.0228715070    0.0209801790    0.0005873322    
0.0230941680    0.0213912410    0.0005930582    
0.0233168290    0.0215475120    0.0005967032    
0.0235394900    0.0201048400    0.0005700204    
0.0237621510    0.0203835870    0.0005585068    
0.0239848120    0.0211823630    0.0005700035    
0.0242074730    0.0217049610    0.0005723736    
0.0244301340    0.0213006760    0.0005676649    
0.0246527950    0.0200327200    0.0005556077    
0.0248754560    0.0201878540    0.0005452196    
0.0250981170    0.0219197500    0.0005693922    
0.0253207780    0.0205329180    0.0005346316    
0.0255434390    0.0210730830    0.0005473990    
0.0257661000    0.0213098160    0.0005522457    
0.0259887610    0.0210834440    0.0005434672    
0.0262114220    0.0199353190    0.0005312780    
0.0264340830    0.0217659990    0.0005475831    
0.0266567440    0.0214570260    0.0005403233    
0.0268794050    0.0208638770    0.0005306281    
0.0271020660    0.0209496300    0.0005295649    
0.0273247270    0.0201035750    0.0005156458    
0.0275473880    0.0198128750    0.0005108855    
0.0277700490    0.0209722780    0.0005225139    
0.0279927100    0.0197380500    0.0005024829    
0.0282153710    0.0203050220    0.0005121264    
0.0284380320    0.0205682190    0.0005124470    
0.0286606930    0.0202176350    0.0005037123    
0.0288833540    0.0205086750    0.0005082886    
0.0291060150    0.0205577850    0.0005084139    
0.0293286760    0.0211380590    0.0005083556    
0.0295513370    0.0208356960    0.0004992108    
0.0297739980    0.0198543920    0.0004926785    
0.0299966590    0.0203158820    0.0004898594    
0.0302193200    0.0199518140    0.0004925248    
0.0304419810    0.0206598740    0.0005021104    
0.0306646420    0.0201669850    0.0004820832    
0.0308873030    0.0211584580    0.0004916585    
0.0311099640    0.0200971050    0.0004804127    
0.0313326250    0.0205303180    0.0004801839    
0.0315552860    0.0199826460    0.0004798754    
0.0317779470    0.0202021760    0.0004829244    
0.0320006080    0.0197907480    0.0004671216    
0.0322232690    0.0206127510    0.0004787195    
0.0324459300    0.0198351650    0.0004660973    
0.0326685910    0.0207850580    0.0004763408    
0.0328912520    0.0194394400    0.0004621892    
0.0331139130    0.0195150430    0.0004570631    
0.0333365740    0.0204716210    0.0004696512    
0.0335592350    0.0205554060    0.0004660862    
0.0337818960    0.0204699300    0.0004647458    
0.0340045570    0.0201104530    0.0004599154    
0.0342272170    0.0203486530    0.0004608063    
0.0344498780    0.0199421890    0.0004579875    
0.0346725390    0.0203249040    0.0004537985    
0.0348952000    0.0200799050    0.0004490003    
0.0351178610    0.0201121560    0.0004514175    
0.0353405220    0.0204212890    0.0004528013    
0.0355631830    0.0204570830    0.0004514911    
0.0357858440    0.0196001500    0.0004419338    
0.0360085050    0.0199593670    0.0004473126    
0.0362311660    0.0198106660    0.0004403458    
0.0364538270    0.0202162920    0.0004412607    
0.0366764880    0.0204370170    0.0004433411    
0.0368991490    0.0200601130    0.0004370198    
0.0371218100    0.0199076320    0.0004341102    
0.0373444710    0.0201017390    0.0004409718    
0.0375671320    0.0193101780    0.0004315730    
0.0377897930    0.0201446950    0.0004293888    
0.0380124540    0.0192490800    0.0004223687    
0.0382351150    0.0196846770    0.0004271211    
0.0384577760    0.0195611710    0.0004216710    
0.0386804370    0.0203776940    0.0004336661    
0.0389030980    0.0196884550    0.0004230410    
0.0391257590    0.0201573240    0.0004251427    
0.0393484200    0.0194340420    0.0004160406    
0.0395710810    0.0196650490    0.0004190698    
0.0397937420    0.0198436740    0.0004209689    
0.0400164030    0.0193572150    0.0004174684    
0.0402390640    0.0194411650    0.0004128017    
0.0404617250    0.0193250660    0.0004091393    
0.0406843860    0.0198114890    0.0004102540    
0.0409070470    0.0200876290    0.0004174067    
0.0411297080    0.0189948150    0.0004019673    
0.0413523690    0.0196828390    0.0004102372    
0.0415750300    0.0202708390    0.0004198562    
0.0417976910    0.0197970030    0.0004041889    
0.0420203520    0.0200291980    0.0004080799    
0.0422430130    0.0200052160    0.0004093795    
0.0424656740    0.0194307290    0.0003982075    
0.0426883350    0.0199372790    0.0004053666    
0.0429109960    0.0202611030    0.0004099221    
0.0431336570    0.0195974630    0.0003974728    
0.0433563180    0.0199862460    0.0004048587    
0.0435789790    0.0195459350    0.0003940841    
0.0438016400    0.0199198220    0.0003999997    
0.0440243010    0.0192500750    0.0003892281    
0.0442469620    0.0201903130    0.0004010090    
0.0444696230    0.0202671810    0.0004003308    
0.0446922840    0.0197303700    0.0003938205    
0.0449149450    0.0200633860    0.0003918212    
0.0451376060    0.0198483870    0.0003945292    
0.0453602670    0.0201945920    0.0003937832    
0.0455829280    0.0191826550    0.0003833465    
0.0458055890    0.0198565520    0.0003922964    
0.0460282500    0.0200311120    0.0003892656    
0.0462509110    0.0198574240    0.0003851638    
0.0464735720    0.0196405170    0.0003832706    
0.0466962330    0.0199025110    0.0003875724    
0.0469188940    0.0200299790    0.0003877093    
0.0471415550    0.0196069510    0.0003855634    
0.0473642160    0.0192312600    0.0003765050    
0.0475868770    0.0192450030    0.0003747684    
0.0478095380    0.0196990940    0.0003775048    
0.0480321990    0.0197855110    0.0003791608    
0.0482548600    0.0193037550    0.0003728846    
0.0484775210    0.0192775790    0.0003763315    
0.0487001820    0.0206432650    0.0003837330    
0.0489228430    0.0194026320    0.0003718235    
0.0491455040    0.0191984130    0.0003673034    
0.0493681650    0.0196155770    0.0003744631    
0.0495908260    0.0195691400    0.0003677266    
0.0498134870    0.0197110950    0.0003725712    
0.0500361480    0.0196839860    0.0003713299    
0.0502588090    0.0190441570    0.0003597723    
0.0504814700    0.0199080630    0.0003726508    
0.0507041310    0.0199278530    0.0003684032    
0.0509267920    0.0200106710    0.0003706951    
0.0511494530    0.0200225060    0.0003683322    
0.0513721140    0.0200526240    0.0003718553    
0.0515947750    0.0193901260    0.0003608129    
0.0518174360    0.0195817660    0.0003604074    
0.0520400970    0.0192915330    0.0003552461    
0.0522627580    0.0198204260    0.0003631430    
0.0524854190    0.0195219380    0.0003633286    
0.0527080800    0.0199833500    0.0003704433    
0.0529307410    0.0198664980    0.0003710934    
0.0531534020    0.0193367490    0.0003647794    
0.0533760630    0.0195272470    0.0003677193    
0.0535987240    0.0194413750    0.0003651969    
0.0538213850    0.0197259980    0.0003721224    
0.0540440460    0.0196440320    0.0003695910    
0.0542667070    0.0200426210    0.0003758946    
0.0544893680    0.0196193730    0.0003721026    
0.0547120290    0.0188502910    0.0003622378    
0.0549346900    0.0196575480    0.0003701074    
0.0551573510    0.0202086850    0.0003796774    
0.0553800120    0.0198104460    0.0003727220    
0.0556026730    0.0194275970    0.0003767558    
0.0558253340    0.0203783690    0.0003890958    
0.0560479950    0.0201183660    0.0003866058    
0.0562706560    0.0191687340    0.0003810196    
0.0564933170    0.0194183290    0.0003868224    
0.0567159780    0.0201289170    0.0003891144    
0.0569386390    0.0203152620    0.0003970430    
0.0571613000    0.0195835600    0.0003814336    
0.0573839610    0.0199830410    0.0003821052    
0.0576066220    0.0200203630    0.0003835206    
0.0578292830    0.0192969220    0.0003752816    
0.0580519440    0.0198808120    0.0003823940    
0.0582746050    0.0197423160    0.0003793794    
0.0584972660    0.0193237840    0.0003738998    
0.0587199270    0.0198097690    0.0003753089    
0.0589425880    0.0192413890    0.0003677221    
0.0591652490    0.0195964960    0.0003732835    
0.0593879100    0.0198949470    0.0003733220    
0.0596105710    0.0193916240    0.0003681806    
0.0598332320    0.0197245480    0.0003745017    
0.0600558930    0.0204987710    0.0003793468    
0.0602785540    0.0200351380    0.0003746358    
0.0605012150    0.0196229380    0.0003699808    
0.0607238760    0.0197916950    0.0003688605    
0.0609465370    0.0193992470    0.0003680601    
0.0611691980    0.0192786490    0.0003674958    
0.0613918590    0.0195521750    0.0003660532    
0.0616145200    0.0200063200    0.0003729901    
0.0618371810    0.0190152910    0.0003600632    
0.0620598420    0.0195395930    0.0003653697    
0.0622825030    0.0199164290    0.0003745172    
0.0625051640    0.0198264690    0.0003684225    
0.0627278250    0.0200380740    0.0003696206    
0.0629504860    0.0201831240    0.0003679402    
0.0631731470    0.0195856970    0.0003669381    
0.0633958080    0.0199995440    0.0003729286    
0.0636184690    0.0190520660    0.0003690570    
0.0638411300    0.0194911240    0.0003718840    
0.0640637910    0.0191906180    0.0003716015    
0.0642864520    0.0196879760    0.0003755716    
0.0645091130    0.0194294230    0.0003763668    
0.0647317740    0.0197061020    0.0003794550    
0.0649544350    0.0195315360    0.0003773549    
0.0651770960    0.0198021850    0.0003778878    
0.0653997570    0.0190127470    0.0003694757    
0.0656224180    0.0203214440    0.0003828107    
0.0658450790    0.0197274570    0.0003717532    
0.0660677400    0.0204044290    0.0003796871    
0.0662904010    0.0197948050    0.0003784366    
0.0665130620    0.0199318540    0.0003780972    
0.0667357230    0.0192278650    0.0003779627    
0.0669583840    0.0193503350    0.0003778959    
0.0671810450    0.0195386790    0.0003776339    
0.0674037060    0.0190439020    0.0003791380    
0.0676263670    0.0195619320    0.0003814467    
0.0678490280    0.0195364670    0.0003788671    
0.0680716890    0.0191807110    0.0003762370    
0.0682943500    0.0199468110    0.0003794749    
0.0685170110    0.0193443230    0.0003698920    
0.0687396720    0.0192487060    0.0003679963    
0.0689623330    0.0194135260    0.0003683973    
0.0691849940    0.0197897910    0.0003745273    
0.0694076550    0.0205333630    0.0003812950    
0.0696303160    0.0194568870    0.0003682270    
0.0698529770    0.0193545980    0.0003664881    
0.0700756380    0.0196047670    0.0003641142    
0.0702982990    0.0187763480    0.0003602187    
0.0705209600    0.0194802190    0.0003642594    
0.0707436210    0.0189845120    0.0003579436    
0.0709662820    0.0195849730    0.0003678943    
0.0711889430    0.0194169600    0.0003618137    
0.0714116040    0.0195369360    0.0003636707    
0.0716342650    0.0193517480    0.0003604734    
0.0718569260    0.0193826810    0.0003593084    
0.0720795870    0.0190563500    0.0003577120    
0.0723022480    0.0201921040    0.0003687786    
0.0725249090    0.0198954600    0.0003616759    
0.0727475700    0.0187655010    0.0003542553    
0.0729702310    0.0192242240    0.0003556993    
0.0731928920    0.0201278490    0.0003654177    
0.0734155530    0.0192216490    0.0003563845    
0.0736382140    0.0198106860    0.0003594820    
0.0738608750    0.0193075990    0.0003571808    
0.0740835360    0.0198364670    0.0003611409    
0.0743061970    0.0192945420    0.0003511583    
0.0745288580    0.0187279480    0.0003495213    
0.0747515190    0.0192407750    0.0003549741    
0.0749741800    0.0196640360    0.0003555355    
0.0751968410    0.0196671470    0.0003583553    
0.0754195020    0.0193470250    0.0003533445    
0.0756421630    0.0190637540    0.0003478810    
0.0758648240    0.0194298090    0.0003520494    
0.0760874850    0.0191817370    0.0003496268    
0.0763101460    0.0191258650    0.0003487822    
0.0765328070    0.0197140110    0.0003577277    
0.0767554680    0.0194089530    0.0003525406    
0.0769781290    0.0196739450    0.0003528994    
0.0772007900    0.0195714170    0.0003491557    
0.0774234510    0.0197253920    0.0003525203    
0.0776461120    0.0193169930    0.0003485210    
0.0778687730    0.0199641540    0.0003531405    
0.0780914340    0.0192937100    0.0003496408    
0.0783140950    0.0197111750    0.0003477961    
0.0785367560    0.0199970830    0.0003559575    
0.0787594170    0.0192358480    0.0003459886    
0.0789820780    0.0192671300    0.0003444956    
0.0792047390    0.0198397150    0.0003507199    
0.0794274000    0.0194016950    0.0003482962    
0.0796500610    0.0195459600    0.0003461767    
0.0798727220    0.0206236930    0.0003552642    
0.0800953830    0.0191339510    0.0003414056    
0.0803180440    0.0200932680    0.0003522967    
0.0805407050    0.0196613310    0.0003481654    
0.0807633660    0.0199263890    0.0003501791    
0.0809860270    0.0194801760    0.0003449575    
0.0812086880    0.0197633000    0.0003444527    
0.0814313490    0.0191503420    0.0003406154    
0.0816540100    0.0194673050    0.0003426408    
0.0818766710    0.0195623640    0.0003442606    
0.0820993320    0.0195454530    0.0003434846    
0.0823219930    0.0192566380    0.0003423436    
0.0825446540    0.0200155000    0.0003464881    
0.0827673150    0.0194752480    0.0003394838    
0.0829899760    0.0187632320    0.0003326271    
0.0832126370    0.0200026230    0.0003449754    
0.0834352980    0.0197711220    0.0003422064    
0.0836579590    0.0195475770    0.0003395089    
0.0838806200    0.0193912250    0.0003392065    
0.0841032810    0.0199657920    0.0003420586    
0.0843259420    0.0198255370    0.0003398053    
0.0845486030    0.0201924910    0.0003429359    
0.0847712640    0.0195616460    0.0003354795    
0.0849939250    0.0197683990    0.0003378350    
0.0852165860    0.0196986630    0.0003376803    
0.0854392470    0.0194352480    0.0003322386    
0.0856619080    0.0190655460    0.0003314870    
0.0858845690    0.0198726690    0.0003353828    
0.0861072300    0.0192240880    0.0003321417    
0.0863298910    0.0198144640    0.0003389689    
0.0865525520    0.0199524690    0.0003372101    
0.0867752130    0.0192616810    0.0003286479    
0.0869978740    0.0197094230    0.0003332929    
0.0872205350    0.0191926960    0.0003284764    
0.0874431960    0.0197886330    0.0003335374    
0.0876658570    0.0194933470    0.0003323105    
0.0878885180    0.0195602500    0.0003334510    
0.0881111790    0.0189884530    0.0003281195    
0.0883338400    0.0195815480    0.0003283259    
0.0885565010    0.0195111030    0.0003321791    
0.0887791620    0.0191736430    0.0003250237    
0.0890018230    0.0196372710    0.0003321203    
0.0892244840    0.0195688270    0.0003321046    
0.0894471450    0.0196777040    0.0003316205    
0.0896698060    0.0194075090    0.0003280937    
0.0898924670    0.0202540240    0.0003367263    
0.0901151280    0.0186027630    0.0003192226    
0.0903377890    0.0191438120    0.0003265417    
0.0905604500    0.0192058170    0.0003255691    
0.0907831110    0.0196155930    0.0003282054    
0.0910057720    0.0193083390    0.0003271191    
0.0912284330    0.0202078060    0.0003298602    
0.0914510940    0.0195489550    0.0003280562    
0.0916737550    0.0198135910    0.0003294496    
0.0918964160    0.0194153330    0.0003274780    
0.0921190770    0.0199011410    0.0003285520    
0.0923417380    0.0200206160    0.0003296719    
0.0925643990    0.0193771420    0.0003235371    
0.0927870600    0.0193457690    0.0003246008    
0.0930097210    0.0188784360    0.0003179251    
0.0932323820    0.0197546390    0.0003276100    
