# Diamond Light Source Ltd.
# Data extracted from: /dls/b21/data/2018/cm19678-3/processed/b21-386631_00737.dat
q(1/A)          Column          Error           
0.0035000000    2.0725002000    0.0244348320    
0.0037226610    1.8850995000    0.0228132690    
0.0039453220    1.6354819000    0.0193308020    
0.0041679830    1.2791281000    0.0140394090    
0.0043906440    0.9666926000    0.0116740440    
0.0046133050    0.7770621700    0.0100477510    
0.0048359660    0.5837864800    0.0082378841    
0.0050586270    0.4692114900    0.0072591274    
0.0052812880    0.4222577000    0.0065109288    
0.0055039490    0.3805873000    0.0058774895    
0.0057266100    0.3196626900    0.0052110452    
0.0059492710    0.2654653300    0.0047487881    
0.0061719320    0.2185007400    0.0041515763    
0.0063945930    0.1986188700    0.0040061717    
0.0066172539    0.1832485500    0.0036133086    
0.0068399149    0.1610260300    0.0033337936    
0.0070625759    0.1440144800    0.0031204438    
0.0072852369    0.1306834700    0.0029280331    
0.0075078979    0.1121226500    0.0026988141    
0.0077305589    0.1090793100    0.0026112272    
0.0079532199    0.1016395300    0.0024856759    
0.0081758809    0.0915258100    0.0023807093    
0.0083985419    0.0850070370    0.0021399389    
0.0086212029    0.0741791560    0.0019990098    
0.0088438639    0.0703418900    0.0019309836    
0.0090665249    0.0644801420    0.0017856124    
0.0092891859    0.0609271350    0.0018116715    
0.0095118469    0.0588371450    0.0017120902    
0.0097345079    0.0558278290    0.0016197296    
0.0099571689    0.0535942270    0.0015542722    
0.0101798300    0.0507545080    0.0015125350    
0.0104024910    0.0513517620    0.0015162599    
0.0106251520    0.0465625450    0.0014487270    
0.0108478130    0.0454417840    0.0013937624    
0.0110704740    0.0434373570    0.0012973602    
0.0112931350    0.0417830220    0.0012761521    
0.0115157960    0.0402185230    0.0012447320    
0.0117384570    0.0393018930    0.0012198735    
0.0119611180    0.0376237380    0.0011969706    
0.0121837790    0.0353020920    0.0011399640    
0.0124064400    0.0363756390    0.0011089309    
0.0126291010    0.0341851300    0.0010615681    
0.0128517620    0.0338591090    0.0010591320    
0.0130744230    0.0331302520    0.0010399003    
0.0132970840    0.0330656150    0.0010338054    
0.0135197450    0.0323451900    0.0010078388    
0.0137424060    0.0305042810    0.0009651127    
0.0139650670    0.0314080920    0.0009574926    
0.0141877280    0.0298759000    0.0009359096    
0.0144103890    0.0297323210    0.0009175593    
0.0146330500    0.0287408920    0.0008964038    
0.0148557110    0.0273359770    0.0008705549    
0.0150783720    0.0289856270    0.0008890293    
0.0153010330    0.0268753280    0.0008439851    
0.0155236940    0.0278137750    0.0008534885    
0.0157463550    0.0257202820    0.0008065202    
0.0159690160    0.0251991550    0.0007952783    
0.0161916770    0.0260327790    0.0008037718    
0.0164143380    0.0264791110    0.0008167743    
0.0166369990    0.0252500910    0.0007730022    
0.0168596600    0.0249931100    0.0007622827    
0.0170823210    0.0246535960    0.0007505326    
0.0173049820    0.0256330880    0.0007666198    
0.0175276430    0.0250526940    0.0007658832    
0.0177503040    0.0233691910    0.0007208457    
0.0179729650    0.0246298760    0.0007326946    
0.0181956260    0.0241978190    0.0007123170    
0.0184182870    0.0230770890    0.0006923473    
0.0186409480    0.0246112170    0.0007195155    
0.0188636090    0.0225370460    0.0006841985    
0.0190862700    0.0237297260    0.0007009716    
0.0193089310    0.0230984730    0.0006905072    
0.0195315920    0.0239811100    0.0006796489    
0.0197542530    0.0223703600    0.0006573833    
0.0199769140    0.0218101430    0.0006490999    
0.0201995750    0.0220683250    0.0006427062    
0.0204222360    0.0230771610    0.0006628741    
0.0206448970    0.0213612520    0.0006332214    
0.0208675580    0.0227772880    0.0006404080    
0.0210902190    0.0218790530    0.0006337098    
0.0213128800    0.0227538640    0.0006374857    
0.0215355410    0.0207328050    0.0006012667    
0.0217582020    0.0217267320    0.0006155104    
0.0219808630    0.0211479720    0.0006064597    
0.0222035240    0.0208859890    0.0005972303    
0.0224261850    0.0225288690    0.0006147540    
0.0226488460    0.0217291150    0.0005992101    
0.0228715070    0.0226900200    0.0006107948    
0.0230941680    0.0222954200    0.0006054605    
0.0233168290    0.0217952380    0.0006001215    
0.0235394900    0.0226258830    0.0006047022    
0.0237621510    0.0206130020    0.0005616393    
0.0239848120    0.0208754630    0.0005658575    
0.0242074730    0.0214331370    0.0005687764    
0.0244301340    0.0200448990    0.0005506757    
0.0246527950    0.0202637390    0.0005588004    
0.0248754560    0.0208061690    0.0005535044    
0.0250981170    0.0213427800    0.0005618467    
0.0253207780    0.0223424580    0.0005576907    
0.0255434390    0.0206748120    0.0005421998    
0.0257661000    0.0212238140    0.0005511285    
0.0259887610    0.0220639310    0.0005559588    
0.0262114220    0.0212094610    0.0005479914    
0.0264340830    0.0200714310    0.0005258339    
0.0266567440    0.0204908550    0.0005280166    
0.0268794050    0.0217814270    0.0005421688    
0.0271020660    0.0207353180    0.0005268476    
0.0273247270    0.0203415160    0.0005186867    
0.0275473880    0.0201157380    0.0005147738    
0.0277700490    0.0203472780    0.0005146676    
0.0279927100    0.0215543780    0.0005250922    
0.0282153710    0.0208473920    0.0005189195    
0.0284380320    0.0210021770    0.0005178230    
0.0286606930    0.0199539650    0.0005004154    
0.0288833540    0.0205967280    0.0005093770    
0.0291060150    0.0198158200    0.0004991533    
0.0293286760    0.0204043950    0.0004994541    
0.0295513370    0.0213977190    0.0005058972    
0.0297739980    0.0209667910    0.0005062906    
0.0299966590    0.0207409670    0.0004949562    
0.0302193200    0.0206203930    0.0005007074    
0.0304419810    0.0196346890    0.0004894925    
0.0306646420    0.0205817200    0.0004870134    
0.0308873030    0.0204157270    0.0004829504    
0.0311099640    0.0203151740    0.0004830106    
0.0313326250    0.0200697200    0.0004747654    
0.0315552860    0.0195791820    0.0004750047    
0.0317779470    0.0201327850    0.0004820928    
0.0320006080    0.0204852250    0.0004752454    
0.0322232690    0.0199344280    0.0004707753    
0.0324459300    0.0207879100    0.0004771586    
0.0326685910    0.0202718540    0.0004704219    
0.0328912520    0.0201316170    0.0004703443    
0.0331139130    0.0204783560    0.0004682067    
0.0333365740    0.0196741810    0.0004604116    
0.0335592350    0.0196569750    0.0004557852    
0.0337818960    0.0212400560    0.0004734060    
0.0340045570    0.0201523990    0.0004603933    
0.0342272170    0.0193363170    0.0004491962    
0.0344498780    0.0199525820    0.0004581054    
0.0346725390    0.0208313750    0.0004594163    
0.0348952000    0.0203106960    0.0004515719    
0.0351178610    0.0202336130    0.0004527771    
0.0353405220    0.0198689660    0.0004466346    
0.0355631830    0.0199886270    0.0004462904    
0.0357858440    0.0198491380    0.0004447306    
0.0360085050    0.0203602300    0.0004517808    
0.0362311660    0.0202803560    0.0004455338    
0.0364538270    0.0203413730    0.0004426223    
0.0366764880    0.0198886990    0.0004373520    
0.0368991490    0.0206121840    0.0004429912    
0.0371218100    0.0205228120    0.0004407651    
0.0373444710    0.0194147910    0.0004333702    
0.0375671320    0.0199080700    0.0004382020    
0.0377897930    0.0197510130    0.0004251710    
0.0380124540    0.0198976960    0.0004294245    
0.0382351150    0.0190358160    0.0004200213    
0.0384577760    0.0194247030    0.0004201962    
0.0386804370    0.0201837580    0.0004315962    
0.0389030980    0.0203973290    0.0004305880    
0.0391257590    0.0198523290    0.0004219128    
0.0393484200    0.0196743940    0.0004186041    
0.0395710810    0.0198435350    0.0004209660    
0.0397937420    0.0200400200    0.0004230451    
0.0400164030    0.0190869950    0.0004145430    
0.0402390640    0.0193270960    0.0004115876    
0.0404617250    0.0195155090    0.0004111490    
0.0406843860    0.0202021540    0.0004142779    
0.0409070470    0.0192895540    0.0004090296    
0.0411297080    0.0199814330    0.0004122732    
0.0413523690    0.0196314140    0.0004096997    
0.0415750300    0.0198880820    0.0004158721    
0.0417976910    0.0198711480    0.0004049438    
0.0420203520    0.0192724740    0.0004002955    
0.0422430130    0.0199967130    0.0004092912    
0.0424656740    0.0189572870    0.0003933250    
0.0426883350    0.0197805570    0.0004037689    
0.0429109960    0.0199789970    0.0004070571    
0.0431336570    0.0199036750    0.0004005647    
0.0433563180    0.0200681310    0.0004056859    
0.0435789790    0.0195458120    0.0003940816    
0.0438016400    0.0196787330    0.0003975705    
0.0440243010    0.0195726230    0.0003924742    
0.0442469620    0.0197043470    0.0003961523    
0.0444696230    0.0192786090    0.0003904441    
0.0446922840    0.0196595000    0.0003931114    
0.0449149450    0.0201627350    0.0003927888    
0.0451376060    0.0196443690    0.0003924951    
0.0453602670    0.0199333960    0.0003912271    
0.0455829280    0.0188531210    0.0003800384    
0.0458055890    0.0198564280    0.0003922939    
0.0460282500    0.0200839380    0.0003897774    
0.0462509110    0.0197751210    0.0003843635    
0.0464735720    0.0198198940    0.0003850157    
0.0466962330    0.0194042610    0.0003826891    
0.0469188940    0.0195045290    0.0003825889    
0.0471415550    0.0191746590    0.0003812881    
0.0473642160    0.0194964980    0.0003790912    
0.0475868770    0.0193762470    0.0003760429    
0.0478095380    0.0189176670    0.0003699404    
0.0480321990    0.0196037360    0.0003774139    
0.0482548600    0.0196997910    0.0003766890    
0.0484775210    0.0197990660    0.0003813865    
0.0487001820    0.0191451880    0.0003695459    
0.0489228430    0.0201506790    0.0003789221    
0.0491455040    0.0199291210    0.0003742269    
0.0493681650    0.0192508810    0.0003709646    
0.0495908260    0.0197555860    0.0003694731    
0.0498134870    0.0195771700    0.0003713022    
0.0500361480    0.0194246790    0.0003688747    
0.0502588090    0.0193838670    0.0003629658    
0.0504814700    0.0195591650    0.0003693697    
0.0507041310    0.0197778950    0.0003670133    
0.0509267920    0.0195847890    0.0003667281    
0.0511494530    0.0196361620    0.0003647602    
0.0513721140    0.0199007940    0.0003704437    
0.0515947750    0.0197592740    0.0003642301    
0.0518174360    0.0194954100    0.0003596107    
0.0520400970    0.0197427870    0.0003593758    
0.0522627580    0.0194809810    0.0003600189    
0.0524854190    0.0196435300    0.0003644571    
0.0527080800    0.0199626230    0.0003702500    
0.0529307410    0.0196029670    0.0003686227    
0.0531534020    0.0201073400    0.0003719757    
0.0533760630    0.0203719140    0.0003755870    
0.0535987240    0.0198528530    0.0003690402    
0.0538213850    0.0188554090    0.0003638170    
0.0540440460    0.0194631150    0.0003678840    
0.0542667070    0.0198380520    0.0003739702    
0.0544893680    0.0196545360    0.0003724347    
0.0547120290    0.0201309820    0.0003743396    
0.0549346900    0.0192672020    0.0003664132    
0.0551573510    0.0190672340    0.0003687977    
0.0553800120    0.0204765100    0.0003789348    
0.0556026730    0.0197927910    0.0003802792    
0.0558253340    0.0188552600    0.0003742715    
0.0560479950    0.0191821620    0.0003775022    
0.0562706560    0.0198350850    0.0003875844    
0.0564933170    0.0200192470    0.0003927608    
0.0567159780    0.0203845370    0.0003915761    
0.0569386390    0.0195158760    0.0003891518    
0.0571613000    0.0198137430    0.0003836675    
0.0573839610    0.0197052740    0.0003794390    
0.0576066220    0.0186904530    0.0003705623    
0.0578292830    0.0200704240    0.0003827280    
0.0580519440    0.0189980820    0.0003738071    
0.0582746050    0.0198150950    0.0003800769    
0.0584972660    0.0192006740    0.0003727057    
0.0587199270    0.0194541230    0.0003719235    
0.0589425880    0.0196980550    0.0003720590    
0.0591652490    0.0198452390    0.0003756440    
0.0593879100    0.0200139110    0.0003744354    
0.0596105710    0.0194404350    0.0003686426    
0.0598332320    0.0198879640    0.0003760487    
0.0600558930    0.0194175490    0.0003692056    
0.0602785540    0.0190192510    0.0003650131    
0.0605012150    0.0195460810    0.0003692544    
0.0607238760    0.0193997270    0.0003651885    
0.0609465370    0.0190918670    0.0003651314    
0.0611691980    0.0190823800    0.0003656192    
0.0613918590    0.0193190450    0.0003638632    
0.0616145200    0.0194359800    0.0003676339    
0.0618371810    0.0195333330    0.0003649338    
0.0620598420    0.0199767170    0.0003694328    
0.0622825030    0.0193176880    0.0003688436    
0.0625051640    0.0197578830    0.0003677835    
0.0627278250    0.0199697680    0.0003689889    
0.0629504860    0.0193713840    0.0003604641    
0.0631731470    0.0191593530    0.0003629212    
0.0633958080    0.0194013830    0.0003673082    
0.0636184690    0.0194522870    0.0003729120    
0.0638411300    0.0197180530    0.0003740415    
0.0640637910    0.0194855150    0.0003744446    
0.0642864520    0.0199672650    0.0003782249    
0.0645091130    0.0205520450    0.0003870860    
0.0647317740    0.0195452330    0.0003779018    
0.0649544350    0.0196043190    0.0003780562    
0.0651770960    0.0197587930    0.0003774723    
0.0653997570    0.0196731870    0.0003758369    
0.0656224180    0.0202203580    0.0003818562    
0.0658450790    0.0194471150    0.0003691012    
0.0660677400    0.0191890860    0.0003682048    
0.0662904010    0.0205326400    0.0003854239    
0.0665130620    0.0197309050    0.0003761852    
0.0667357230    0.0192426030    0.0003781063    
0.0669583840    0.0194830530    0.0003791884    
0.0671810450    0.0197210230    0.0003793908    
0.0674037060    0.0193985410    0.0003826507    
0.0676263670    0.0189742110    0.0003756717    
0.0678490280    0.0200212630    0.0003835378    
0.0680716890    0.0194388900    0.0003787595    
0.0682943500    0.0198961520    0.0003789915    
0.0685170110    0.0198888100    0.0003750603    
0.0687396720    0.0195933140    0.0003712747    
0.0689623330    0.0192176620    0.0003665331    
0.0691849940    0.0197754910    0.0003743908    
0.0694076550    0.0198464330    0.0003748616    
0.0696303160    0.0196379530    0.0003699352    
0.0698529770    0.0195487840    0.0003683209    
0.0700756380    0.0197196070    0.0003651779    
0.0702982990    0.0193912780    0.0003660687    
0.0705209600    0.0189215760    0.0003589973    
0.0707436210    0.0190316340    0.0003583864    
0.0709662820    0.0197783480    0.0003697049    
0.0711889430    0.0192415480    0.0003601745    
0.0714116040    0.0196383560    0.0003646123    
0.0716342650    0.0195329220    0.0003621557    
0.0718569260    0.0195357540    0.0003607233    
0.0720795870    0.0200231430    0.0003666726    
0.0723022480    0.0197743980    0.0003649432    
0.0725249090    0.0193299030    0.0003564971    
0.0727475700    0.0195077070    0.0003611919    
0.0729702310    0.0196584720    0.0003596931    
0.0731928920    0.0199353360    0.0003636648    
0.0734155530    0.0192545660    0.0003566884    
0.0736382140    0.0196866230    0.0003583535    
0.0738608750    0.0196114280    0.0003599791    
0.0740835360    0.0191920070    0.0003552248    
0.0743061970    0.0198696110    0.0003563518    
0.0745288580    0.0193801410    0.0003555540    
0.0747515190    0.0198497010    0.0003605463    
0.0749741800    0.0198696160    0.0003573880    
0.0751968410    0.0198563800    0.0003600741    
0.0754195020    0.0200438570    0.0003596504    
0.0756421630    0.0194572230    0.0003514517    
0.0758648240    0.0195317470    0.0003529706    
0.0760874850    0.0188884760    0.0003469427    
0.0763101460    0.0193801610    0.0003510922    
0.0765328070    0.0195840630    0.0003565456    
0.0767554680    0.0197994420    0.0003560682    
0.0769781290    0.0194522690    0.0003509045    
0.0772007900    0.0192162450    0.0003459720    
0.0774234510    0.0187739700    0.0003439125    
0.0776461120    0.0191345190    0.0003468699    
0.0778687730    0.0187084690    0.0003418533    
0.0780914340    0.0195850510    0.0003522696    
0.0783140950    0.0194655830    0.0003456216    
0.0785367560    0.0197308380    0.0003535788    
0.0787594170    0.0191921650    0.0003455945    
0.0789820780    0.0194148370    0.0003458125    
0.0792047390    0.0197341930    0.0003497849    
0.0794274000    0.0196266640    0.0003503086    
0.0796500610    0.0202754340    0.0003525762    
0.0798727220    0.0195464880    0.0003458607    
0.0800953830    0.0198770100    0.0003479706    
0.0803180440    0.0196051740    0.0003479904    
0.0805407050    0.0198276710    0.0003496340    
0.0807633660    0.0190154900    0.0003420805    
0.0809860270    0.0195716810    0.0003457657    
0.0812086880    0.0197751830    0.0003445551    
0.0814313490    0.0195803590    0.0003444173    
0.0816540100    0.0192922910    0.0003410961    
0.0818766710    0.0191078690    0.0003402369    
0.0820993320    0.0193461350    0.0003417277    
0.0823219930    0.0199564220    0.0003485074    
0.0825446540    0.0196374990    0.0003431996    
0.0827673150    0.0198952820    0.0003431241    
0.0829899760    0.0196770940    0.0003406300    
0.0832126370    0.0195324800    0.0003408960    
0.0834352980    0.0193623110    0.0003386489    
0.0836579590    0.0203258150    0.0003462002    
0.0838806200    0.0198064570    0.0003428180    
0.0841032810    0.0193679270    0.0003368972    
0.0843259420    0.0192779420    0.0003350786    
0.0845486030    0.0198137930    0.0003397039    
0.0847712640    0.0193774150    0.0003338949    
0.0849939250    0.0192486650    0.0003333633    
0.0852165860    0.0196695960    0.0003374301    
0.0854392470    0.0193783310    0.0003317507    
0.0856619080    0.0195726090    0.0003358651    
0.0858845690    0.0197536820    0.0003343762    
0.0861072300    0.0195797540    0.0003351990    
0.0863298910    0.0189271300    0.0003312911    
0.0865525520    0.0190803900    0.0003297574    
0.0867752130    0.0193064190    0.0003290283    
0.0869978740    0.0198558360    0.0003345275    
0.0872205350    0.0192150620    0.0003286668    
0.0874431960    0.0198109960    0.0003337247    
0.0876658570    0.0190740160    0.0003287158    
0.0878885180    0.0197647670    0.0003351887    
0.0881111790    0.0199181900    0.0003360553    
0.0883338400    0.0190694560    0.0003240032    
0.0885565010    0.0192847660    0.0003302457    
0.0887791620    0.0200495540    0.0003323638    
0.0890018230    0.0194686360    0.0003306902    
0.0892244840    0.0191854460    0.0003288343    
0.0894471450    0.0193869710    0.0003291606    
0.0896698060    0.0191023270    0.0003255028    
0.0898924670    0.0193526040    0.0003291469    
0.0901151280    0.0195064850    0.0003268835    
0.0903377890    0.0201128520    0.0003347032    
0.0905604500    0.0194485270    0.0003276188    
0.0907831110    0.0193573710    0.0003260369    
0.0910057720    0.0193913470    0.0003278204    
0.0912284330    0.0192707920    0.0003221208    
0.0914510940    0.0193121100    0.0003260618    
0.0916737550    0.0192382900    0.0003246304    
0.0918964160    0.0195367290    0.0003284992    
0.0921190770    0.0195972670    0.0003260330    
0.0923417380    0.0196676350    0.0003267518    
0.0925643990    0.0197227490    0.0003264086    
0.0927870600    0.0194218970    0.0003252378    
0.0930097210    0.0193815960    0.0003221330    
0.0932323820    0.0192655420    0.0003235280    
