# Diamond Light Source Ltd.
# Data extracted from: /dls/b21/data/2018/cm19678-3/processed/b21-386631_00742.dat
q(1/A)          Column          Error           
0.0035000000    2.0831235000    0.0245039440    
0.0037226610    1.8745086000    0.0227551920    
0.0039453220    1.6050399000    0.0191551850    
0.0041679830    1.2832058000    0.0140655390    
0.0043906440    0.9728531500    0.0117143230    
0.0046133050    0.7623998500    0.0099551726    
0.0048359660    0.5878213800    0.0082685196    
0.0050586270    0.4577770800    0.0071720537    
0.0052812880    0.4295154900    0.0065684059    
0.0055039490    0.3801556700    0.0058757304    
0.0057266100    0.3080198800    0.0051166375    
0.0059492710    0.2693474300    0.0047846670    
0.0061719320    0.2223273100    0.0041888942    
0.0063945930    0.2012316700    0.0040335170    
0.0066172539    0.1735806700    0.0035176439    
0.0068399149    0.1655320900    0.0033810234    
0.0070625759    0.1462564600    0.0031454821    
0.0072852369    0.1241239700    0.0028543676    
0.0075078979    0.1121827800    0.0027002613    
0.0077305589    0.1030085700    0.0025382042    
0.0079532199    0.1010858100    0.0024795604    
0.0081758809    0.0894682950    0.0023544288    
0.0083985419    0.0824654680    0.0021082709    
0.0086212029    0.0762670950    0.0020274912    
0.0088438639    0.0739330640    0.0019801921    
0.0090665249    0.0653063100    0.0017974970    
0.0092891859    0.0612832000    0.0018174447    
0.0095118469    0.0584200770    0.0017064687    
0.0097345079    0.0547763440    0.0016048339    
0.0099571689    0.0542543540    0.0015642342    
0.0101798300    0.0519994030    0.0015313826    
0.0104024910    0.0489156000    0.0014802534    
0.0106251520    0.0467228110    0.0014516071    
0.0108478130    0.0441830050    0.0013746910    
0.0110704740    0.0431117240    0.0012928347    
0.0112931350    0.0452762130    0.0013287828    
0.0115157960    0.0394306630    0.0012328103    
0.0117384570    0.0401564020    0.0012333941    
0.0119611180    0.0363103740    0.0011762084    
0.0121837790    0.0363154610    0.0011565199    
0.0124064400    0.0354818840    0.0010955165    
0.0126291010    0.0339725790    0.0010585464    
0.0128517620    0.0334794900    0.0010534602    
0.0130744230    0.0330173850    0.0010384058    
0.0132970840    0.0317574250    0.0010134201    
0.0135197450    0.0310114770    0.0009871062    
0.0137424060    0.0324148120    0.0009951437    
0.0139650670    0.0315125500    0.0009593406    
0.0141877280    0.0303612740    0.0009437345    
0.0144103890    0.0278500420    0.0008882784    
0.0146330500    0.0284486010    0.0008920731    
0.0148557110    0.0285711510    0.0008902441    
0.0150783720    0.0265184730    0.0008505804    
0.0153010330    0.0274201090    0.0008527248    
0.0155236940    0.0253131020    0.0008144357    
0.0157463550    0.0267462300    0.0008226689    
0.0159690160    0.0263929420    0.0008141163    
0.0161916770    0.0267171510    0.0008144867    
0.0164143380    0.0258883250    0.0008078277    
0.0166369990    0.0256661440    0.0007795536    
0.0168596600    0.0256578440    0.0007725603    
0.0170823210    0.0255812480    0.0007647275    
0.0173049820    0.0240639780    0.0007429844    
0.0175276430    0.0244336180    0.0007565639    
0.0177503040    0.0244273370    0.0007371824    
0.0179729650    0.0234654490    0.0007153568    
0.0181956260    0.0236443380    0.0007043122    
0.0184182870    0.0238584200    0.0007041590    
0.0186409480    0.0246244150    0.0007199014    
0.0188636090    0.0223620880    0.0006817203    
0.0190862700    0.0241982390    0.0007080474    
0.0193089310    0.0238956790    0.0007025103    
0.0195315920    0.0232038070    0.0006687226    
0.0197542530    0.0243538580    0.0006860922    
0.0199769140    0.0242572250    0.0006847298    
0.0201995750    0.0237094840    0.0006663544    
0.0204222360    0.0223465550    0.0006524716    
0.0206448970    0.0220112590    0.0006429557    
0.0208675580    0.0221049160    0.0006310541    
0.0210902190    0.0222213510    0.0006388189    
0.0213128800    0.0226231070    0.0006358218    
0.0215355410    0.0210230670    0.0006056233    
0.0217582020    0.0220349740    0.0006200274    
0.0219808630    0.0210027060    0.0006045352    
0.0222035240    0.0217515300    0.0006096430    
0.0224261850    0.0213996360    0.0005993097    
0.0226488460    0.0220052930    0.0006031678    
0.0228715070    0.0215999790    0.0005961025    
0.0230941680    0.0212380690    0.0005910877    
0.0233168290    0.0215919970    0.0005974770    
0.0235394900    0.0204712350    0.0005753435    
0.0237621510    0.0209455890    0.0005663039    
0.0239848120    0.0210401220    0.0005682370    
0.0242074730    0.0218674820    0.0005746647    
0.0244301340    0.0211757370    0.0005661476    
0.0246527950    0.0213538620    0.0005737881    
0.0248754560    0.0213477040    0.0005608116    
0.0250981170    0.0204959120    0.0005507346    
0.0253207780    0.0213098390    0.0005447967    
0.0255434390    0.0207854860    0.0005437948    
0.0257661000    0.0209917710    0.0005482543    
0.0259887610    0.0198191290    0.0005270598    
0.0262114220    0.0208383490    0.0005433216    
0.0264340830    0.0214880860    0.0005442202    
0.0266567440    0.0208421790    0.0005326667    
0.0268794050    0.0214015330    0.0005375641    
0.0271020660    0.0208267980    0.0005281500    
0.0273247270    0.0207097160    0.0005235003    
0.0275473880    0.0199551790    0.0005128527    
0.0277700490    0.0201237380    0.0005119699    
0.0279927100    0.0212843630    0.0005219327    
0.0282153710    0.0215435180    0.0005276535    
0.0284380320    0.0201575730    0.0005074400    
0.0286606930    0.0197386500    0.0004978416    
0.0288833540    0.0212883960    0.0005179980    
0.0291060150    0.0200654700    0.0005024224    
0.0293286760    0.0201462300    0.0004964174    
0.0295513370    0.0208826390    0.0004999052    
0.0297739980    0.0204153580    0.0004997224    
0.0299966590    0.0204566440    0.0004916837    
0.0302193200    0.0205462970    0.0004999410    
0.0304419810    0.0210981580    0.0005075428    
0.0306646420    0.0212730320    0.0004952577    
0.0308873030    0.0196608170    0.0004740644    
0.0311099640    0.0202111660    0.0004819017    
0.0313326250    0.0200355340    0.0004744880    
0.0315552860    0.0209732960    0.0004917568    
0.0317779470    0.0210906980    0.0004935607    
0.0320006080    0.0208602440    0.0004797043    
0.0322232690    0.0202454620    0.0004745610    
0.0324459300    0.0199333430    0.0004673732    
0.0326685910    0.0200096670    0.0004674952    
0.0328912520    0.0200434600    0.0004694392    
0.0331139130    0.0193218840    0.0004549160    
0.0333365740    0.0206441740    0.0004717513    
0.0335592350    0.0210104050    0.0004713413    
0.0337818960    0.0201640650    0.0004613828    
0.0340045570    0.0210050930    0.0004701586    
0.0342272170    0.0191900740    0.0004476143    
0.0344498780    0.0198580450    0.0004571414    
0.0346725390    0.0195550930    0.0004452396    
0.0348952000    0.0200503650    0.0004487888    
0.0351178610    0.0207209230    0.0004583198    
0.0353405220    0.0210348280    0.0004596747    
0.0355631830    0.0198298590    0.0004446336    
0.0357858440    0.0197202050    0.0004434026    
0.0360085050    0.0201605160    0.0004496800    
0.0362311660    0.0206437820    0.0004496286    
0.0364538270    0.0198030000    0.0004368427    
0.0366764880    0.0200052120    0.0004387488    
0.0368991490    0.0201564760    0.0004381843    
0.0371218100    0.0198992390    0.0004341337    
0.0373444710    0.0203930750    0.0004442735    
0.0375671320    0.0193204110    0.0004318017    
0.0377897930    0.0192671060    0.0004200429    
0.0380124540    0.0201123640    0.0004318504    
0.0382351150    0.0201865590    0.0004326464    
0.0384577760    0.0204809960    0.0004315855    
0.0386804370    0.0194651010    0.0004239566    
0.0389030980    0.0200899560    0.0004274459    
0.0391257590    0.0205089250    0.0004289481    
0.0393484200    0.0202730870    0.0004250394    
0.0395710810    0.0186657850    0.0004083918    
0.0397937420    0.0192912670    0.0004151781    
0.0400164030    0.0201151480    0.0004256757    
0.0402390640    0.0207055520    0.0004261268    
0.0404617250    0.0195259740    0.0004113695    
0.0406843860    0.0196604880    0.0004087959    
0.0409070470    0.0206797010    0.0004236256    
0.0411297080    0.0200176800    0.0004127576    
0.0413523690    0.0197617080    0.0004111672    
0.0415750300    0.0200814630    0.0004180011    
0.0417976910    0.0198570340    0.0004049084    
0.0420203520    0.0205389360    0.0004133495    
0.0422430130    0.0192530710    0.0004017163    
0.0424656740    0.0207800980    0.0004119113    
0.0426883350    0.0201622490    0.0004077552    
0.0429109960    0.0200312000    0.0004076978    
0.0431336570    0.0188577340    0.0003900024    
0.0433563180    0.0198491380    0.0004035745    
0.0435789790    0.0202717670    0.0004014408    
0.0438016400    0.0191749530    0.0003925537    
0.0440243010    0.0199374570    0.0003962214    
0.0442469620    0.0197946020    0.0003971650    
0.0444696230    0.0188458870    0.0003861408    
0.0446922840    0.0199217180    0.0003958305    
0.0449149450    0.0203496350    0.0003947109    
0.0451376060    0.0205023000    0.0004010817    
0.0453602670    0.0199824980    0.0003918137    
0.0455829280    0.0195990580    0.0003875876    
0.0458055890    0.0193940500    0.0003878034    
0.0460282500    0.0197011390    0.0003861484    
0.0462509110    0.0202043120    0.0003886163    
0.0464735720    0.0195536430    0.0003825234    
0.0466962330    0.0198601990    0.0003872627    
0.0469188940    0.0197627740    0.0003852166    
0.0471415550    0.0200497430    0.0003899961    
0.0473642160    0.0198019530    0.0003821518    
0.0475868770    0.0198612630    0.0003808223    
0.0478095380    0.0192969580    0.0003737307    
0.0480321990    0.0198614250    0.0003799882    
0.0482548600    0.0196959410    0.0003767532    
0.0484775210    0.0207873040    0.0003908935    
0.0487001820    0.0198548710    0.0003764337    
0.0489228430    0.0195341110    0.0003731800    
0.0491455040    0.0196866930    0.0003720435    
0.0493681650    0.0199835880    0.0003780596    
0.0495908260    0.0199390210    0.0003712840    
0.0498134870    0.0191860510    0.0003676730    
0.0500361480    0.0194000520    0.0003687397    
0.0502588090    0.0193602600    0.0003628419    
0.0504814700    0.0200930930    0.0003744777    
0.0507041310    0.0196794730    0.0003661971    
0.0509267920    0.0204472600    0.0003748165    
0.0511494530    0.0192534870    0.0003612852    
0.0513721140    0.0193526200    0.0003654040    
0.0515947750    0.0192391800    0.0003595010    
0.0518174360    0.0197447930    0.0003620004    
0.0520400970    0.0200413620    0.0003621801    
0.0522627580    0.0197111050    0.0003622361    
0.0524854190    0.0198299690    0.0003662808    
0.0527080800    0.0196710140    0.0003676343    
0.0529307410    0.0193638020    0.0003664654    
0.0531534020    0.0194296170    0.0003657512    
0.0533760630    0.0188309160    0.0003611991    
0.0535987240    0.0192320400    0.0003633217    
0.0538213850    0.0192728910    0.0003679212    
0.0540440460    0.0204823640    0.0003774950    
0.0542667070    0.0196088690    0.0003719034    
0.0544893680    0.0194461820    0.0003705547    
0.0547120290    0.0201557060    0.0003746699    
0.0549346900    0.0194936650    0.0003686591    
0.0551573510    0.0194842730    0.0003729090    
0.0553800120    0.0196385220    0.0003711995    
0.0556026730    0.0194086520    0.0003766718    
0.0558253340    0.0197499170    0.0003831506    
0.0560479950    0.0192444810    0.0003782162    
0.0562706560    0.0188909440    0.0003783489    
0.0564933170    0.0195596860    0.0003883306    
0.0567159780    0.0200266940    0.0003882280    
0.0569386390    0.0196195080    0.0003902883    
0.0571613000    0.0192371440    0.0003781451    
0.0573839610    0.0197816320    0.0003802754    
0.0576066220    0.0194723110    0.0003783350    
0.0578292830    0.0183870640    0.0003664245    
0.0580519440    0.0196264240    0.0003800403    
0.0582746050    0.0195631280    0.0003777539    
0.0584972660    0.0196959490    0.0003775832    
0.0587199270    0.0205743770    0.0003825846    
0.0589425880    0.0198140860    0.0003732532    
0.0591652490    0.0198487660    0.0003757781    
0.0593879100    0.0194989700    0.0003696861    
0.0596105710    0.0190312080    0.0003648397    
0.0598332320    0.0200622570    0.0003777942    
0.0600558930    0.0193577230    0.0003687353    
0.0602785540    0.0192607460    0.0003674217    
0.0605012150    0.0203452460    0.0003768284    
0.0607238760    0.0195064240    0.0003662896    
0.0609465370    0.0187178270    0.0003616338    
0.0611691980    0.0195131550    0.0003698221    
0.0613918590    0.0195488230    0.0003661188    
0.0616145200    0.0198708130    0.0003718232    
0.0618371810    0.0200213180    0.0003695631    
0.0620598420    0.0198165380    0.0003680473    
0.0622825030    0.0196803620    0.0003723897    
0.0625051640    0.0198506750    0.0003687450    
0.0627278250    0.0196189320    0.0003658313    
0.0629504860    0.0195965280    0.0003626500    
0.0631731470    0.0193897300    0.0003651945    
0.0633958080    0.0195231080    0.0003685574    
0.0636184690    0.0196844550    0.0003752314    
0.0638411300    0.0188341300    0.0003656596    
0.0640637910    0.0201007130    0.0003804116    
0.0642864520    0.0201786840    0.0003803239    
0.0645091130    0.0196001980    0.0003781174    
0.0647317740    0.0191317020    0.0003739829    
0.0649544350    0.0190458630    0.0003727325    
0.0651770960    0.0196250860    0.0003762938    
0.0653997570    0.0199926420    0.0003789776    
0.0656224180    0.0198993060    0.0003789141    
0.0658450790    0.0192122210    0.0003669637    
0.0660677400    0.0197083430    0.0003732534    
0.0662904010    0.0185529870    0.0003664709    
0.0665130620    0.0195764350    0.0003748102    
0.0667357230    0.0191934530    0.0003777244    
0.0669583840    0.0193384380    0.0003778798    
0.0671810450    0.0190962730    0.0003734331    
0.0674037060    0.0194693600    0.0003834513    
0.0676263670    0.0195425310    0.0003813585    
0.0678490280    0.0191939630    0.0003756308    
0.0680716890    0.0201803250    0.0003860187    
0.0682943500    0.0192278500    0.0003726719    
0.0685170110    0.0190219730    0.0003668943    
0.0687396720    0.0194630390    0.0003701375    
0.0689623330    0.0199763820    0.0003737987    
0.0691849940    0.0194669650    0.0003715584    
0.0694076550    0.0198712430    0.0003751964    
0.0696303160    0.0197042630    0.0003706586    
0.0698529770    0.0194690040    0.0003676671    
0.0700756380    0.0192362510    0.0003607713    
0.0702982990    0.0200861970    0.0003726702    
0.0705209600    0.0194496530    0.0003640700    
0.0707436210    0.0202505240    0.0003697839    
0.0709662820    0.0196091800    0.0003682191    
0.0711889430    0.0192383740    0.0003602414    
0.0714116040    0.0198249890    0.0003664389    
0.0716342650    0.0203764600    0.0003699922    
0.0718569260    0.0196661870    0.0003620225    
0.0720795870    0.0200809080    0.0003672995    
0.0723022480    0.0195626220    0.0003630810    
0.0725249090    0.0199849440    0.0003625843    
0.0727475700    0.0194579470    0.0003608276    
0.0729702310    0.0189578470    0.0003533200    
0.0731928920    0.0190034850    0.0003551588    
0.0734155530    0.0198466720    0.0003622283    
0.0736382140    0.0191881070    0.0003538820    
0.0738608750    0.0198401130    0.0003621689    
0.0740835360    0.0198469800    0.0003613323    
0.0743061970    0.0199122380    0.0003568295    
0.0745288580    0.0195080120    0.0003568207    
0.0747515190    0.0189561130    0.0003524318    
0.0749741800    0.0199574510    0.0003582731    
0.0751968410    0.0197755660    0.0003594369    
0.0754195020    0.0194089320    0.0003540032    
0.0756421630    0.0195565790    0.0003524423    
0.0758648240    0.0190316470    0.0003485159    
0.0760874850    0.0194852000    0.0003524749    
0.0763101460    0.0192569130    0.0003500678    
0.0765328070    0.0197049740    0.0003577405    
0.0767554680    0.0195153420    0.0003535992    
0.0769781290    0.0191460270    0.0003482247    
0.0772007900    0.0198871700    0.0003520543    
0.0774234510    0.0193450370    0.0003491975    
0.0776461120    0.0200570350    0.0003552283    
0.0778687730    0.0189497470    0.0003441429    
0.0780914340    0.0198110980    0.0003543917    
0.0783140950    0.0195435610    0.0003464060    
0.0785367560    0.0198365120    0.0003546194    
0.0787594170    0.0196445360    0.0003497374    
0.0789820780    0.0192773400    0.0003446781    
0.0792047390    0.0195896950    0.0003485954    
0.0794274000    0.0193556740    0.0003479751    
0.0796500610    0.0196912730    0.0003475532    
0.0798727220    0.0201998870    0.0003516882    
0.0800953830    0.0197962460    0.0003473560    
0.0803180440    0.0192572410    0.0003449811    
0.0805407050    0.0200603740    0.0003517740    
0.0807633660    0.0199800490    0.0003507432    
0.0809860270    0.0194599400    0.0003448696    
0.0812086880    0.0194614300    0.0003419025    
0.0814313490    0.0195059980    0.0003438548    
0.0816540100    0.0196526060    0.0003443589    
0.0818766710    0.0188998990    0.0003384710    
0.0820993320    0.0191994830    0.0003405213    
0.0823219930    0.0202594150    0.0003512372    
0.0825446540    0.0194739940    0.0003418595    
0.0827673150    0.0190770290    0.0003360841    
0.0829899760    0.0191625630    0.0003362371    
0.0832126370    0.0199894120    0.0003449528    
0.0834352980    0.0197282640    0.0003419259    
0.0836579590    0.0195756360    0.0003398425    
0.0838806200    0.0185644100    0.0003319840    
0.0841032810    0.0192082760    0.0003355957    
0.0843259420    0.0198069060    0.0003397356    
0.0845486030    0.0193990270    0.0003362196    
0.0847712640    0.0188754800    0.0003296304    
0.0849939250    0.0194034000    0.0003347903    
0.0852165860    0.0201898110    0.0003419547    
0.0854392470    0.0195591980    0.0003333846    
0.0856619080    0.0189545530    0.0003306083    
0.0858845690    0.0197359590    0.0003343158    
0.0861072300    0.0189184890    0.0003295784    
0.0863298910    0.0191925620    0.0003336954    
0.0865525520    0.0195695980    0.0003340475    
0.0867752130    0.0198890380    0.0003340455    
0.0869978740    0.0186484420    0.0003242840    
0.0872205350    0.0194222320    0.0003305224    
0.0874431960    0.0192197710    0.0003287954    
0.0876658570    0.0196397110    0.0003336441    
0.0878885180    0.0193658670    0.0003318779    
0.0881111790    0.0197757030    0.0003349409    
0.0883338400    0.0191512860    0.0003247847    
0.0885565010    0.0189612620    0.0003275518    
0.0887791620    0.0194153330    0.0003271524    
0.0890018230    0.0199848800    0.0003351357    
0.0892244840    0.0194382180    0.0003310822    
0.0894471450    0.0189332620    0.0003253733    
0.0896698060    0.0194455420    0.0003285020    
0.0898924670    0.0193293750    0.0003290375    
0.0901151280    0.0193634840    0.0003257705    
0.0903377890    0.0199620240    0.0003335353    
0.0905604500    0.0190724270    0.0003245225    
0.0907831110    0.0199281790    0.0003308978    
0.0910057720    0.0191355880    0.0003257387    
0.0912284330    0.0189201770    0.0003192625    
0.0914510940    0.0196749850    0.0003291991    
0.0916737550    0.0193582230    0.0003257280    
0.0918964160    0.0198622150    0.0003313131    
0.0921190770    0.0192550200    0.0003232602    
0.0923417380    0.0192545270    0.0003233886    
0.0925643990    0.0196144170    0.0003255981    
0.0927870600    0.0192470350    0.0003238571    
0.0930097210    0.0192955650    0.0003215034    
0.0932323820    0.0190149470    0.0003215031    
