# Diamond Light Source Ltd.
# Data extracted from: /dls/b21/data/2018/cm19678-3/processed/b21-386631_00751.dat
q(1/A)          Column          Error           
0.0035000000    2.0518527000    0.0243304590    
0.0037226610    1.8903256000    0.0228614530    
0.0039453220    1.6454080000    0.0194034500    
0.0041679830    1.2789796000    0.0140487850    
0.0043906440    0.9733203400    0.0117224980    
0.0046133050    0.7720755200    0.0100227300    
0.0048359660    0.5834701700    0.0082416303    
0.0050586270    0.4677560300    0.0072531212    
0.0052812880    0.4197542200    0.0064963113    
0.0055039490    0.3779585600    0.0058614079    
0.0057266100    0.3252312800    0.0052600535    
0.0059492710    0.2736775200    0.0048251808    
0.0061719320    0.2223728800    0.0041912409    
0.0063945930    0.1968033400    0.0039907147    
0.0066172539    0.1795190300    0.0035789462    
0.0068399149    0.1690705900    0.0034185335    
0.0070625759    0.1506561400    0.0031939039    
0.0072852369    0.1265371000    0.0028832994    
0.0075078979    0.1105290000    0.0026815107    
0.0077305589    0.0987834550    0.0024867419    
0.0079532199    0.0983171240    0.0024464869    
0.0081758809    0.0888060270    0.0023467722    
0.0083985419    0.0862634090    0.0021572595    
0.0086212029    0.0793580330    0.0020691147    
0.0088438639    0.0708687300    0.0019396082    
0.0090665249    0.0643757090    0.0017854609    
0.0092891859    0.0663025620    0.0018912736    
0.0095118469    0.0613673090    0.0017497843    
0.0097345079    0.0566618900    0.0016329685    
0.0099571689    0.0544394510    0.0015676174    
0.0101798300    0.0501962520    0.0015052856    
0.0104024910    0.0482430190    0.0014707144    
0.0106251520    0.0436960340    0.0014044437    
0.0108478130    0.0465780470    0.0014121045    
0.0110704740    0.0439661020    0.0013061799    
0.0112931350    0.0416485370    0.0012750216    
0.0115157960    0.0419358490    0.0012719518    
0.0117384570    0.0414065480    0.0012530191    
0.0119611180    0.0363817550    0.0011779028    
0.0121837790    0.0370491430    0.0011686787    
0.0124064400    0.0353450930    0.0010939032    
0.0126291010    0.0348290160    0.0010722967    
0.0128517620    0.0338751050    0.0010601511    
0.0130744230    0.0342243850    0.0010576995    
0.0132970840    0.0316570250    0.0010122800    
0.0135197450    0.0320462290    0.0010038986    
0.0137424060    0.0301204740    0.0009597181    
0.0139650670    0.0290859090    0.0009220853    
0.0141877280    0.0294788680    0.0009303448    
0.0144103890    0.0298322170    0.0009197666    
0.0146330500    0.0276346880    0.0008796218    
0.0148557110    0.0284584890    0.0008888938    
0.0150783720    0.0294373340    0.0008965801    
0.0153010330    0.0272063300    0.0008497830    
0.0155236940    0.0278803980    0.0008551304    
0.0157463550    0.0268973540    0.0008253674    
0.0159690160    0.0247833180    0.0007892616    
0.0161916770    0.0260457340    0.0008045554    
0.0164143380    0.0244738730    0.0007858087    
0.0166369990    0.0253104610    0.0007744875    
0.0168596600    0.0247267260    0.0007587599    
0.0170823210    0.0254902620    0.0007637157    
0.0173049820    0.0242926590    0.0007468480    
0.0175276430    0.0250890780    0.0007669955    
0.0177503040    0.0246946450    0.0007415441    
0.0179729650    0.0235305900    0.0007166769    
0.0181956260    0.0234349960    0.0007015083    
0.0184182870    0.0247123290    0.0007169774    
0.0186409480    0.0228353040    0.0006935730    
0.0188636090    0.0234850490    0.0006989474    
0.0190862700    0.0245107080    0.0007129304    
0.0193089310    0.0228426110    0.0006871707    
0.0195315920    0.0225113250    0.0006589700    
0.0197542530    0.0235055790    0.0006743461    
0.0199769140    0.0228284720    0.0006645625    
0.0201995750    0.0232438220    0.0006600802    
0.0204222360    0.0236445860    0.0006714611    
0.0206448970    0.0220878060    0.0006443675    
0.0208675580    0.0231349420    0.0006458848    
0.0210902190    0.0219659730    0.0006354282    
0.0213128800    0.0213560210    0.0006180423    
0.0215355410    0.0232076660    0.0006366034    
0.0217582020    0.0228409620    0.0006315540    
0.0219808630    0.0217882700    0.0006160190    
0.0222035240    0.0217372400    0.0006097217    
0.0224261850    0.0215368250    0.0006015028    
0.0226488460    0.0211152990    0.0005911149    
0.0228715070    0.0219655400    0.0006014008    
0.0230941680    0.0213398440    0.0005927734    
0.0233168290    0.0216945070    0.0005991677    
0.0235394900    0.0208136740    0.0005804011    
0.0237621510    0.0219149240    0.0005795247    
0.0239848120    0.0209825840    0.0005677192    
0.0242074730    0.0219933140    0.0005765795    
0.0244301340    0.0212102750    0.0005668685    
0.0246527950    0.0220832890    0.0005837729    
0.0248754560    0.0202907770    0.0005470027    
0.0250981170    0.0214034010    0.0005630525    
0.0253207780    0.0209947720    0.0005410018    
0.0255434390    0.0212459550    0.0005500369    
0.0257661000    0.0210396550    0.0005491305    
0.0259887610    0.0202862090    0.0005334783    
0.0262114220    0.0213536960    0.0005502507    
0.0264340830    0.0213973930    0.0005433191    
0.0266567440    0.0208067580    0.0005324575    
0.0268794050    0.0204615690    0.0005258671    
0.0271020660    0.0209128950    0.0005294828    
0.0273247270    0.0199472130    0.0005140078    
0.0275473880    0.0209496950    0.0005257175    
0.0277700490    0.0201812740    0.0005129359    
0.0279927100    0.0210220200    0.0005189436    
0.0282153710    0.0209552810    0.0005206381    
0.0284380320    0.0212116810    0.0005207771    
0.0286606930    0.0209758070    0.0005134410    
0.0288833540    0.0201724760    0.0005044696    
0.0291060150    0.0208267550    0.0005120989    
0.0293286760    0.0202258930    0.0004976255    
0.0295513370    0.0213090140    0.0005052140    
0.0297739980    0.0197729120    0.0004920218    
0.0299966590    0.0195882260    0.0004813544    
0.0302193200    0.0215513570    0.0005122571    
0.0304419810    0.0210074890    0.0005066828    
0.0306646420    0.0203577160    0.0004847075    
0.0308873030    0.0205140240    0.0004844631    
0.0311099640    0.0204941870    0.0004854861    
0.0313326250    0.0204137910    0.0004791653    
0.0315552860    0.0204616280    0.0004859435    
0.0317779470    0.0202198280    0.0004834845    
0.0320006080    0.0202058160    0.0004723358    
0.0322232690    0.0200969880    0.0004730340    
0.0324459300    0.0207632590    0.0004772217    
0.0326685910    0.0204980770    0.0004733828    
0.0328912520    0.0199627680    0.0004687077    
0.0331139130    0.0204116130    0.0004677824    
0.0333365740    0.0203609520    0.0004687185    
0.0335592350    0.0199712800    0.0004597481    
0.0337818960    0.0201930930    0.0004619261    
0.0340045570    0.0199394020    0.0004582863    
0.0342272170    0.0201586220    0.0004589810    
0.0344498780    0.0199604930    0.0004585288    
0.0346725390    0.0200397460    0.0004509295    
0.0348952000    0.0199480690    0.0004478474    
0.0351178610    0.0198672770    0.0004489852    
0.0353405220    0.0193247160    0.0004407948    
0.0355631830    0.0200376150    0.0004471612    
0.0357858440    0.0200476060    0.0004472729    
0.0360085050    0.0211527860    0.0004608242    
0.0362311660    0.0200941650    0.0004438059    
0.0364538270    0.0205541760    0.0004452545    
0.0366764880    0.0207458780    0.0004470015    
0.0368991490    0.0201272580    0.0004380670    
0.0371218100    0.0200406990    0.0004358734    
0.0373444710    0.0196948650    0.0004368017    
0.0375671320    0.0194250350    0.0004331674    
0.0377897930    0.0200638360    0.0004288358    
0.0380124540    0.0194811000    0.0004252137    
0.0382351150    0.0195553620    0.0004260235    
0.0384577760    0.0202994840    0.0004298655    
0.0386804370    0.0198433760    0.0004282521    
0.0389030980    0.0196167930    0.0004225755    
0.0391257590    0.0201415730    0.0004252837    
0.0393484200    0.0198902750    0.0004212000    
0.0395710810    0.0198008060    0.0004208178    
0.0397937420    0.0206862230    0.0004301237    
0.0400164030    0.0189253710    0.0004130838    
0.0402390640    0.0198906140    0.0004178479    
0.0404617250    0.0195351770    0.0004116548    
0.0406843860    0.0197975980    0.0004104066    
0.0409070470    0.0201427340    0.0004182809    
0.0411297080    0.0196441480    0.0004090756    
0.0413523690    0.0198911170    0.0004127001    
0.0415750300    0.0198037510    0.0004152907    
0.0417976910    0.0196851400    0.0004033366    
0.0420203520    0.0192671580    0.0004005309    
0.0422430130    0.0199334700    0.0004089401    
0.0424656740    0.0203741510    0.0004080547    
0.0426883350    0.0190664370    0.0003967012    
0.0429109960    0.0189864330    0.0003971049    
0.0431336570    0.0202393600    0.0004042217    
0.0433563180    0.0195962820    0.0004011793    
0.0435789790    0.0195503280    0.0003944132    
0.0438016400    0.0195303490    0.0003963562    
0.0440243010    0.0198532540    0.0003955648    
0.0442469620    0.0195893940    0.0003952818    
0.0444696230    0.0195125030    0.0003930906    
0.0446922840    0.0193259370    0.0003900451    
0.0449149450    0.0199851160    0.0003913388    
0.0451376060    0.0202854680    0.0003991378    
0.0453602670    0.0203160700    0.0003952513    
0.0455829280    0.0200082690    0.0003917921    
0.0458055890    0.0205605260    0.0003994783    
0.0460282500    0.0190298020    0.0003796859    
0.0462509110    0.0195943550    0.0003828805    
0.0464735720    0.0200509110    0.0003875341    
0.0466962330    0.0197801250    0.0003866582    
0.0469188940    0.0201791910    0.0003894320    
0.0471415550    0.0199542060    0.0003892439    
0.0473642160    0.0192443050    0.0003769048    
0.0475868770    0.0199379170    0.0003817312    
0.0478095380    0.0194957460    0.0003758227    
0.0480321990    0.0201124610    0.0003825570    
0.0482548600    0.0194831480    0.0003748840    
0.0484775210    0.0200779670    0.0003843421    
0.0487001820    0.0206659720    0.0003842215    
0.0489228430    0.0195377250    0.0003733854    
0.0491455040    0.0193528480    0.0003690443    
0.0493681650    0.0196940530    0.0003754826    
0.0495908260    0.0203863170    0.0003755973    
0.0498134870    0.0193305600    0.0003692240    
0.0500361480    0.0196002080    0.0003708066    
0.0502588090    0.0195277290    0.0003645746    
0.0504814700    0.0204118700    0.0003776093    
0.0507041310    0.0194246730    0.0003639852    
0.0509267920    0.0198057890    0.0003690591    
0.0511494530    0.0189454060    0.0003585471    
0.0513721140    0.0200401870    0.0003720087    
0.0515947750    0.0198955500    0.0003657493    
0.0518174360    0.0192115030    0.0003572417    
0.0520400970    0.0199679960    0.0003616821    
0.0522627580    0.0202088890    0.0003669494    
0.0524854190    0.0193470130    0.0003619585    
0.0527080800    0.0204867630    0.0003753514    
0.0529307410    0.0199160510    0.0003718245    
0.0531534020    0.0197713010    0.0003691220    
0.0533760630    0.0191810170    0.0003647082    
0.0535987240    0.0193320880    0.0003644322    
0.0538213850    0.0193538080    0.0003688615    
0.0540440460    0.0195122730    0.0003686157    
0.0542667070    0.0193091220    0.0003692189    
0.0544893680    0.0194922570    0.0003711633    
0.0547120290    0.0200556530    0.0003739098    
0.0549346900    0.0190509420    0.0003646155    
0.0551573510    0.0189020480    0.0003674633    
0.0553800120    0.0198812290    0.0003736572    
0.0556026730    0.0197556840    0.0003801983    
0.0558253340    0.0202069580    0.0003877359    
0.0560479950    0.0184511430    0.0003705079    
0.0562706560    0.0190371770    0.0003799843    
0.0564933170    0.0200097370    0.0003929526    
0.0567159780    0.0192691430    0.0003809887    
0.0569386390    0.0202203010    0.0003964003    
0.0571613000    0.0190836370    0.0003768057    
0.0573839610    0.0196460880    0.0003791438    
0.0576066220    0.0193650610    0.0003774643    
0.0578292830    0.0194344590    0.0003768888    
0.0580519440    0.0194381540    0.0003783862    
0.0582746050    0.0194496230    0.0003768288    
0.0584972660    0.0199240910    0.0003799375    
0.0587199270    0.0200164330    0.0003775342    
0.0589425880    0.0191354960    0.0003669739    
0.0591652490    0.0190978970    0.0003687705    
0.0593879100    0.0201411930    0.0003758968    
0.0596105710    0.0198747030    0.0003730078    
0.0598332320    0.0197530700    0.0003750433    
0.0600558930    0.0204581100    0.0003792443    
0.0602785540    0.0196712450    0.0003714863    
0.0605012150    0.0196443270    0.0003704499    
0.0607238760    0.0194072480    0.0003655244    
0.0609465370    0.0200147330    0.0003741235    
0.0611691980    0.0196222220    0.0003710240    
0.0613918590    0.0198481090    0.0003690796    
0.0616145200    0.0191995770    0.0003656565    
0.0618371810    0.0194319730    0.0003642499    
0.0620598420    0.0200741490    0.0003706014    
0.0622825030    0.0191482660    0.0003674891    
0.0625051640    0.0197522970    0.0003679984    
0.0627278250    0.0195344770    0.0003652102    
0.0629504860    0.0193793660    0.0003608001    
0.0631731470    0.0193868290    0.0003653343    
0.0633958080    0.0193668840    0.0003672478    
0.0636184690    0.0199315760    0.0003777522    
0.0638411300    0.0191142840    0.0003685377    
0.0640637910    0.0198164650    0.0003778852    
0.0642864520    0.0191926820    0.0003710853    
0.0645091130    0.0192165810    0.0003745702    
0.0647317740    0.0195809360    0.0003785214    
0.0649544350    0.0194648650    0.0003769826    
0.0651770960    0.0200474700    0.0003804958    
0.0653997570    0.0192271910    0.0003718220    
0.0656224180    0.0192025740    0.0003723920    
0.0658450790    0.0193069840    0.0003680359    
0.0660677400    0.0193089360    0.0003696209    
0.0662904010    0.0195915760    0.0003767611    
0.0665130620    0.0200612340    0.0003795965    
0.0667357230    0.0192928700    0.0003788747    
0.0669583840    0.0199769600    0.0003842434    
0.0671810450    0.0202759320    0.0003849706    
0.0674037060    0.0196081310    0.0003849916    
0.0676263670    0.0195380780    0.0003814896    
0.0678490280    0.0194764220    0.0003785578    
0.0680716890    0.0197627500    0.0003821789    
0.0682943500    0.0195274140    0.0003757357    
0.0685170110    0.0193297970    0.0003700203    
0.0687396720    0.0201642750    0.0003769188    
0.0689623330    0.0189165280    0.0003639140    
0.0691849940    0.0201236340    0.0003779461    
0.0694076550    0.0191590940    0.0003685805    
0.0696303160    0.0189965010    0.0003641074    
0.0698529770    0.0193339370    0.0003665572    
0.0700756380    0.0191996840    0.0003605932    
0.0702982990    0.0194817260    0.0003671878    
0.0705209600    0.0195629570    0.0003652960    
0.0707436210    0.0201947200    0.0003694431    
0.0709662820    0.0192326540    0.0003648337    
0.0711889430    0.0191142020    0.0003592413    
0.0714116040    0.0194906140    0.0003635018    
0.0716342650    0.0191376530    0.0003587329    
0.0718569260    0.0201644580    0.0003667478    
0.0720795870    0.0197227260    0.0003641757    
0.0723022480    0.0192837570    0.0003606489    
0.0725249090    0.0197991270    0.0003610600    
0.0727475700    0.0193351190    0.0003598516    
0.0729702310    0.0196408860    0.0003597932    
0.0731928920    0.0198845640    0.0003634651    
0.0734155530    0.0192494440    0.0003568998    
0.0736382140    0.0191534160    0.0003537238    
0.0738608750    0.0195737380    0.0003598941    
0.0740835360    0.0195030090    0.0003583514    
0.0743061970    0.0195336520    0.0003535828    
0.0745288580    0.0196042640    0.0003578636    
0.0747515190    0.0197342450    0.0003597571    
0.0749741800    0.0195315320    0.0003545917    
0.0751968410    0.0191070730    0.0003534712    
0.0754195020    0.0193879270    0.0003539735    
0.0756421630    0.0192629710    0.0003499467    
0.0758648240    0.0190554600    0.0003488935    
0.0760874850    0.0202624850    0.0003596010    
0.0763101460    0.0196248750    0.0003535583    
0.0765328070    0.0193979830    0.0003551053    
0.0767554680    0.0193087640    0.0003518837    
0.0769781290    0.0194805200    0.0003514142    
0.0772007900    0.0194999110    0.0003487692    
0.0774234510    0.0191545480    0.0003476330    
0.0776461120    0.0191497130    0.0003472594    
0.0778687730    0.0196301960    0.0003504275    
0.0780914340    0.0195563870    0.0003522673    
0.0783140950    0.0196290570    0.0003473217    
0.0785367560    0.0195945140    0.0003526110    
0.0787594170    0.0197684700    0.0003509995    
0.0789820780    0.0192456430    0.0003445523    
0.0792047390    0.0193468580    0.0003465866    
0.0794274000    0.0196676910    0.0003509291    
0.0796500610    0.0199180620    0.0003497089    
0.0798727220    0.0200161370    0.0003502452    
0.0800953830    0.0195825530    0.0003456343    
0.0803180440    0.0199429360    0.0003512300    
0.0805407050    0.0192328650    0.0003445998    
0.0807633660    0.0197148530    0.0003485671    
0.0809860270    0.0196306920    0.0003465379    
0.0812086880    0.0192748370    0.0003404152    
0.0814313490    0.0201244980    0.0003494237    
0.0816540100    0.0193746650    0.0003420716    
0.0818766710    0.0198758050    0.0003472584    
0.0820993320    0.0186971910    0.0003361913    
0.0823219930    0.0191077300    0.0003412639    
0.0825446540    0.0188971580    0.0003369125    
0.0827673150    0.0191537590    0.0003369134    
0.0829899760    0.0199064490    0.0003428581    
0.0832126370    0.0199421740    0.0003447027    
0.0834352980    0.0192362090    0.0003377894    
0.0836579590    0.0195049810    0.0003393839    
0.0838806200    0.0195737630    0.0003410457    
0.0841032810    0.0194019240    0.0003374375    
0.0843259420    0.0196034020    0.0003381405    
0.0845486030    0.0192068140    0.0003347029    
0.0847712640    0.0195553620    0.0003356680    
0.0849939250    0.0194963290    0.0003357446    
0.0852165860    0.0200054030    0.0003405452    
0.0854392470    0.0192415310    0.0003308176    
0.0856619080    0.0192720420    0.0003335182    
0.0858845690    0.0197426930    0.0003345258    
0.0861072300    0.0199012790    0.0003381853    
0.0863298910    0.0191520630    0.0003334957    
0.0865525520    0.0195361500    0.0003339147    
0.0867752130    0.0194243080    0.0003302709    
0.0869978740    0.0195347300    0.0003320524    
0.0872205350    0.0198622560    0.0003343985    
0.0874431960    0.0189840230    0.0003269222    
0.0876658570    0.0189882530    0.0003282140    
0.0878885180    0.0197763930    0.0003355306    
0.0881111790    0.0202480560    0.0003390726    
0.0883338400    0.0194169070    0.0003271790    
0.0885565010    0.0197148870    0.0003341506    
0.0887791620    0.0199462490    0.0003317471    
0.0890018230    0.0192775290    0.0003293019    
0.0892244840    0.0192641080    0.0003297469    
0.0894471450    0.0193479660    0.0003290680    
0.0896698060    0.0194300190    0.0003285211    
0.0898924670    0.0195601090    0.0003311470    
0.0901151280    0.0197048740    0.0003287801    
0.0903377890    0.0190822470    0.0003262518    
0.0905604500    0.0196702130    0.0003297198    
0.0907831110    0.0195779640    0.0003281274    
0.0910057720    0.0195305100    0.0003292334    
0.0912284330    0.0191262280    0.0003211432    
0.0914510940    0.0191582230    0.0003249959    
0.0916737550    0.0191345710    0.0003239892    
0.0918964160    0.0191281100    0.0003252817    
0.0921190770    0.0193215380    0.0003239662    
0.0923417380    0.0201637310    0.0003310873    
0.0925643990    0.0192915550    0.0003230551    
0.0927870600    0.0197010030    0.0003278042    
0.0930097210    0.0195437900    0.0003237129    
0.0932323820    0.0192935220    0.0003239979    
