# Diamond Light Source Ltd.
# Data extracted from: /dls/b21/data/2018/cm19678-3/processed/b21-386631_00750.dat
q(1/A)          Column          Error           
0.0035000000    2.1060744000    0.0246480490    
0.0037226610    1.8604716000    0.0226785620    
0.0039453220    1.6154275000    0.0192244690    
0.0041679830    1.2857372000    0.0140848270    
0.0043906440    0.9798137000    0.0117606810    
0.0046133050    0.7743050700    0.0100364620    
0.0048359660    0.5865282000    0.0082625998    
0.0050586270    0.4575674300    0.0071731723    
0.0052812880    0.4270316200    0.0065519079    
0.0055039490    0.3712690200    0.0058088837    
0.0057266100    0.3094479800    0.0051304599    
0.0059492710    0.2620696300    0.0047214006    
0.0061719320    0.2237623100    0.0042040091    
0.0063945930    0.2000921100    0.0040236287    
0.0066172539    0.1803490500    0.0035869500    
0.0068399149    0.1628260400    0.0033545649    
0.0070625759    0.1449474000    0.0031325796    
0.0072852369    0.1269128700    0.0028873677    
0.0075078979    0.1164321300    0.0027519866    
0.0077305589    0.0983935660    0.0024816494    
0.0079532199    0.0947116000    0.0024010344    
0.0081758809    0.0879870500    0.0023357565    
0.0083985419    0.0828526320    0.0021140278    
0.0086212029    0.0763258420    0.0020290530    
0.0088438639    0.0694253500    0.0019196153    
0.0090665249    0.0608509690    0.0017357675    
0.0092891859    0.0628946810    0.0018418941    
0.0095118469    0.0633537940    0.0017777503    
0.0097345079    0.0595239910    0.0016735812    
0.0099571689    0.0563723070    0.0015950878    
0.0101798300    0.0507305720    0.0015131661    
0.0104024910    0.0485946470    0.0014759573    
0.0106251520    0.0462623270    0.0014449923    
0.0108478130    0.0474701790    0.0014254602    
0.0110704740    0.0405841710    0.0012548472    
0.0112931350    0.0426572090    0.0012902752    
0.0115157960    0.0389981490    0.0012265024    
0.0117384570    0.0370405900    0.0011850335    
0.0119611180    0.0375203880    0.0011961063    
0.0121837790    0.0374860780    0.0011754645    
0.0124064400    0.0366262820    0.0011134718    
0.0126291010    0.0338667140    0.0010573028    
0.0128517620    0.0334057580    0.0010527048    
0.0130744230    0.0315720690    0.0010158147    
0.0132970840    0.0320731670    0.0010188377    
0.0135197450    0.0335823400    0.0010276029    
0.0137424060    0.0310333430    0.0009740821    
0.0139650670    0.0308645840    0.0009497919    
0.0141877280    0.0324983760    0.0009767599    
0.0144103890    0.0295159970    0.0009148125    
0.0146330500    0.0292823570    0.0009053994    
0.0148557110    0.0296758120    0.0009076403    
0.0150783720    0.0292146330    0.0008931174    
0.0153010330    0.0284497080    0.0008689213    
0.0155236940    0.0270371750    0.0008420386    
0.0157463550    0.0283622070    0.0008474830    
0.0159690160    0.0260865610    0.0008096888    
0.0161916770    0.0265389370    0.0008120783    
0.0164143380    0.0251009980    0.0007957551    
0.0166369990    0.0244774440    0.0007615807    
0.0168596600    0.0247231370    0.0007586497    
0.0170823210    0.0261500350    0.0007734801    
0.0173049820    0.0242891320    0.0007467396    
0.0175276430    0.0249447700    0.0007647310    
0.0177503040    0.0250250230    0.0007464339    
0.0179729650    0.0234180490    0.0007149091    
0.0181956260    0.0233266140    0.0006998334    
0.0184182870    0.0233776310    0.0006972963    
0.0186409480    0.0233374940    0.0007011070    
0.0188636090    0.0232528540    0.0006954331    
0.0190862700    0.0229728610    0.0006901527    
0.0193089310    0.0234800350    0.0006966419    
0.0195315920    0.0224887700    0.0006585920    
0.0197542530    0.0235988840    0.0006756341    
0.0199769140    0.0241405060    0.0006833435    
0.0201995750    0.0210475980    0.0006280767    
0.0204222360    0.0225544230    0.0006557516    
0.0206448970    0.0240957080    0.0006729700    
0.0208675580    0.0211844200    0.0006180130    
0.0210902190    0.0226060460    0.0006445729    
0.0213128800    0.0214602210    0.0006195032    
0.0215355410    0.0223662180    0.0006249107    
0.0217582020    0.0228376460    0.0006314623    
0.0219808630    0.0215413080    0.0006124734    
0.0222035240    0.0211526850    0.0006014238    
0.0224261850    0.0208954140    0.0005924351    
0.0226488460    0.0218567870    0.0006013605    
0.0228715070    0.0214190550    0.0005938293    
0.0230941680    0.0220117510    0.0006019894    
0.0233168290    0.0215589920    0.0005972501    
0.0235394900    0.0215550460    0.0005906046    
0.0237621510    0.0213907640    0.0005725107    
0.0239848120    0.0215170800    0.0005748629    
0.0242074730    0.0216576240    0.0005721208    
0.0244301340    0.0202377240    0.0005536795    
0.0246527950    0.0215554680    0.0005767124    
0.0248754560    0.0210987550    0.0005577467    
0.0250981170    0.0205265100    0.0005513578    
0.0253207780    0.0215213960    0.0005477051    
0.0255434390    0.0203601240    0.0005384091    
0.0257661000    0.0210079400    0.0005486767    
0.0259887610    0.0217280610    0.0005520714    
0.0262114220    0.0204716210    0.0005387269    
0.0264340830    0.0212839360    0.0005418374    
0.0266567440    0.0210898400    0.0005360284    
0.0268794050    0.0208369610    0.0005306305    
0.0271020660    0.0205613620    0.0005249757    
0.0273247270    0.0206064790    0.0005223950    
0.0275473880    0.0204454110    0.0005193140    
0.0277700490    0.0199697820    0.0005102041    
0.0279927100    0.0200583200    0.0005068724    
0.0282153710    0.0212497090    0.0005242449    
0.0284380320    0.0201858840    0.0005079918    
0.0286606930    0.0197538540    0.0004982251    
0.0288833540    0.0202578450    0.0005054992    
0.0291060150    0.0199046670    0.0005005979    
0.0293286760    0.0198924360    0.0004934706    
0.0295513370    0.0201082860    0.0004907380    
0.0297739980    0.0207126380    0.0005035415    
0.0299966590    0.0207562470    0.0004954619    
0.0302193200    0.0206229940    0.0005010661    
0.0304419810    0.0204057080    0.0004993366    
0.0306646420    0.0211394110    0.0004938899    
0.0308873030    0.0191840620    0.0004684616    
0.0311099640    0.0190653360    0.0004682224    
0.0313326250    0.0205907580    0.0004812028    
0.0315552860    0.0203432670    0.0004845009    
0.0317779470    0.0207486120    0.0004897301    
0.0320006080    0.0205230380    0.0004759945    
0.0322232690    0.0205393680    0.0004781772    
0.0324459300    0.0197841950    0.0004658007    
0.0326685910    0.0195659890    0.0004624612    
0.0328912520    0.0203559860    0.0004732671    
0.0331139130    0.0199477400    0.0004624029    
0.0333365740    0.0207032290    0.0004726075    
0.0335592350    0.0200318730    0.0004604116    
0.0337818960    0.0200105530    0.0004598001    
0.0340045570    0.0196205570    0.0004545743    
0.0342272170    0.0198735780    0.0004556914    
0.0344498780    0.0200734440    0.0004597910    
0.0346725390    0.0202194510    0.0004529140    
0.0348952000    0.0200658090    0.0004491345    
0.0351178610    0.0196209070    0.0004461602    
0.0353405220    0.0200055160    0.0004484595    
0.0355631830    0.0203240510    0.0004503133    
0.0357858440    0.0202442450    0.0004494284    
0.0360085050    0.0210995260    0.0004602103    
0.0362311660    0.0203852660    0.0004469765    
0.0364538270    0.0198375420    0.0004373919    
0.0366764880    0.0194524560    0.0004328115    
0.0368991490    0.0197620790    0.0004340432    
0.0371218100    0.0196870810    0.0004319794    
0.0373444710    0.0202344320    0.0004427125    
0.0375671320    0.0198568250    0.0004379235    
0.0377897930    0.0192819470    0.0004203664    
0.0380124540    0.0207588820    0.0004389054    
0.0382351150    0.0193576470    0.0004238336    
0.0384577760    0.0203602480    0.0004304771    
0.0386804370    0.0198959410    0.0004287878    
0.0389030980    0.0196412500    0.0004228082    
0.0391257590    0.0205067650    0.0004290907    
0.0393484200    0.0197268610    0.0004194357    
0.0395710810    0.0198515850    0.0004213264    
0.0397937420    0.0193955480    0.0004164590    
0.0400164030    0.0190668640    0.0004145950    
0.0402390640    0.0202826720    0.0004219152    
0.0404617250    0.0198272340    0.0004146904    
0.0406843860    0.0195735530    0.0004080481    
0.0409070470    0.0203569270    0.0004204685    
0.0411297080    0.0195816730    0.0004083949    
0.0413523690    0.0196913160    0.0004105923    
0.0415750300    0.0198357060    0.0004155955    
0.0417976910    0.0195252870    0.0004016665    
0.0420203520    0.0195307650    0.0004032322    
0.0422430130    0.0193601720    0.0004029873    
0.0424656740    0.0199789680    0.0004040486    
0.0426883350    0.0191379430    0.0003974156    
0.0429109960    0.0196563270    0.0004040203    
0.0431336570    0.0196310240    0.0003980716    
0.0433563180    0.0191417860    0.0003964709    
0.0435789790    0.0194758870    0.0003936330    
0.0438016400    0.0201870100    0.0004029351    
0.0440243010    0.0192199500    0.0003891763    
0.0442469620    0.0194031250    0.0003933694    
0.0444696230    0.0201747720    0.0003996768    
0.0446922840    0.0196851940    0.0003936252    
0.0449149450    0.0196604150    0.0003881185    
0.0451376060    0.0193952120    0.0003902528    
0.0453602670    0.0198671850    0.0003908320    
0.0455829280    0.0197215450    0.0003889465    
0.0458055890    0.0193701860    0.0003877140    
0.0460282500    0.0203222710    0.0003923394    
0.0462509110    0.0196663160    0.0003835551    
0.0464735720    0.0191717890    0.0003789157    
0.0466962330    0.0194069490    0.0003829656    
0.0469188940    0.0193421590    0.0003812419    
0.0471415550    0.0195109840    0.0003848687    
0.0473642160    0.0197803030    0.0003820899    
0.0475868770    0.0191311910    0.0003739015    
0.0478095380    0.0194566970    0.0003754189    
0.0480321990    0.0199931320    0.0003813928    
0.0482548600    0.0192928010    0.0003730211    
0.0484775210    0.0200309150    0.0003838636    
0.0487001820    0.0196773200    0.0003748911    
0.0489228430    0.0197846040    0.0003757097    
0.0491455040    0.0197862930    0.0003731271    
0.0493681650    0.0193690920    0.0003723449    
0.0495908260    0.0199612990    0.0003716344    
0.0498134870    0.0197508350    0.0003731891    
0.0500361480    0.0189660940    0.0003647326    
0.0502588090    0.0188511520    0.0003581773    
0.0504814700    0.0197453730    0.0003713663    
0.0507041310    0.0192513660    0.0003623315    
0.0509267920    0.0196516410    0.0003675934    
0.0511494530    0.0192343940    0.0003612451    
0.0513721140    0.0194780010    0.0003667270    
0.0515947750    0.0201346810    0.0003679140    
0.0518174360    0.0202847210    0.0003670579    
0.0520400970    0.0198340920    0.0003604412    
0.0522627580    0.0195597370    0.0003609815    
0.0524854190    0.0188228520    0.0003569957    
0.0527080800    0.0200093410    0.0003709251    
0.0529307410    0.0197326980    0.0003700821    
0.0531534020    0.0196237330    0.0003677152    
0.0533760630    0.0191227640    0.0003641275    
0.0535987240    0.0198375850    0.0003691392    
0.0538213850    0.0193088240    0.0003684058    
0.0540440460    0.0193910750    0.0003674424    
0.0542667070    0.0197510350    0.0003733929    
0.0544893680    0.0193198310    0.0003694912    
0.0547120290    0.0193905900    0.0003676313    
0.0549346900    0.0198087070    0.0003717692    
0.0551573510    0.0194564260    0.0003727859    
0.0553800120    0.0196887570    0.0003718170    
0.0556026730    0.0203746640    0.0003860805    
0.0558253340    0.0195642800    0.0003814925    
0.0560479950    0.0204867220    0.0003903826    
0.0562706560    0.0193377510    0.0003829445    
0.0564933170    0.0200454110    0.0003932741    
0.0567159780    0.0191006450    0.0003792918    
0.0569386390    0.0195646910    0.0003898927    
0.0571613000    0.0197429320    0.0003832315    
0.0573839610    0.0193359670    0.0003761121    
0.0576066220    0.0196270830    0.0003799818    
0.0578292830    0.0193439430    0.0003759828    
0.0580519440    0.0189787230    0.0003738607    
0.0582746050    0.0187679140    0.0003701391    
0.0584972660    0.0194358460    0.0003752262    
0.0587199270    0.0203410340    0.0003805554    
0.0589425880    0.0192945620    0.0003684692    
0.0591652490    0.0190951240    0.0003687169    
0.0593879100    0.0199418660    0.0003740050    
0.0596105710    0.0195218380    0.0003696549    
0.0598332320    0.0194582920    0.0003722073    
0.0600558930    0.0194148100    0.0003694208    
0.0602785540    0.0185250410    0.0003604749    
0.0605012150    0.0196833840    0.0003707911    
0.0607238760    0.0192254610    0.0003637821    
0.0609465370    0.0194524470    0.0003688040    
0.0611691980    0.0189039010    0.0003641431    
0.0613918590    0.0201265740    0.0003716326    
0.0616145200    0.0190714570    0.0003644080    
0.0618371810    0.0194154980    0.0003640690    
0.0620598420    0.0199002110    0.0003689656    
0.0622825030    0.0194910210    0.0003707367    
0.0625051640    0.0195643430    0.0003662168    
0.0627278250    0.0192107780    0.0003621453    
0.0629504860    0.0198937080    0.0003655301    
0.0631731470    0.0192807620    0.0003643071    
0.0633958080    0.0191621450    0.0003652750    
0.0636184690    0.0192128530    0.0003708520    
0.0638411300    0.0191470330    0.0003688265    
0.0640637910    0.0193812920    0.0003736858    
0.0642864520    0.0198498850    0.0003773579    
0.0645091130    0.0194108930    0.0003764318    
0.0647317740    0.0193220270    0.0003759832    
0.0649544350    0.0192941360    0.0003752984    
0.0651770960    0.0191636390    0.0003719868    
0.0653997570    0.0198642540    0.0003779043    
0.0656224180    0.0192647720    0.0003729675    
0.0658450790    0.0199354950    0.0003739512    
0.0660677400    0.0191575690    0.0003681426    
0.0662904010    0.0198277950    0.0003789981    
0.0665130620    0.0202234990    0.0003811009    
0.0667357230    0.0192975090    0.0003788927    
0.0669583840    0.0193089970    0.0003777374    
0.0671810450    0.0198125710    0.0003805188    
0.0674037060    0.0200663180    0.0003894354    
0.0676263670    0.0193862880    0.0003799772    
0.0678490280    0.0201872100    0.0003853756    
0.0680716890    0.0190652550    0.0003753468    
0.0682943500    0.0186643690    0.0003673121    
0.0685170110    0.0199360490    0.0003757508    
0.0687396720    0.0194498530    0.0003701546    
0.0689623330    0.0196837730    0.0003711938    
0.0691849940    0.0204258940    0.0003807463    
0.0694076550    0.0192059410    0.0003690040    
0.0696303160    0.0197752640    0.0003714688    
0.0698529770    0.0193033360    0.0003662404    
0.0700756380    0.0196573510    0.0003648392    
0.0702982990    0.0189322430    0.0003619462    
0.0705209600    0.0189122050    0.0003591428    
0.0707436210    0.0194416920    0.0003624634    
0.0709662820    0.0197695990    0.0003698646    
0.0711889430    0.0192194390    0.0003602027    
0.0714116040    0.0188506190    0.0003574581    
0.0716342650    0.0194508750    0.0003616304    
0.0718569260    0.0195812940    0.0003613794    
0.0720795870    0.0197265860    0.0003641849    
0.0723022480    0.0201374390    0.0003685185    
0.0725249090    0.0196843350    0.0003599856    
0.0727475700    0.0195131120    0.0003614779    
0.0729702310    0.0199214020    0.0003623271    
0.0731928920    0.0194432570    0.0003593831    
0.0734155530    0.0200009010    0.0003637730    
0.0736382140    0.0193269870    0.0003552971    
0.0738608750    0.0200472670    0.0003641949    
0.0740835360    0.0193553420    0.0003569663    
0.0743061970    0.0194604230    0.0003528938    
0.0745288580    0.0194838490    0.0003567370    
0.0747515190    0.0195149830    0.0003577270    
0.0749741800    0.0193677810    0.0003530765    
0.0751968410    0.0189343080    0.0003518440    
0.0754195020    0.0195983490    0.0003558634    
0.0756421630    0.0191838970    0.0003492024    
0.0758648240    0.0196977900    0.0003546993    
0.0760874850    0.0194683050    0.0003524577    
0.0763101460    0.0199022490    0.0003560223    
0.0765328070    0.0192716720    0.0003539216    
0.0767554680    0.0201138490    0.0003591186    
0.0769781290    0.0193509250    0.0003502179    
0.0772007900    0.0198463550    0.0003518282    
0.0774234510    0.0189246700    0.0003455156    
0.0776461120    0.0197639670    0.0003527593    
0.0778687730    0.0195835630    0.0003499856    
0.0780914340    0.0195979590    0.0003526159    
0.0783140950    0.0189072760    0.0003408515    
0.0785367560    0.0199723360    0.0003559685    
0.0787594170    0.0194166490    0.0003478368    
0.0789820780    0.0189406370    0.0003417863    
0.0792047390    0.0197413600    0.0003500769    
0.0794274000    0.0198714390    0.0003527166    
0.0796500610    0.0195468250    0.0003464094    
0.0798727220    0.0185364430    0.0003370262    
0.0800953830    0.0187501640    0.0003381841    
0.0803180440    0.0187896540    0.0003408984    
0.0805407050    0.0192856330    0.0003450471    
0.0807633660    0.0194285420    0.0003460017    
0.0809860270    0.0195055120    0.0003454062    
0.0812086880    0.0196507470    0.0003436937    
0.0814313490    0.0190599920    0.0003400319    
0.0816540100    0.0193537360    0.0003418620    
0.0818766710    0.0187992000    0.0003376981    
0.0820993320    0.0188818450    0.0003378228    
0.0823219930    0.0192512140    0.0003425179    
0.0825446540    0.0190145310    0.0003379327    
0.0827673150    0.0195776090    0.0003405961    
0.0829899760    0.0191537060    0.0003362888    
0.0832126370    0.0191648220    0.0003378930    
0.0834352980    0.0190258400    0.0003359129    
0.0836579590    0.0194549140    0.0003389234    
0.0838806200    0.0197313390    0.0003423908    
0.0841032810    0.0192524110    0.0003361104    
0.0843259420    0.0197755090    0.0003395970    
0.0845486030    0.0196414080    0.0003384438    
0.0847712640    0.0192414350    0.0003329387    
0.0849939250    0.0197131760    0.0003375821    
0.0852165860    0.0199793130    0.0003402984    
0.0854392470    0.0193183540    0.0003314533    
0.0856619080    0.0194308310    0.0003348650    
0.0858845690    0.0197965010    0.0003349571    
0.0861072300    0.0198294370    0.0003375498    
0.0863298910    0.0195150810    0.0003366171    
0.0865525520    0.0190482620    0.0003296949    
0.0867752130    0.0198257510    0.0003336421    
0.0869978740    0.0196786230    0.0003332489    
0.0872205350    0.0190037540    0.0003270681    
0.0874431960    0.0199494690    0.0003351078    
0.0876658570    0.0191783580    0.0003298290    
0.0878885180    0.0195003130    0.0003331562    
0.0881111790    0.0191380500    0.0003296236    
0.0883338400    0.0193369170    0.0003264806    
0.0885565010    0.0197120250    0.0003341021    
0.0887791620    0.0197778480    0.0003303197    
0.0890018230    0.0194153390    0.0003304529    
0.0892244840    0.0196168520    0.0003327281    
0.0894471450    0.0190821480    0.0003267759    
0.0896698060    0.0199214860    0.0003326259    
0.0898924670    0.0194731880    0.0003303864    
0.0901151280    0.0198007430    0.0003295550    
0.0903377890    0.0199606680    0.0003336524    
0.0905604500    0.0191258010    0.0003251014    
0.0907831110    0.0200260090    0.0003318367    
0.0910057720    0.0196497570    0.0003302130    
0.0912284330    0.0191504080    0.0003213228    
0.0914510940    0.0193483740    0.0003265810    
0.0916737550    0.0194718650    0.0003268085    
0.0918964160    0.0192746630    0.0003265017    
0.0921190770    0.0195414110    0.0003257807    
0.0923417380    0.0191878240    0.0003229523    
0.0925643990    0.0194347990    0.0003242287    
0.0927870600    0.0194636410    0.0003257998    
0.0930097210    0.0197071440    0.0003250394    
0.0932323820    0.0185943830    0.0003180503    
