# Diamond Light Source Ltd.
# Data extracted from: /dls/b21/data/2018/cm19678-3/processed/b21-386631_00747.dat
q(1/A)          Column          Error           
0.0035000000    2.0602155000    0.0243731430    
0.0037226610    1.8743420000    0.0227582010    
0.0039453220    1.6072079000    0.0191715040    
0.0041679830    1.3009331000    0.0141648640    
0.0043906440    0.9421539800    0.0115300500    
0.0046133050    0.7875064000    0.0101195490    
0.0048359660    0.5975697400    0.0083382727    
0.0050586270    0.4547915000    0.0071498907    
0.0052812880    0.4276576000    0.0065553425    
0.0055039490    0.3742031900    0.0058305777    
0.0057266100    0.3238582500    0.0052474642    
0.0059492710    0.2706329600    0.0047969188    
0.0061719320    0.2196425800    0.0041642613    
0.0063945930    0.1907887800    0.0039281572    
0.0066172539    0.1839820900    0.0036221438    
0.0068399149    0.1678012200    0.0034047197    
0.0070625759    0.1498947900    0.0031849285    
0.0072852369    0.1272539700    0.0028906431    
0.0075078979    0.1124174800    0.0027035620    
0.0077305589    0.1009177500    0.0025127564    
0.0079532199    0.0957064810    0.0024131093    
0.0081758809    0.0937145880    0.0024100791    
0.0083985419    0.0855140200    0.0021472654    
0.0086212029    0.0762401280    0.0020274909    
0.0088438639    0.0710411450    0.0019414207    
0.0090665249    0.0647849760    0.0017906243    
0.0092891859    0.0612509380    0.0018172873    
0.0095118469    0.0599366440    0.0017287818    
0.0097345079    0.0570533780    0.0016381398    
0.0099571689    0.0558525570    0.0015873867    
0.0101798300    0.0529200820    0.0015451530    
0.0104024910    0.0455721110    0.0014290212    
0.0106251520    0.0471453580    0.0014584139    
0.0108478130    0.0472364710    0.0014216507    
0.0110704740    0.0440189730    0.0013065980    
0.0112931350    0.0414690980    0.0012719146    
0.0115157960    0.0421436400    0.0012747410    
0.0117384570    0.0393368630    0.0012209589    
0.0119611180    0.0374666430    0.0011950003    
0.0121837790    0.0378020590    0.0011801624    
0.0124064400    0.0374907720    0.0011263011    
0.0126291010    0.0379769480    0.0011193925    
0.0128517620    0.0345524320    0.0010703967    
0.0130744230    0.0333557490    0.0010438974    
0.0132970840    0.0328685800    0.0010311791    
0.0135197450    0.0318396430    0.0010003765    
0.0137424060    0.0317233410    0.0009846463    
0.0139650670    0.0307348640    0.0009475964    
0.0141877280    0.0302839680    0.0009426987    
0.0144103890    0.0277181750    0.0008863295    
0.0146330500    0.0277031140    0.0008804628    
0.0148557110    0.0277487840    0.0008774936    
0.0150783720    0.0281926580    0.0008771742    
0.0153010330    0.0278807720    0.0008600099    
0.0155236940    0.0264754320    0.0008330717    
0.0157463550    0.0265278660    0.0008194485    
0.0159690160    0.0260756940    0.0008093516    
0.0161916770    0.0251369060    0.0007901719    
0.0164143380    0.0257209570    0.0008053544    
0.0166369990    0.0253673010    0.0007751389    
0.0168596600    0.0251316990    0.0007647332    
0.0170823210    0.0266651260    0.0007808981    
0.0173049820    0.0245773380    0.0007510003    
0.0175276430    0.0260358030    0.0007811131    
0.0177503040    0.0259270520    0.0007596091    
0.0179729650    0.0242591080    0.0007274823    
0.0181956260    0.0238835540    0.0007079911    
0.0184182870    0.0245321290    0.0007141579    
0.0186409480    0.0227593150    0.0006922235    
0.0188636090    0.0233055380    0.0006960755    
0.0190862700    0.0216783410    0.0006702861    
0.0193089310    0.0228297800    0.0006867847    
0.0195315920    0.0224022850    0.0006571874    
0.0197542530    0.0229896590    0.0006667171    
0.0199769140    0.0221002430    0.0006536932    
0.0201995750    0.0228373410    0.0006540993    
0.0204222360    0.0228308890    0.0006596209    
0.0206448970    0.0228269030    0.0006548757    
0.0208675580    0.0226533810    0.0006389478    
0.0210902190    0.0224864010    0.0006427310    
0.0213128800    0.0225774730    0.0006352924    
0.0215355410    0.0213795500    0.0006108443    
0.0217582020    0.0214668220    0.0006120899    
0.0219808630    0.0214453000    0.0006109797    
0.0222035240    0.0223745590    0.0006184216    
0.0224261850    0.0217262080    0.0006039720    
0.0226488460    0.0219965310    0.0006031542    
0.0228715070    0.0204391880    0.0005799664    
0.0230941680    0.0209493540    0.0005871599    
0.0233168290    0.0210042310    0.0005893929    
0.0235394900    0.0211902000    0.0005854630    
0.0237621510    0.0212133710    0.0005700130    
0.0239848120    0.0206023500    0.0005623938    
0.0242074730    0.0212860300    0.0005670732    
0.0244301340    0.0213952040    0.0005691744    
0.0246527950    0.0214385250    0.0005750260    
0.0248754560    0.0205299240    0.0005500622    
0.0250981170    0.0214357900    0.0005633200    
0.0253207780    0.0204256620    0.0005334690    
0.0255434390    0.0214332680    0.0005523011    
0.0257661000    0.0215864780    0.0005560645    
0.0259887610    0.0211160930    0.0005441280    
0.0262114220    0.0208315420    0.0005433288    
0.0264340830    0.0204339940    0.0005307979    
0.0266567440    0.0210538180    0.0005354589    
0.0268794050    0.0203960470    0.0005248770    
0.0271020660    0.0211289180    0.0005320610    
0.0273247270    0.0205978950    0.0005221773    
0.0275473880    0.0209642980    0.0005257530    
0.0277700490    0.0205347690    0.0005172634    
0.0279927100    0.0201779970    0.0005082764    
0.0282153710    0.0200126880    0.0005086510    
0.0284380320    0.0207525140    0.0005149650    
0.0286606930    0.0205872000    0.0005085197    
0.0288833540    0.0208672270    0.0005129390    
0.0291060150    0.0205256090    0.0005082403    
0.0293286760    0.0203613680    0.0004991491    
0.0295513370    0.0198963960    0.0004880439    
0.0297739980    0.0207162460    0.0005034804    
0.0299966590    0.0211140830    0.0004996104    
0.0302193200    0.0199816110    0.0004931101    
0.0304419810    0.0201529300    0.0004961308    
0.0306646420    0.0194466160    0.0004736039    
0.0308873030    0.0213601070    0.0004942139    
0.0311099640    0.0205056640    0.0004854857    
0.0313326250    0.0203348790    0.0004781039    
0.0315552860    0.0209922420    0.0004920657    
0.0317779470    0.0206013160    0.0004878871    
0.0320006080    0.0189364510    0.0004571302    
0.0322232690    0.0202526170    0.0004747287    
0.0324459300    0.0198526890    0.0004665091    
0.0326685910    0.0212732470    0.0004821152    
0.0328912520    0.0204024990    0.0004737088    
0.0331139130    0.0195965710    0.0004582191    
0.0333365740    0.0207593090    0.0004731486    
0.0335592350    0.0204043250    0.0004645753    
0.0337818960    0.0193263230    0.0004517766    
0.0340045570    0.0212125340    0.0004725579    
0.0342272170    0.0210664080    0.0004690699    
0.0344498780    0.0198334800    0.0004569393    
0.0346725390    0.0202718740    0.0004534062    
0.0348952000    0.0204292570    0.0004530894    
0.0351178610    0.0205659890    0.0004566838    
0.0353405220    0.0203689890    0.0004524209    
0.0355631830    0.0199166530    0.0004456843    
0.0357858440    0.0198667990    0.0004451263    
0.0360085050    0.0206191550    0.0004548466    
0.0362311660    0.0198477620    0.0004409525    
0.0364538270    0.0201088350    0.0004402808    
0.0366764880    0.0195983670    0.0004343412    
0.0368991490    0.0197729050    0.0004340717    
0.0371218100    0.0196599300    0.0004315915    
0.0373444710    0.0200904530    0.0004410427    
0.0375671320    0.0202829810    0.0004425056    
0.0377897930    0.0204647930    0.0004329780    
0.0380124540    0.0196556760    0.0004269947    
0.0382351150    0.0195258260    0.0004255821    
0.0384577760    0.0205155270    0.0004320255    
0.0386804370    0.0196105380    0.0004256126    
0.0389030980    0.0193419370    0.0004194868    
0.0391257590    0.0203905260    0.0004277837    
0.0393484200    0.0201108770    0.0004234103    
0.0395710810    0.0200667760    0.0004235156    
0.0397937420    0.0202902510    0.0004258675    
0.0400164030    0.0195725660    0.0004199696    
0.0402390640    0.0198443500    0.0004172445    
0.0404617250    0.0196195710    0.0004124271    
0.0406843860    0.0200925850    0.0004133367    
0.0409070470    0.0196539610    0.0004130588    
0.0411297080    0.0203397690    0.0004161386    
0.0413523690    0.0196317660    0.0004098856    
0.0415750300    0.0190702050    0.0004074123    
0.0417976910    0.0200540190    0.0004069838    
0.0420203520    0.0195808810    0.0004036651    
0.0422430130    0.0197461930    0.0004069002    
0.0424656740    0.0196030880    0.0004001463    
0.0426883350    0.0198724010    0.0004048852    
0.0429109960    0.0190919800    0.0003980953    
0.0431336570    0.0196954640    0.0003986413    
0.0433563180    0.0191748540    0.0003967306    
0.0435789790    0.0199846880    0.0003986586    
0.0438016400    0.0191576110    0.0003924455    
0.0440243010    0.0190386510    0.0003872557    
0.0442469620    0.0198813130    0.0003981043    
0.0444696230    0.0195252860    0.0003931089    
0.0446922840    0.0198579490    0.0003952662    
0.0449149450    0.0196675430    0.0003881080    
0.0451376060    0.0201798850    0.0003979859    
0.0453602670    0.0196821460    0.0003889266    
0.0455829280    0.0197056620    0.0003887089    
0.0458055890    0.0191759430    0.0003856848    
0.0460282500    0.0194961050    0.0003842017    
0.0462509110    0.0192169560    0.0003790688    
0.0464735720    0.0193210060    0.0003803082    
0.0466962330    0.0205621920    0.0003941172    
0.0469188940    0.0199950970    0.0003875426    
0.0471415550    0.0200871830    0.0003904290    
0.0473642160    0.0199786370    0.0003839207    
0.0475868770    0.0198755860    0.0003810269    
0.0478095380    0.0202667940    0.0003830748    
0.0480321990    0.0200138940    0.0003815113    
0.0482548600    0.0193712750    0.0003737011    
0.0484775210    0.0199710990    0.0003832102    
0.0487001820    0.0197690750    0.0003756859    
0.0489228430    0.0195338820    0.0003732438    
0.0491455040    0.0193138430    0.0003685687    
0.0493681650    0.0195899780    0.0003743840    
0.0495908260    0.0196625070    0.0003687656    
0.0498134870    0.0194888640    0.0003706286    
0.0500361480    0.0190072710    0.0003650522    
0.0502588090    0.0198024710    0.0003670272    
0.0504814700    0.0192833390    0.0003669192    
0.0507041310    0.0192706130    0.0003624371    
0.0509267920    0.0195197380    0.0003662813    
0.0511494530    0.0197146710    0.0003656512    
0.0513721140    0.0196424310    0.0003681949    
0.0515947750    0.0199784550    0.0003664076    
0.0518174360    0.0198779160    0.0003632829    
0.0520400970    0.0195115500    0.0003574239    
0.0522627580    0.0196315000    0.0003615678    
0.0524854190    0.0196474730    0.0003646558    
0.0527080800    0.0193892910    0.0003650567    
0.0529307410    0.0200783120    0.0003732312    
0.0531534020    0.0194640330    0.0003661396    
0.0533760630    0.0197662810    0.0003701265    
0.0535987240    0.0195684090    0.0003665499    
0.0538213850    0.0204038830    0.0003786296    
0.0540440460    0.0192159620    0.0003657033    
0.0542667070    0.0192841640    0.0003688765    
0.0544893680    0.0189797960    0.0003661489    
0.0547120290    0.0194312820    0.0003679402    
0.0549346900    0.0189356240    0.0003634082    
0.0551573510    0.0196125320    0.0003742005    
0.0553800120    0.0201859050    0.0003764036    
0.0556026730    0.0199859100    0.0003822998    
0.0558253340    0.0203591950    0.0003890845    
0.0560479950    0.0195115340    0.0003808987    
0.0562706560    0.0198224130    0.0003876329    
0.0564933170    0.0196360100    0.0003891563    
0.0567159780    0.0194013630    0.0003821862    
0.0569386390    0.0196963410    0.0003911208    
0.0571613000    0.0194447100    0.0003802468    
0.0573839610    0.0197374330    0.0003799174    
0.0576066220    0.0198321560    0.0003818822    
0.0578292830    0.0195550300    0.0003779500    
0.0580519440    0.0194419590    0.0003783170    
0.0582746050    0.0204310650    0.0003861108    
0.0584972660    0.0190656970    0.0003715585    
0.0587199270    0.0195568350    0.0003730699    
0.0589425880    0.0191388160    0.0003669026    
0.0591652490    0.0196493940    0.0003739521    
0.0593879100    0.0202560860    0.0003768615    
0.0596105710    0.0196886230    0.0003711533    
0.0598332320    0.0191085800    0.0003687706    
0.0600558930    0.0195753540    0.0003708678    
0.0602785540    0.0202070910    0.0003764062    
0.0605012150    0.0195076170    0.0003690549    
0.0607238760    0.0199123900    0.0003701469    
0.0609465370    0.0196959600    0.0003710280    
0.0611691980    0.0190713130    0.0003656757    
0.0613918590    0.0199535680    0.0003699548    
0.0616145200    0.0190078320    0.0003637238    
0.0618371810    0.0193118750    0.0003630206    
0.0620598420    0.0198235410    0.0003681774    
0.0622825030    0.0193348770    0.0003691718    
0.0625051640    0.0196795320    0.0003672168    
0.0627278250    0.0194825600    0.0003646221    
0.0629504860    0.0195094640    0.0003619075    
0.0631731470    0.0205181290    0.0003757370    
0.0633958080    0.0199197730    0.0003723485    
0.0636184690    0.0196556340    0.0003750228    
0.0638411300    0.0193521070    0.0003707191    
0.0640637910    0.0193156020    0.0003729743    
0.0642864520    0.0194257090    0.0003732264    
0.0645091130    0.0195779360    0.0003779693    
0.0647317740    0.0200526040    0.0003829456    
0.0649544350    0.0193809610    0.0003760636    
0.0651770960    0.0193144440    0.0003733698    
0.0653997570    0.0192092040    0.0003715437    
0.0656224180    0.0192928360    0.0003731613    
0.0658450790    0.0193592440    0.0003684302    
0.0660677400    0.0193617340    0.0003700220    
0.0662904010    0.0198847070    0.0003794626    
0.0665130620    0.0198274270    0.0003772720    
0.0667357230    0.0195497360    0.0003812814    
0.0669583840    0.0190867440    0.0003754789    
0.0671810450    0.0201695760    0.0003838518    
0.0674037060    0.0202166090    0.0003908096    
0.0676263670    0.0202566710    0.0003883326    
0.0678490280    0.0195757890    0.0003794157    
0.0680716890    0.0192124300    0.0003767143    
0.0682943500    0.0195236700    0.0003755941    
0.0685170110    0.0195454720    0.0003719743    
0.0687396720    0.0197445380    0.0003728705    
0.0689623330    0.0196126000    0.0003704449    
0.0691849940    0.0193106750    0.0003701292    
0.0694076550    0.0192475470    0.0003693265    
0.0696303160    0.0199693000    0.0003732091    
0.0698529770    0.0197745510    0.0003706064    
0.0700756380    0.0189046190    0.0003577111    
0.0702982990    0.0192701960    0.0003650863    
0.0705209600    0.0196474100    0.0003659808    
0.0707436210    0.0195686890    0.0003635695    
0.0709662820    0.0196230270    0.0003684142    
0.0711889430    0.0198727330    0.0003661971    
0.0714116040    0.0190189300    0.0003589756    
0.0716342650    0.0192814770    0.0003599772    
0.0718569260    0.0194264720    0.0003598729    
0.0720795870    0.0196914860    0.0003637849    
0.0723022480    0.0195493120    0.0003630216    
0.0725249090    0.0198209090    0.0003611570    
0.0727475700    0.0200404670    0.0003662536    
0.0729702310    0.0200909570    0.0003637900    
0.0731928920    0.0194749970    0.0003596014    
0.0734155530    0.0198140050    0.0003619940    
0.0736382140    0.0194625720    0.0003564669    
0.0738608750    0.0194635410    0.0003587788    
0.0740835360    0.0196105070    0.0003592367    
0.0743061970    0.0195930440    0.0003540205    
0.0745288580    0.0196063100    0.0003577818    
0.0747515190    0.0194871900    0.0003573977    
0.0749741800    0.0197071460    0.0003560822    
0.0751968410    0.0197237350    0.0003590290    
0.0754195020    0.0200229380    0.0003596226    
0.0756421630    0.0195380740    0.0003523378    
0.0758648240    0.0194150540    0.0003520711    
0.0760874850    0.0192178190    0.0003501100    
0.0763101460    0.0191618600    0.0003492645    
0.0765328070    0.0193091230    0.0003541915    
0.0767554680    0.0195863300    0.0003543043    
0.0769781290    0.0193935500    0.0003505304    
0.0772007900    0.0196011780    0.0003495754    
0.0774234510    0.0190302880    0.0003464063    
0.0776461120    0.0190382590    0.0003461502    
0.0778687730    0.0191815210    0.0003463023    
0.0780914340    0.0187653620    0.0003449725    
0.0783140950    0.0195504670    0.0003465284    
0.0785367560    0.0197674200    0.0003540639    
0.0787594170    0.0198009670    0.0003511892    
0.0789820780    0.0194814330    0.0003465591    
0.0792047390    0.0195842060    0.0003486081    
0.0794274000    0.0200008390    0.0003537894    
0.0796500610    0.0199130100    0.0003495663    
0.0798727220    0.0196496330    0.0003469263    
0.0800953830    0.0195776500    0.0003454939    
0.0803180440    0.0193258690    0.0003456564    
0.0805407050    0.0203698320    0.0003545395    
0.0807633660    0.0196729830    0.0003480990    
0.0809860270    0.0192039170    0.0003426540    
0.0812086880    0.0196305430    0.0003434454    
0.0814313490    0.0192036430    0.0003412397    
0.0816540100    0.0196414420    0.0003443219    
0.0818766710    0.0202102710    0.0003500697    
0.0820993320    0.0190793930    0.0003395146    
0.0823219930    0.0197122430    0.0003465228    
0.0825446540    0.0197630330    0.0003444480    
0.0827673150    0.0190778480    0.0003361507    
0.0829899760    0.0195529570    0.0003397048    
0.0832126370    0.0191985230    0.0003381196    
0.0834352980    0.0192728300    0.0003380158    
0.0836579590    0.0194940250    0.0003391933    
0.0838806200    0.0195805850    0.0003410093    
0.0841032810    0.0196197770    0.0003392314    
0.0843259420    0.0190968980    0.0003336498    
0.0845486030    0.0196798610    0.0003387044    
0.0847712640    0.0194061740    0.0003342912    
0.0849939250    0.0195200500    0.0003358544    
0.0852165860    0.0188875630    0.0003308012    
0.0854392470    0.0191738780    0.0003301428    
0.0856619080    0.0202130290    0.0003414675    
0.0858845690    0.0196579570    0.0003337134    
0.0861072300    0.0187988150    0.0003285924    
0.0863298910    0.0199596570    0.0003403588    
0.0865525520    0.0193711650    0.0003324083    
0.0867752130    0.0197725930    0.0003331250    
0.0869978740    0.0192924740    0.0003298943    
0.0872205350    0.0195753900    0.0003318816    
0.0874431960    0.0196091810    0.0003321682    
0.0876658570    0.0202023140    0.0003384490    
0.0878885180    0.0189573780    0.0003284171    
0.0881111790    0.0195670450    0.0003332281    
0.0883338400    0.0196429280    0.0003289853    
0.0885565010    0.0196245680    0.0003332907    
0.0887791620    0.0196041730    0.0003287977    
0.0890018230    0.0197783050    0.0003334580    
0.0892244840    0.0190389230    0.0003277219    
0.0894471450    0.0197901800    0.0003327138    
0.0896698060    0.0193358320    0.0003276319    
0.0898924670    0.0195659310    0.0003311032    
0.0901151280    0.0190632970    0.0003232925    
0.0903377890    0.0200861490    0.0003346298    
0.0905604500    0.0194492610    0.0003277707    
0.0907831110    0.0192481790    0.0003252607    
0.0910057720    0.0195139930    0.0003290018    
0.0912284330    0.0188406360    0.0003186470    
0.0914510940    0.0189270600    0.0003229385    
0.0916737550    0.0190196510    0.0003229240    
0.0918964160    0.0192113490    0.0003258971    
0.0921190770    0.0195386990    0.0003256902    
0.0923417380    0.0194460660    0.0003250505    
0.0925643990    0.0197565190    0.0003268332    
0.0927870600    0.0197771570    0.0003283449    
0.0930097210    0.0197257290    0.0003251248    
0.0932323820    0.0195600160    0.0003261362    
