# Diamond Light Source Ltd.
# Data extracted from: /dls/b21/data/2018/cm19678-3/processed/b21-386631_00746.dat
q(1/A)          Column          Error           
0.0035000000    2.0277675000    0.0241795290    
0.0037226610    1.8623189000    0.0226842330    
0.0039453220    1.6144036000    0.0192136450    
0.0041679830    1.2761596000    0.0140288150    
0.0043906440    0.9711479600    0.0117056760    
0.0046133050    0.7705432100    0.0100095870    
0.0048359660    0.5694864600    0.0081396748    
0.0050586270    0.4721785600    0.0072850062    
0.0052812880    0.4259171400    0.0065417419    
0.0055039490    0.3716313100    0.0058102866    
0.0057266100    0.3101458300    0.0051349774    
0.0059492710    0.2738431600    0.0048251024    
0.0061719320    0.2218364200    0.0041848480    
0.0063945930    0.1951413600    0.0039725619    
0.0066172539    0.1825420500    0.0036078041    
0.0068399149    0.1642655800    0.0033685318    
0.0070625759    0.1425076900    0.0031053398    
0.0072852369    0.1252089600    0.0028672136    
0.0075078979    0.1157896900    0.0027437082    
0.0077305589    0.1000342700    0.0025016385    
0.0079532199    0.0897978850    0.0023373456    
0.0081758809    0.0909805560    0.0023745732    
0.0083985419    0.0817874830    0.0020998780    
0.0086212029    0.0787144000    0.0020600500    
0.0088438639    0.0702930480    0.0019310986    
0.0090665249    0.0656213720    0.0018020778    
0.0092891859    0.0579036340    0.0017668663    
0.0095118469    0.0565416050    0.0016790422    
0.0097345079    0.0586481250    0.0016608137    
0.0099571689    0.0546754240    0.0015705105    
0.0101798300    0.0507056000    0.0015124213    
0.0104024910    0.0474505530    0.0014581201    
0.0106251520    0.0452922070    0.0014294094    
0.0108478130    0.0446231060    0.0013817124    
0.0110704740    0.0438993000    0.0013047712    
0.0112931350    0.0414659580    0.0012718183    
0.0115157960    0.0415235720    0.0012652806    
0.0117384570    0.0378560230    0.0011977116    
0.0119611180    0.0381117060    0.0012051980    
0.0121837790    0.0374676250    0.0011748859    
0.0124064400    0.0359654100    0.0011031089    
0.0126291010    0.0341469730    0.0010614072    
0.0128517620    0.0331572130    0.0010485231    
0.0130744230    0.0323405410    0.0010278499    
0.0132970840    0.0309251810    0.0010001918    
0.0135197450    0.0304543710    0.0009783354    
0.0137424060    0.0316903800    0.0009840974    
0.0139650670    0.0310538850    0.0009524656    
0.0141877280    0.0292546810    0.0009265050    
0.0144103890    0.0311735010    0.0009399164    
0.0146330500    0.0310587160    0.0009322277    
0.0148557110    0.0304381110    0.0009189976    
0.0150783720    0.0284361330    0.0008809204    
0.0153010330    0.0283826520    0.0008676830    
0.0155236940    0.0272073450    0.0008444763    
0.0157463550    0.0277407830    0.0008379410    
0.0159690160    0.0255462170    0.0008010620    
0.0161916770    0.0267494060    0.0008150914    
0.0164143380    0.0259963720    0.0008096241    
0.0166369990    0.0251285430    0.0007714532    
0.0168596600    0.0252461380    0.0007664434    
0.0170823210    0.0239876500    0.0007406277    
0.0173049820    0.0243919080    0.0007481336    
0.0175276430    0.0252371170    0.0007690098    
0.0177503040    0.0239222930    0.0007296231    
0.0179729650    0.0246935530    0.0007339397    
0.0181956260    0.0238817460    0.0007079375    
0.0184182870    0.0240313510    0.0007068044    
0.0186409480    0.0237049480    0.0007064311    
0.0188636090    0.0231998310    0.0006944688    
0.0190862700    0.0226714250    0.0006854411    
0.0193089310    0.0230139820    0.0006895237    
0.0195315920    0.0225933660    0.0006599592    
0.0197542530    0.0234132630    0.0006728060    
0.0199769140    0.0233746030    0.0006722505    
0.0201995750    0.0229292780    0.0006553898    
0.0204222360    0.0223146480    0.0006520961    
0.0206448970    0.0239899160    0.0006713257    
0.0208675580    0.0233004010    0.0006479838    
0.0210902190    0.0227418770    0.0006463474    
0.0213128800    0.0228260100    0.0006387554    
0.0215355410    0.0214128340    0.0006112965    
0.0217582020    0.0221283490    0.0006214259    
0.0219808630    0.0214784880    0.0006114291    
0.0222035240    0.0210397230    0.0005996682    
0.0224261850    0.0217245630    0.0006039263    
0.0226488460    0.0224413780    0.0006091996    
0.0228715070    0.0216553430    0.0005969488    
0.0230941680    0.0216224410    0.0005964953    
0.0233168290    0.0217137550    0.0005992424    
0.0235394900    0.0225957780    0.0006045456    
0.0237621510    0.0215333880    0.0005742747    
0.0239848120    0.0220284160    0.0005815102    
0.0242074730    0.0214656910    0.0005694398    
0.0244301340    0.0205154330    0.0005573282    
0.0246527950    0.0212518350    0.0005724952    
0.0248754560    0.0205283700    0.0005500205    
0.0250981170    0.0204275900    0.0005498922    
0.0253207780    0.0218451670    0.0005516738    
0.0255434390    0.0205777950    0.0005411463    
0.0257661000    0.0211981220    0.0005510189    
0.0259887610    0.0214369600    0.0005482258    
0.0262114220    0.0206882640    0.0005414366    
0.0264340830    0.0203359370    0.0005295027    
0.0266567440    0.0215424440    0.0005416163    
0.0268794050    0.0212048800    0.0005351629    
0.0271020660    0.0206852120    0.0005264248    
0.0273247270    0.0212316980    0.0005301302    
0.0275473880    0.0208836060    0.0005247203    
0.0277700490    0.0201032680    0.0005117805    
0.0279927100    0.0213670860    0.0005230186    
0.0282153710    0.0212004670    0.0005235082    
0.0284380320    0.0203803900    0.0005103077    
0.0286606930    0.0210377980    0.0005140352    
0.0288833540    0.0225172480    0.0005328127    
0.0291060150    0.0205995580    0.0005091357    
0.0293286760    0.0202864140    0.0004982107    
0.0295513370    0.0213074030    0.0005050339    
0.0297739980    0.0200784330    0.0004956505    
0.0299966590    0.0200249430    0.0004865356    
0.0302193200    0.0202964700    0.0004969612    
0.0304419810    0.0199682100    0.0004938332    
0.0306646420    0.0206792070    0.0004883641    
0.0308873030    0.0199292550    0.0004773560    
0.0311099640    0.0189180310    0.0004662953    
0.0313326250    0.0204907010    0.0004799141    
0.0315552860    0.0205754530    0.0004871380    
0.0317779470    0.0208423790    0.0004907146    
0.0320006080    0.0208660360    0.0004798375    
0.0322232690    0.0202733380    0.0004749535    
0.0324459300    0.0205746420    0.0004748978    
0.0326685910    0.0205942650    0.0004743410    
0.0328912520    0.0198290680    0.0004669866    
0.0331139130    0.0200771970    0.0004637867    
0.0333365740    0.0198303790    0.0004624238    
0.0335592350    0.0202547040    0.0004628513    
0.0337818960    0.0205709440    0.0004660792    
0.0340045570    0.0212425080    0.0004728738    
0.0342272170    0.0200831120    0.0004579746    
0.0344498780    0.0195056570    0.0004531301    
0.0346725390    0.0205542660    0.0004565361    
0.0348952000    0.0200760280    0.0004491383    
0.0351178610    0.0204123280    0.0004549573    
0.0353405220    0.0206487930    0.0004555004    
0.0355631830    0.0201644590    0.0004484314    
0.0357858440    0.0197555980    0.0004438620    
0.0360085050    0.0194939100    0.0004422446    
0.0362311660    0.0202772740    0.0004456813    
0.0364538270    0.0197024670    0.0004357929    
0.0366764880    0.0196642600    0.0004350543    
0.0368991490    0.0200572600    0.0004371652    
0.0371218100    0.0205679410    0.0004414290    
0.0373444710    0.0196532680    0.0004362011    
0.0375671320    0.0202524860    0.0004421561    
0.0377897930    0.0196754920    0.0004245301    
0.0380124540    0.0200159210    0.0004308736    
0.0382351150    0.0198953570    0.0004295741    
0.0384577760    0.0206777210    0.0004337135    
0.0386804370    0.0197014180    0.0004265815    
0.0389030980    0.0195224160    0.0004214235    
0.0391257590    0.0199492560    0.0004231136    
0.0393484200    0.0195923590    0.0004179005    
0.0395710810    0.0195558050    0.0004180729    
0.0397937420    0.0193860010    0.0004162540    
0.0400164030    0.0194809780    0.0004189700    
0.0402390640    0.0196498580    0.0004151790    
0.0404617250    0.0206670420    0.0004232775    
0.0406843860    0.0195979280    0.0004082016    
0.0409070470    0.0197826790    0.0004143935    
0.0411297080    0.0197933800    0.0004104956    
0.0413523690    0.0203234150    0.0004170277    
0.0415750300    0.0195648460    0.0004126466    
0.0417976910    0.0201516070    0.0004079574    
0.0420203520    0.0201452290    0.0004094254    
0.0422430130    0.0199710700    0.0004091951    
0.0424656740    0.0201651500    0.0004058270    
0.0426883350    0.0199698800    0.0004058617    
0.0429109960    0.0196466510    0.0004038215    
0.0431336570    0.0200731690    0.0004024304    
0.0433563180    0.0194770910    0.0003998299    
0.0435789790    0.0198002800    0.0003968000    
0.0438016400    0.0203298080    0.0004042582    
0.0440243010    0.0193758940    0.0003906557    
0.0442469620    0.0194015450    0.0003932566    
0.0444696230    0.0196979160    0.0003948279    
0.0446922840    0.0198171110    0.0003948446    
0.0449149450    0.0194822590    0.0003862609    
0.0451376060    0.0201469640    0.0003976460    
0.0453602670    0.0202646970    0.0003946254    
0.0455829280    0.0198728440    0.0003903395    
0.0458055890    0.0202914520    0.0003967293    
0.0460282500    0.0202062780    0.0003911218    
0.0462509110    0.0194846670    0.0003816856    
0.0464735720    0.0197312340    0.0003843099    
0.0466962330    0.0194578240    0.0003833728    
0.0469188940    0.0198433680    0.0003860548    
0.0471415550    0.0202450120    0.0003919450    
0.0473642160    0.0194533520    0.0003788257    
0.0475868770    0.0202611910    0.0003846908    
0.0478095380    0.0199611720    0.0003801611    
0.0480321990    0.0195178870    0.0003767398    
0.0482548600    0.0196581570    0.0003764439    
0.0484775210    0.0195946060    0.0003795665    
0.0487001820    0.0198889400    0.0003768088    
0.0489228430    0.0194539600    0.0003724653    
0.0491455040    0.0192209530    0.0003676674    
0.0493681650    0.0197601990    0.0003759927    
0.0495908260    0.0197370900    0.0003694504    
0.0498134870    0.0193887180    0.0003696612    
0.0500361480    0.0200784600    0.0003751836    
0.0502588090    0.0202363070    0.0003710118    
0.0504814700    0.0199171620    0.0003728864    
0.0507041310    0.0195417990    0.0003649646    
0.0509267920    0.0199443630    0.0003702299    
0.0511494530    0.0197267410    0.0003657493    
0.0513721140    0.0193648950    0.0003655706    
0.0515947750    0.0193990690    0.0003610418    
0.0518174360    0.0192656460    0.0003576308    
0.0520400970    0.0196737480    0.0003588929    
0.0522627580    0.0191306070    0.0003569118    
0.0524854190    0.0199775920    0.0003676927    
0.0527080800    0.0193190960    0.0003643816    
0.0529307410    0.0197091100    0.0003697698    
0.0531534020    0.0196898300    0.0003682433    
0.0533760630    0.0195984610    0.0003685380    
0.0535987240    0.0193678260    0.0003646526    
0.0538213850    0.0198613680    0.0003735479    
0.0540440460    0.0194580810    0.0003679861    
0.0542667070    0.0195437580    0.0003713370    
0.0544893680    0.0194092030    0.0003702537    
0.0547120290    0.0198478060    0.0003718487    
0.0549346900    0.0197152690    0.0003708001    
0.0551573510    0.0197252730    0.0003752603    
0.0553800120    0.0200440130    0.0003750642    
0.0556026730    0.0193921040    0.0003765635    
0.0558253340    0.0195992610    0.0003817394    
0.0560479950    0.0194803160    0.0003805795    
0.0562706560    0.0197830140    0.0003872329    
0.0564933170    0.0197347790    0.0003901190    
0.0567159780    0.0190912430    0.0003791051    
0.0569386390    0.0208830650    0.0004027159    
0.0571613000    0.0201124120    0.0003867056    
0.0573839610    0.0199114340    0.0003815740    
0.0576066220    0.0206394690    0.0003895626    
0.0578292830    0.0198384160    0.0003806643    
0.0580519440    0.0192932660    0.0003768532    
0.0582746050    0.0211299580    0.0003926444    
0.0584972660    0.0200489620    0.0003810048    
0.0587199270    0.0191497300    0.0003691525    
0.0589425880    0.0196578240    0.0003718301    
0.0591652490    0.0199752530    0.0003770258    
0.0593879100    0.0197147120    0.0003717772    
0.0596105710    0.0192113950    0.0003666137    
0.0598332320    0.0192352260    0.0003699766    
0.0600558930    0.0198970590    0.0003738886    
0.0602785540    0.0194203350    0.0003689919    
0.0605012150    0.0188429040    0.0003626990    
0.0607238760    0.0196838410    0.0003680026    
0.0609465370    0.0199320880    0.0003732313    
0.0611691980    0.0199111880    0.0003736268    
0.0613918590    0.0197120020    0.0003676947    
0.0616145200    0.0191734210    0.0003652909    
0.0618371810    0.0203134620    0.0003723013    
0.0620598420    0.0189468340    0.0003599303    
0.0622825030    0.0192347370    0.0003682006    
0.0625051640    0.0199110000    0.0003693561    
0.0627278250    0.0189761470    0.0003598384    
0.0629504860    0.0191589110    0.0003586277    
0.0631731470    0.0195395960    0.0003666540    
0.0633958080    0.0196677200    0.0003699712    
0.0636184690    0.0199403370    0.0003777148    
0.0638411300    0.0193080350    0.0003702827    
0.0640637910    0.0192565290    0.0003723894    
0.0642864520    0.0195461330    0.0003743673    
0.0645091130    0.0199777600    0.0003817949    
0.0647317740    0.0193271410    0.0003759404    
0.0649544350    0.0201091430    0.0003830487    
0.0651770960    0.0192624620    0.0003728529    
0.0653997570    0.0194305110    0.0003736637    
0.0656224180    0.0199120480    0.0003790880    
0.0658450790    0.0189020540    0.0003640399    
0.0660677400    0.0191905650    0.0003683688    
0.0662904010    0.0198035540    0.0003786731    
0.0665130620    0.0194024180    0.0003731924    
0.0667357230    0.0189311000    0.0003751860    
0.0669583840    0.0190114400    0.0003747233    
0.0671810450    0.0195690700    0.0003780801    
0.0674037060    0.0190290670    0.0003791433    
0.0676263670    0.0195256250    0.0003812465    
0.0678490280    0.0198904960    0.0003824388    
0.0680716890    0.0198461720    0.0003828626    
0.0682943500    0.0193415660    0.0003738242    
0.0685170110    0.0191051190    0.0003677463    
0.0687396720    0.0198909050    0.0003742358    
0.0689623330    0.0189744360    0.0003643544    
0.0691849940    0.0194298070    0.0003712551    
0.0694076550    0.0195720550    0.0003724128    
0.0696303160    0.0192145500    0.0003660744    
0.0698529770    0.0197938900    0.0003707735    
0.0700756380    0.0199590060    0.0003675374    
0.0702982990    0.0196422160    0.0003685796    
0.0705209600    0.0196936400    0.0003663973    
0.0707436210    0.0201143060    0.0003685893    
0.0709662820    0.0197391180    0.0003694884    
0.0711889430    0.0198105010    0.0003656095    
0.0714116040    0.0200811690    0.0003688501    
0.0716342650    0.0202006740    0.0003684439    
0.0718569260    0.0197849710    0.0003631646    
0.0720795870    0.0197034360    0.0003638815    
0.0723022480    0.0196422010    0.0003638693    
0.0725249090    0.0201615770    0.0003642337    
0.0727475700    0.0197109910    0.0003632167    
0.0729702310    0.0197337550    0.0003605278    
0.0731928920    0.0198918090    0.0003634154    
0.0734155530    0.0196141150    0.0003601498    
0.0736382140    0.0197679320    0.0003592389    
0.0738608750    0.0192239990    0.0003565507    
0.0740835360    0.0198195890    0.0003611330    
0.0743061970    0.0190031100    0.0003486369    
0.0745288580    0.0191935360    0.0003539821    
0.0747515190    0.0199314020    0.0003614345    
0.0749741800    0.0196992200    0.0003559971    
0.0751968410    0.0190491500    0.0003528225    
0.0754195020    0.0196403690    0.0003561570    
0.0756421630    0.0195238890    0.0003521965    
0.0758648240    0.0193752800    0.0003516970    
0.0760874850    0.0194523440    0.0003522265    
0.0763101460    0.0200452270    0.0003572109    
0.0765328070    0.0189893320    0.0003512330    
0.0767554680    0.0189119390    0.0003481380    
0.0769781290    0.0194174220    0.0003507328    
0.0772007900    0.0195373540    0.0003489926    
0.0774234510    0.0195521720    0.0003511108    
0.0776461120    0.0200940690    0.0003556055    
0.0778687730    0.0199177640    0.0003528724    
0.0780914340    0.0193790480    0.0003505547    
0.0783140950    0.0190822200    0.0003423405    
0.0785367560    0.0201907930    0.0003578218    
0.0787594170    0.0195254270    0.0003487239    
0.0789820780    0.0181792390    0.0003347637    
0.0792047390    0.0198495360    0.0003509484    
0.0794274000    0.0195988380    0.0003502027    
0.0796500610    0.0197212850    0.0003478662    
0.0798727220    0.0194092810    0.0003447850    
0.0800953830    0.0196859070    0.0003464347    
0.0803180440    0.0194727700    0.0003469544    
0.0805407050    0.0192884810    0.0003449876    
0.0807633660    0.0198131480    0.0003493236    
0.0809860270    0.0200644650    0.0003502340    
0.0812086880    0.0194127590    0.0003415221    
0.0814313490    0.0198509530    0.0003469301    
0.0816540100    0.0193321380    0.0003415871    
0.0818766710    0.0190203490    0.0003395949    
0.0820993320    0.0195672820    0.0003438152    
0.0823219930    0.0191564620    0.0003415899    
0.0825446540    0.0193113200    0.0003404759    
0.0827673150    0.0197574930    0.0003420730    
0.0829899760    0.0191914890    0.0003365375    
0.0832126370    0.0196912870    0.0003424183    
0.0834352980    0.0193840000    0.0003389764    
0.0836579590    0.0198289330    0.0003420816    
0.0838806200    0.0191871650    0.0003375533    
0.0841032810    0.0195127220    0.0003382918    
0.0843259420    0.0189555590    0.0003324002    
0.0845486030    0.0190197050    0.0003329624    
0.0847712640    0.0199689960    0.0003390913    
0.0849939250    0.0190389860    0.0003316776    
0.0852165860    0.0206646740    0.0003460007    
0.0854392470    0.0199397780    0.0003366592    
0.0856619080    0.0201711220    0.0003411004    
0.0858845690    0.0201606260    0.0003379403    
0.0861072300    0.0190098890    0.0003304194    
0.0863298910    0.0196331510    0.0003375507    
0.0865525520    0.0194609580    0.0003331652    
0.0867752130    0.0193221350    0.0003292961    
0.0869978740    0.0197591870    0.0003338482    
0.0872205350    0.0193488560    0.0003299432    
0.0874431960    0.0193488860    0.0003299437    
0.0876658570    0.0197302080    0.0003344583    
0.0878885180    0.0198036130    0.0003356544    
0.0881111790    0.0193385850    0.0003312645    
0.0883338400    0.0198673310    0.0003308466    
0.0885565010    0.0198608000    0.0003352780    
0.0887791620    0.0197295140    0.0003298346    
0.0890018230    0.0195575660    0.0003315794    
0.0892244840    0.0192800330    0.0003297781    
0.0894471450    0.0191902110    0.0003276192    
0.0896698060    0.0189457940    0.0003242983    
0.0898924670    0.0189033370    0.0003254363    
0.0901151280    0.0192208390    0.0003246134    
0.0903377890    0.0193711030    0.0003286071    
0.0905604500    0.0196797700    0.0003296948    
0.0907831110    0.0191422990    0.0003243526    
0.0910057720    0.0194182250    0.0003281810    
0.0912284330    0.0190817050    0.0003206670    
0.0914510940    0.0200000070    0.0003319532    
0.0916737550    0.0195554790    0.0003274288    
0.0918964160    0.0196963620    0.0003299728    
0.0921190770    0.0191192250    0.0003221630    
0.0923417380    0.0195586860    0.0003259781    
0.0925643990    0.0191657250    0.0003218971    
0.0927870600    0.0190343450    0.0003221075    
0.0930097210    0.0191401710    0.0003202507    
0.0932323820    0.0198739080    0.0003287302    
