# Diamond Light Source Ltd.
# Data extracted from: /dls/b21/data/2018/cm19678-3/processed/b21-386631_00748.dat
q(1/A)          Column          Error           
0.0035000000    2.0959331000    0.0245849850    
0.0037226610    1.8239925000    0.0224517950    
0.0039453220    1.5859015000    0.0190451460    
0.0041679830    1.2680799000    0.0139857020    
0.0043906440    0.9570847000    0.0116217490    
0.0046133050    0.7859101600    0.0101098940    
0.0048359660    0.5929868800    0.0083067354    
0.0050586270    0.4514734800    0.0071241884    
0.0052812880    0.4220811400    0.0065128534    
0.0055039490    0.3666159100    0.0057715112    
0.0057266100    0.3129276200    0.0051584590    
0.0059492710    0.2675191300    0.0047695289    
0.0061719320    0.2203795700    0.0041714919    
0.0063945930    0.2011651500    0.0040338046    
0.0066172539    0.1846460300    0.0036288912    
0.0068399149    0.1607740900    0.0033328662    
0.0070625759    0.1463933700    0.0031476987    
0.0072852369    0.1213589000    0.0028230635    
0.0075078979    0.1145768400    0.0027295677    
0.0077305589    0.0976134990    0.0024714258    
0.0079532199    0.1027766300    0.0025008033    
0.0081758809    0.0929819710    0.0024007842    
0.0083985419    0.0824505780    0.0021085794    
0.0086212029    0.0751168570    0.0020126203    
0.0088438639    0.0694578130    0.0019197792    
0.0090665249    0.0631593150    0.0017681214    
0.0092891859    0.0627681710    0.0018397677    
0.0095118469    0.0602430530    0.0017332991    
0.0097345079    0.0564957330    0.0016302122    
0.0099571689    0.0519337660    0.0015307778    
0.0101798300    0.0523398610    0.0015367512    
0.0104024910    0.0481320720    0.0014686977    
0.0106251520    0.0455266710    0.0014332446    
0.0108478130    0.0460011740    0.0014030226    
0.0110704740    0.0457309190    0.0013318430    
0.0112931350    0.0407717820    0.0012612511    
0.0115157960    0.0414160090    0.0012637644    
0.0117384570    0.0389246660    0.0012146179    
0.0119611180    0.0361750850    0.0011742929    
0.0121837790    0.0378434410    0.0011808790    
0.0124064400    0.0351264340    0.0010902733    
0.0126291010    0.0339556610    0.0010585332    
0.0128517620    0.0352198500    0.0010807500    
0.0130744230    0.0344706520    0.0010612636    
0.0132970840    0.0318695220    0.0010154474    
0.0135197450    0.0303660250    0.0009770108    
0.0137424060    0.0323690240    0.0009946760    
0.0139650670    0.0320826310    0.0009682083    
0.0141877280    0.0301995540    0.0009414404    
0.0144103890    0.0292804790    0.0009110202    
0.0146330500    0.0297774230    0.0009128855    
0.0148557110    0.0281683930    0.0008841563    
0.0150783720    0.0275682470    0.0008674580    
0.0153010330    0.0276983980    0.0008572439    
0.0155236940    0.0260853610    0.0008269615    
0.0157463550    0.0271639450    0.0008292643    
0.0159690160    0.0268074200    0.0008206780    
0.0161916770    0.0264316950    0.0008103156    
0.0164143380    0.0255727240    0.0008030785    
0.0166369990    0.0249913280    0.0007694194    
0.0168596600    0.0248554380    0.0007605641    
0.0170823210    0.0247699780    0.0007526818    
0.0173049820    0.0228360270    0.0007239507    
0.0175276430    0.0233201900    0.0007392997    
0.0177503040    0.0242163230    0.0007341651    
0.0179729650    0.0227347320    0.0007042972    
0.0181956260    0.0227949470    0.0006917094    
0.0184182870    0.0238281280    0.0007038784    
0.0186409480    0.0227620450    0.0006923065    
0.0188636090    0.0241816150    0.0007090803    
0.0190862700    0.0227794970    0.0006871401    
0.0193089310    0.0226465520    0.0006840641    
0.0195315920    0.0229448510    0.0006651380    
0.0197542530    0.0227603650    0.0006634237    
0.0199769140    0.0230697740    0.0006679180    
0.0201995750    0.0224091350    0.0006479769    
0.0204222360    0.0227383290    0.0006583219    
0.0206448970    0.0217962000    0.0006399585    
0.0208675580    0.0230886730    0.0006450961    
0.0210902190    0.0227463260    0.0006464738    
0.0213128800    0.0207387250    0.0006089099    
0.0215355410    0.0215741160    0.0006136543    
0.0217582020    0.0226388670    0.0006286149    
0.0219808630    0.0220223690    0.0006191826    
0.0222035240    0.0225652870    0.0006210891    
0.0224261850    0.0213258060    0.0005984165    
0.0226488460    0.0218172210    0.0006007268    
0.0228715070    0.0212810310    0.0005918251    
0.0230941680    0.0209518660    0.0005872304    
0.0233168290    0.0204443650    0.0005815196    
0.0235394900    0.0213706960    0.0005879864    
0.0237621510    0.0203734060    0.0005586474    
0.0239848120    0.0197757150    0.0005510288    
0.0242074730    0.0205482410    0.0005571924    
0.0244301340    0.0213826260    0.0005690412    
0.0246527950    0.0209012120    0.0005678084    
0.0248754560    0.0212988500    0.0005603021    
0.0250981170    0.0207128910    0.0005537731    
0.0253207780    0.0212363180    0.0005439848    
0.0255434390    0.0208237920    0.0005444245    
0.0257661000    0.0218326060    0.0005592592    
0.0259887610    0.0213009240    0.0005465370    
0.0262114220    0.0213300880    0.0005498249    
0.0264340830    0.0219119500    0.0005496916    
0.0266567440    0.0206205070    0.0005299518    
0.0268794050    0.0212225380    0.0005354380    
0.0271020660    0.0211716510    0.0005326307    
0.0273247270    0.0204017750    0.0005197167    
0.0275473880    0.0209272520    0.0005253198    
0.0277700490    0.0203678250    0.0005151873    
0.0279927100    0.0205901720    0.0005134722    
0.0282153710    0.0207650070    0.0005181545    
0.0284380320    0.0200009720    0.0005055847    
0.0286606930    0.0209414150    0.0005129065    
0.0288833540    0.0204662060    0.0005080168    
0.0291060150    0.0204651390    0.0005075215    
0.0293286760    0.0206819950    0.0005030939    
0.0295513370    0.0208206870    0.0004992813    
0.0297739980    0.0204250210    0.0004999589    
0.0299966590    0.0202771520    0.0004896378    
0.0302193200    0.0202882710    0.0004969094    
0.0304419810    0.0204240850    0.0004994873    
0.0306646420    0.0214792060    0.0004977696    
0.0308873030    0.0203334180    0.0004822192    
0.0311099640    0.0204276540    0.0004845904    
0.0313326250    0.0196290530    0.0004697613    
0.0315552860    0.0207755840    0.0004895492    
0.0317779470    0.0204073400    0.0004856138    
0.0320006080    0.0206935330    0.0004778967    
0.0322232690    0.0200547210    0.0004724319    
0.0324459300    0.0205238490    0.0004743576    
0.0326685910    0.0198880080    0.0004661821    
0.0328912520    0.0201299470    0.0004705622    
0.0331139130    0.0204025950    0.0004675757    
0.0333365740    0.0203627410    0.0004686356    
0.0335592350    0.0200576670    0.0004606396    
0.0337818960    0.0203531650    0.0004636509    
0.0340045570    0.0203306780    0.0004626587    
0.0342272170    0.0204421940    0.0004620959    
0.0344498780    0.0203833460    0.0004632579    
0.0346725390    0.0196759140    0.0004467186    
0.0348952000    0.0193664040    0.0004411722    
0.0351178610    0.0195846580    0.0004456818    
0.0353405220    0.0201101310    0.0004495638    
0.0355631830    0.0201883530    0.0004487409    
0.0357858440    0.0206471920    0.0004538118    
0.0360085050    0.0204610700    0.0004531268    
0.0362311660    0.0198403440    0.0004408965    
0.0364538270    0.0200437590    0.0004395942    
0.0366764880    0.0198413940    0.0004370521    
0.0368991490    0.0194512480    0.0004305524    
0.0371218100    0.0196717630    0.0004317473    
0.0373444710    0.0207997430    0.0004487876    
0.0375671320    0.0203143790    0.0004428745    
0.0377897930    0.0201740730    0.0004299173    
0.0380124540    0.0192591200    0.0004226908    
0.0382351150    0.0198343100    0.0004289565    
0.0384577760    0.0197991750    0.0004244413    
0.0386804370    0.0199916590    0.0004297543    
0.0389030980    0.0192441690    0.0004184504    
0.0391257590    0.0196120790    0.0004195637    
0.0393484200    0.0197834170    0.0004199742    
0.0395710810    0.0205429760    0.0004285370    
0.0397937420    0.0202032890    0.0004249794    
0.0400164030    0.0196470130    0.0004207928    
0.0402390640    0.0202942020    0.0004219725    
0.0404617250    0.0200207790    0.0004166477    
0.0406843860    0.0197973540    0.0004103134    
0.0409070470    0.0200817410    0.0004175549    
0.0411297080    0.0197376470    0.0004099573    
0.0413523690    0.0198823280    0.0004125177    
0.0415750300    0.0199429850    0.0004166560    
0.0417976910    0.0194699310    0.0004010372    
0.0420203520    0.0195166470    0.0004030267    
0.0422430130    0.0199582060    0.0004091033    
0.0424656740    0.0194992420    0.0003991090    
0.0426883350    0.0191157640    0.0003971263    
0.0429109960    0.0201901150    0.0004094086    
0.0431336570    0.0194638090    0.0003963138    
0.0433563180    0.0197025550    0.0004021767    
0.0435789790    0.0200666190    0.0003994989    
0.0438016400    0.0197790080    0.0003987833    
0.0440243010    0.0196160220    0.0003931074    
0.0442469620    0.0203939450    0.0004032283    
0.0444696230    0.0190052030    0.0003878613    
0.0446922840    0.0196557480    0.0003932723    
0.0449149450    0.0197618170    0.0003890604    
0.0451376060    0.0192481570    0.0003887129    
0.0453602670    0.0194308600    0.0003864591    
0.0455829280    0.0198307210    0.0003899638    
0.0458055890    0.0198454470    0.0003923834    
0.0460282500    0.0197483260    0.0003867021    
0.0462509110    0.0198923080    0.0003856953    
0.0464735720    0.0197875020    0.0003848951    
0.0466962330    0.0204513330    0.0003930769    
0.0469188940    0.0201477390    0.0003890424    
0.0471415550    0.0198087780    0.0003877372    
0.0473642160    0.0194571580    0.0003788998    
0.0475868770    0.0197830000    0.0003801612    
0.0478095380    0.0201895660    0.0003823672    
0.0480321990    0.0197980930    0.0003794716    
0.0482548600    0.0195826920    0.0003757574    
0.0484775210    0.0193116330    0.0003768527    
0.0487001820    0.0194144320    0.0003723232    
0.0489228430    0.0197716010    0.0003755305    
0.0491455040    0.0200547600    0.0003755942    
0.0493681650    0.0193132550    0.0003717526    
0.0495908260    0.0197271170    0.0003693932    
0.0498134870    0.0194348070    0.0003701365    
0.0500361480    0.0193811870    0.0003686476    
0.0502588090    0.0196279550    0.0003654283    
0.0504814700    0.0193694420    0.0003677595    
0.0507041310    0.0202750890    0.0003717854    
0.0509267920    0.0195908190    0.0003669697    
0.0511494530    0.0203206870    0.0003712509    
0.0513721140    0.0191132870    0.0003632235    
0.0515947750    0.0197657860    0.0003644740    
0.0518174360    0.0197142980    0.0003618064    
0.0520400970    0.0198085620    0.0003601557    
0.0522627580    0.0192342510    0.0003579124    
0.0524854190    0.0196024480    0.0003642596    
0.0527080800    0.0193916160    0.0003651005    
0.0529307410    0.0192758250    0.0003657184    
0.0531534020    0.0195696920    0.0003671541    
0.0533760630    0.0200736370    0.0003730154    
0.0535987240    0.0196737600    0.0003675573    
0.0538213850    0.0198933610    0.0003738852    
0.0540440460    0.0192948330    0.0003664751    
0.0542667070    0.0195828660    0.0003717447    
0.0544893680    0.0201547640    0.0003773348    
0.0547120290    0.0200746630    0.0003740043    
0.0549346900    0.0193215350    0.0003671147    
0.0551573510    0.0194006700    0.0003721962    
0.0553800120    0.0195144460    0.0003701125    
0.0556026730    0.0196884460    0.0003794669    
0.0558253340    0.0195882220    0.0003816692    
0.0560479950    0.0189115020    0.0003750186    
0.0562706560    0.0195746110    0.0003852255    
0.0564933170    0.0196306520    0.0003891265    
0.0567159780    0.0194187490    0.0003823804    
0.0569386390    0.0190306880    0.0003844779    
0.0571613000    0.0199973590    0.0003856357    
0.0573839610    0.0201932520    0.0003843024    
0.0576066220    0.0192020650    0.0003757894    
0.0578292830    0.0199153550    0.0003814390    
0.0580519440    0.0196946140    0.0003807900    
0.0582746050    0.0189010010    0.0003713940    
0.0584972660    0.0194228370    0.0003750449    
0.0587199270    0.0193598870    0.0003712089    
0.0589425880    0.0200696760    0.0003757418    
0.0591652490    0.0201926890    0.0003791093    
0.0593879100    0.0202094290    0.0003764498    
0.0596105710    0.0194390740    0.0003688157    
0.0598332320    0.0193813420    0.0003714155    
0.0600558930    0.0195425660    0.0003705792    
0.0602785540    0.0201814650    0.0003761900    
0.0605012150    0.0192655580    0.0003667801    
0.0607238760    0.0193505030    0.0003649090    
0.0609465370    0.0191600780    0.0003659677    
0.0611691980    0.0198169100    0.0003727776    
0.0613918590    0.0199559600    0.0003699992    
0.0616145200    0.0192467810    0.0003660248    
0.0618371810    0.0198328760    0.0003679069    
0.0620598420    0.0194497800    0.0003647119    
0.0622825030    0.0198095220    0.0003736981    
0.0625051640    0.0189486190    0.0003603545    
0.0627278250    0.0191846040    0.0003618449    
0.0629504860    0.0195185180    0.0003620131    
0.0631731470    0.0190685970    0.0003622434    
0.0633958080    0.0195462720    0.0003688632    
0.0636184690    0.0199943310    0.0003782628    
0.0638411300    0.0195532990    0.0003726636    
0.0640637910    0.0195051920    0.0003748227    
0.0642864520    0.0190837990    0.0003699495    
0.0645091130    0.0199232850    0.0003813113    
0.0647317740    0.0189286520    0.0003720810    
0.0649544350    0.0203028230    0.0003849266    
0.0651770960    0.0189413970    0.0003697687    
0.0653997570    0.0193911890    0.0003733219    
0.0656224180    0.0195983280    0.0003761266    
0.0658450790    0.0199646420    0.0003741690    
0.0660677400    0.0192013920    0.0003685087    
0.0662904010    0.0189745740    0.0003706990    
0.0665130620    0.0193846760    0.0003730583    
0.0667357230    0.0188381210    0.0003743001    
0.0669583840    0.0196061510    0.0003805764    
0.0671810450    0.0201646890    0.0003838283    
0.0674037060    0.0197354700    0.0003861543    
0.0676263670    0.0196039000    0.0003820472    
0.0678490280    0.0200341270    0.0003838547    
0.0680716890    0.0195988810    0.0003805070    
0.0682943500    0.0198295250    0.0003785474    
0.0685170110    0.0200080140    0.0003763725    
0.0687396720    0.0201553660    0.0003767523    
0.0689623330    0.0189501570    0.0003641568    
0.0691849940    0.0198380310    0.0003751716    
0.0694076550    0.0194766580    0.0003715404    
0.0696303160    0.0199647190    0.0003731886    
0.0698529770    0.0194851660    0.0003679067    
0.0700756380    0.0197733680    0.0003658600    
0.0702982990    0.0197567410    0.0003696887    
0.0705209600    0.0197452200    0.0003669127    
0.0707436210    0.0196926370    0.0003647410    
0.0709662820    0.0189474500    0.0003620385    
0.0711889430    0.0192272340    0.0003602223    
0.0714116040    0.0196378590    0.0003647917    
0.0716342650    0.0191762470    0.0003590151    
0.0718569260    0.0191754410    0.0003575616    
0.0720795870    0.0201441850    0.0003679648    
0.0723022480    0.0200033670    0.0003672352    
0.0725249090    0.0195205400    0.0003584316    
0.0727475700    0.0197684020    0.0003637809    
0.0729702310    0.0199945470    0.0003629378    
0.0731928920    0.0192515470    0.0003575539    
0.0734155530    0.0196047240    0.0003600988    
0.0736382140    0.0191057750    0.0003532055    
0.0738608750    0.0190690170    0.0003551452    
0.0740835360    0.0196523480    0.0003596413    
0.0743061970    0.0192627260    0.0003510447    
0.0745288580    0.0186161480    0.0003486512    
0.0747515190    0.0194764160    0.0003573203    
0.0749741800    0.0197288130    0.0003562992    
0.0751968410    0.0194385100    0.0003564450    
0.0754195020    0.0199672010    0.0003591432    
0.0756421630    0.0196230270    0.0003531241    
0.0758648240    0.0192960630    0.0003510116    
0.0760874850    0.0193987380    0.0003517752    
0.0763101460    0.0193997310    0.0003514467    
0.0765328070    0.0195648530    0.0003565506    
0.0767554680    0.0202296700    0.0003600976    
0.0769781290    0.0195035950    0.0003515445    
0.0772007900    0.0194912950    0.0003486151    
0.0774234510    0.0193794190    0.0003495904    
0.0776461120    0.0194119110    0.0003495515    
0.0778687730    0.0191775680    0.0003462874    
0.0780914340    0.0193447840    0.0003502789    
0.0783140950    0.0195466690    0.0003465155    
0.0785367560    0.0196809940    0.0003533102    
0.0787594170    0.0192053160    0.0003458874    
0.0789820780    0.0197365650    0.0003488420    
0.0792047390    0.0196175860    0.0003489260    
0.0794274000    0.0193335420    0.0003478584    
0.0796500610    0.0196576340    0.0003473384    
0.0798727220    0.0198418930    0.0003486403    
0.0800953830    0.0194763360    0.0003446195    
0.0803180440    0.0194394810    0.0003466917    
0.0805407050    0.0193354550    0.0003454413    
0.0807633660    0.0198416650    0.0003496091    
0.0809860270    0.0194813810    0.0003451412    
0.0812086880    0.0196268880    0.0003434341    
0.0814313490    0.0197638710    0.0003462022    
0.0816540100    0.0196800190    0.0003446805    
0.0818766710    0.0201399220    0.0003494808    
0.0820993320    0.0195106870    0.0003433512    
0.0823219930    0.0192820550    0.0003427413    
0.0825446540    0.0196693380    0.0003436511    
0.0827673150    0.0199094500    0.0003434195    
0.0829899760    0.0193546140    0.0003379978    
0.0832126370    0.0201477640    0.0003463984    
0.0834352980    0.0199095430    0.0003435745    
0.0836579590    0.0197619810    0.0003415370    
0.0838806200    0.0196304510    0.0003414637    
0.0841032810    0.0192936280    0.0003364201    
0.0843259420    0.0193557100    0.0003359232    
0.0845486030    0.0193440790    0.0003358226    
0.0847712640    0.0197310170    0.0003370977    
0.0849939250    0.0196957690    0.0003373830    
0.0852165860    0.0189477720    0.0003313480    
0.0854392470    0.0198584010    0.0003360044    
0.0856619080    0.0200366060    0.0003399944    
0.0858845690    0.0190087480    0.0003281763    
0.0861072300    0.0199269510    0.0003383286    
0.0863298910    0.0194222220    0.0003357654    
0.0865525520    0.0198869200    0.0003368246    
0.0867752130    0.0194381780    0.0003303158    
0.0869978740    0.0201128410    0.0003368555    
0.0872205350    0.0194089160    0.0003304872    
0.0874431960    0.0198141200    0.0003339195    
0.0876658570    0.0192520570    0.0003304131    
0.0878885180    0.0195172880    0.0003332517    
0.0881111790    0.0192345320    0.0003304044    
0.0883338400    0.0194579230    0.0003274520    
0.0885565010    0.0195023780    0.0003322714    
0.0887791620    0.0189502160    0.0003232865    
0.0890018230    0.0194489370    0.0003306897    
0.0892244840    0.0195094790    0.0003317670    
0.0894471450    0.0195743770    0.0003309146    
0.0896698060    0.0191105130    0.0003257369    
0.0898924670    0.0199605400    0.0003344455    
0.0901151280    0.0196632670    0.0003283602    
0.0903377890    0.0197763300    0.0003320589    
0.0905604500    0.0196339000    0.0003293426    
0.0907831110    0.0197287260    0.0003293156    
0.0910057720    0.0195718090    0.0003295085    
0.0912284330    0.0194357790    0.0003236600    
0.0914510940    0.0191387370    0.0003247588    
0.0916737550    0.0193564190    0.0003257899    
0.0918964160    0.0190920130    0.0003249028    
0.0921190770    0.0191229660    0.0003222260    
0.0923417380    0.0196440230    0.0003267204    
0.0925643990    0.0195696270    0.0003253031    
0.0927870600    0.0191852710    0.0003234136    
0.0930097210    0.0199210340    0.0003267500    
0.0932323820    0.0191055260    0.0003223442    
