# Diamond Light Source Ltd.
# Data extracted from: /dls/b21/data/2018/cm19678-3/processed/b21-386631_00763.dat
q(1/A)          Column          Error           
0.0035000000    2.0615929000    0.0244013940    
0.0037226610    1.8738363000    0.0227738950    
0.0039453220    1.6142118000    0.0192290750    
0.0041679830    1.2795978000    0.0140598170    
0.0043906440    0.9486552400    0.0115793030    
0.0046133050    0.7716124600    0.0100251690    
0.0048359660    0.5950594400    0.0083276017    
0.0050586270    0.4620721200    0.0072128366    
0.0052812880    0.4244378700    0.0065360043    
0.0055039490    0.3866503200    0.0059316431    
0.0057266100    0.3196233600    0.0052173411    
0.0059492710    0.2629036600    0.0047318210    
0.0061719320    0.2224565000    0.0041943071    
0.0063945930    0.2017969300    0.0040432231    
0.0066172539    0.1762142100    0.0035477774    
0.0068399149    0.1693236100    0.0034229499    
0.0070625759    0.1462106200    0.0031481386    
0.0072852369    0.1233203700    0.0028479619    
0.0075078979    0.1110399300    0.0026891621    
0.0077305589    0.0985148490    0.0024847084    
0.0079532199    0.0982411910    0.0024468711    
0.0081758809    0.0911996470    0.0023794811    
0.0083985419    0.0837648650    0.0021269437    
0.0086212029    0.0744756720    0.0020055445    
0.0088438639    0.0680760670    0.0019020411    
0.0090665249    0.0633055100    0.0017715200    
0.0092891859    0.0616220320    0.0018242871    
0.0095118469    0.0556402530    0.0016670419    
0.0097345079    0.0541794200    0.0015976639    
0.0099571689    0.0529170060    0.0015463821    
0.0101798300    0.0490307100    0.0014885153    
0.0104024910    0.0470387130    0.0014530307    
0.0106251520    0.0460934030    0.0014432404    
0.0108478130    0.0453858300    0.0013946727    
0.0110704740    0.0418773080    0.0012754674    
0.0112931350    0.0429442440    0.0012954066    
0.0115157960    0.0422517940    0.0012774282    
0.0117384570    0.0406164630    0.0012416815    
0.0119611180    0.0374521040    0.0011957537    
0.0121837790    0.0366096620    0.0011623579    
0.0124064400    0.0370103520    0.0011199842    
0.0126291010    0.0352304260    0.0010790443    
0.0128517620    0.0331480050    0.0010492818    
0.0130744230    0.0344906610    0.0010623833    
0.0132970840    0.0319506800    0.0010175169    
0.0135197450    0.0306958250    0.0009830532    
0.0137424060    0.0306124100    0.0009680494    
0.0139650670    0.0307855730    0.0009491599    
0.0141877280    0.0296578870    0.0009336726    
0.0144103890    0.0292401060    0.0009110880    
0.0146330500    0.0297108590    0.0009125618    
0.0148557110    0.0294344460    0.0009044986    
0.0150783720    0.0291412950    0.0008925453    
0.0153010330    0.0278470580    0.0008601985    
0.0155236940    0.0268867060    0.0008402096    
0.0157463550    0.0254560310    0.0008033852    
0.0159690160    0.0276033060    0.0008334082    
0.0161916770    0.0270194860    0.0008199024    
0.0164143380    0.0257128770    0.0008058919    
0.0166369990    0.0258836490    0.0007836337    
0.0168596600    0.0259423440    0.0007776096    
0.0170823210    0.0255866960    0.0007655748    
0.0173049820    0.0237674110    0.0007391313    
0.0175276430    0.0238957490    0.0007489395    
0.0177503040    0.0253679540    0.0007519939    
0.0179729650    0.0241243190    0.0007260567    
0.0181956260    0.0235235420    0.0007032143    
0.0184182870    0.0250515620    0.0007222740    
0.0186409480    0.0235982360    0.0007054472    
0.0188636090    0.0223236010    0.0006818155    
0.0190862700    0.0233748430    0.0006965937    
0.0193089310    0.0219775830    0.0006744002    
0.0195315920    0.0236751430    0.0006761567    
0.0197542530    0.0225240420    0.0006604752    
0.0199769140    0.0235892460    0.0006759124    
0.0201995750    0.0221994660    0.0006454315    
0.0204222360    0.0224867790    0.0006551709    
0.0206448970    0.0228833830    0.0006562260    
0.0208675580    0.0210480690    0.0006164005    
0.0210902190    0.0226891150    0.0006461540    
0.0213128800    0.0221133680    0.0006292474    
0.0215355410    0.0224287500    0.0006261693    
0.0217582020    0.0212400170    0.0006093499    
0.0219808630    0.0215155540    0.0006124843    
0.0222035240    0.0217608750    0.0006103846    
0.0224261850    0.0202989170    0.0005842776    
0.0226488460    0.0214198790    0.0005956865    
0.0228715070    0.0207531360    0.0005848855    
0.0230941680    0.0218245940    0.0005997941    
0.0233168290    0.0209229240    0.0005887362    
0.0235394900    0.0220676880    0.0005979547    
0.0237621510    0.0221381940    0.0005827859    
0.0239848120    0.0210207750    0.0005685445    
0.0242074730    0.0212152240    0.0005665962    
0.0244301340    0.0206570030    0.0005597302    
0.0246527950    0.0211649200    0.0005718160    
0.0248754560    0.0212133350    0.0005596037    
0.0250981170    0.0211894220    0.0005605353    
0.0253207780    0.0215060560    0.0005478472    
0.0255434390    0.0205277740    0.0005409543    
0.0257661000    0.0212920950    0.0005527153    
0.0259887610    0.0208981320    0.0005417588    
0.0262114220    0.0210788290    0.0005469949    
0.0264340830    0.0209096560    0.0005373830    
0.0266567440    0.0213204470    0.0005392831    
0.0268794050    0.0208220570    0.0005307675    
0.0271020660    0.0212979810    0.0005346259    
0.0273247270    0.0205390620    0.0005218611    
0.0275473880    0.0208536110    0.0005247956    
0.0277700490    0.0206469560    0.0005191021    
0.0279927100    0.0206344950    0.0005144176    
0.0282153710    0.0212241040    0.0005242518    
0.0284380320    0.0194939810    0.0004995174    
0.0286606930    0.0203443730    0.0005059287    
0.0288833540    0.0204975150    0.0005087940    
0.0291060150    0.0206981340    0.0005107926    
0.0293286760    0.0207013770    0.0005037145    
0.0295513370    0.0207805920    0.0004991817    
0.0297739980    0.0208729920    0.0005057983    
0.0299966590    0.0204265870    0.0004918144    
0.0302193200    0.0203193070    0.0004976696    
0.0304419810    0.0195377760    0.0004889030    
0.0306646420    0.0190743390    0.0004694355    
0.0308873030    0.0205019680    0.0004845840    
0.0311099640    0.0194342320    0.0004730218    
0.0313326250    0.0200193850    0.0004747717    
0.0315552860    0.0200795120    0.0004816463    
0.0317779470    0.0203459720    0.0004852539    
0.0320006080    0.0205925490    0.0004770937    
0.0322232690    0.0198736230    0.0004706536    
0.0324459300    0.0201819140    0.0004707492    
0.0326685910    0.0200278750    0.0004681762    
0.0328912520    0.0192463470    0.0004604706    
0.0331139130    0.0207235710    0.0004715996    
0.0333365740    0.0202858730    0.0004681078    
0.0335592350    0.0202790630    0.0004635290    
0.0337818960    0.0194216800    0.0004532632    
0.0340045570    0.0197185540    0.0004559889    
0.0342272170    0.0199085370    0.0004563730    
0.0344498780    0.0203301700    0.0004630069    
0.0346725390    0.0207014720    0.0004585631    
0.0348952000    0.0201610010    0.0004504759    
0.0351178610    0.0205186590    0.0004565342    
0.0353405220    0.0198691290    0.0004472036    
0.0355631830    0.0191003860    0.0004368157    
0.0357858440    0.0193701210    0.0004398893    
0.0360085050    0.0193968980    0.0004415233    
0.0362311660    0.0204202070    0.0004476351    
0.0364538270    0.0200164870    0.0004396309    
0.0366764880    0.0199199560    0.0004382513    
0.0368991490    0.0198532520    0.0004353114    
0.0371218100    0.0195974640    0.0004312607    
0.0373444710    0.0200654110    0.0004411312    
0.0375671320    0.0200263490    0.0004400598    
0.0377897930    0.0198103790    0.0004263502    
0.0380124540    0.0199018040    0.0004300141    
0.0382351150    0.0195580420    0.0004262843    
0.0384577760    0.0200299450    0.0004272341    
0.0386804370    0.0200222420    0.0004304117    
0.0389030980    0.0198021520    0.0004247981    
0.0391257590    0.0197050080    0.0004208781    
0.0393484200    0.0207690950    0.0004306384    
0.0395710810    0.0195985060    0.0004188901    
0.0397937420    0.0198850220    0.0004219411    
0.0400164030    0.0199659060    0.0004245183    
0.0402390640    0.0202725240    0.0004220696    
0.0404617250    0.0207461280    0.0004244524    
0.0406843860    0.0197595040    0.0004102344    
0.0409070470    0.0198429050    0.0004153818    
0.0411297080    0.0202027690    0.0004150767    
0.0413523690    0.0191669810    0.0004053384    
0.0415750300    0.0201478580    0.0004191109    
0.0417976910    0.0195245350    0.0004019062    
0.0420203520    0.0197632240    0.0004058747    
0.0422430130    0.0201147170    0.0004110183    
0.0424656740    0.0194472580    0.0003988814    
0.0426883350    0.0192937390    0.0003992758    
0.0429109960    0.0201461710    0.0004092755    
0.0431336570    0.0194531750    0.0003965084    
0.0433563180    0.0203493430    0.0004090372    
0.0435789790    0.0197070000    0.0003962057    
0.0438016400    0.0197206880    0.0003984994    
0.0440243010    0.0194330010    0.0003915684    
0.0442469620    0.0201217200    0.0004008343    
0.0444696230    0.0197239820    0.0003954298    
0.0446922840    0.0203950740    0.0004009065    
0.0449149450    0.0197306780    0.0003890510    
0.0451376060    0.0200795260    0.0003973224    
0.0453602670    0.0194297930    0.0003867439    
0.0455829280    0.0198687390    0.0003906358    
0.0458055890    0.0202720790    0.0003968819    
0.0460282500    0.0198543750    0.0003880354    
0.0462509110    0.0194433950    0.0003816100    
0.0464735720    0.0200727120    0.0003879554    
0.0466962330    0.0202480570    0.0003914175    
0.0469188940    0.0194111430    0.0003821565    
0.0471415550    0.0197782710    0.0003877347    
0.0473642160    0.0195017030    0.0003796233    
0.0475868770    0.0199449620    0.0003820061    
0.0478095380    0.0193718900    0.0003748306    
0.0480321990    0.0201488970    0.0003831115    
0.0482548600    0.0195259950    0.0003754999    
0.0484775210    0.0197830920    0.0003817167    
0.0487001820    0.0191080250    0.0003696558    
0.0489228430    0.0192732270    0.0003710509    
0.0491455040    0.0198247730    0.0003737199    
0.0493681650    0.0196008000    0.0003747962    
0.0495908260    0.0196672380    0.0003691141    
0.0498134870    0.0196127990    0.0003721118    
0.0500361480    0.0194459500    0.0003695453    
0.0502588090    0.0198555840    0.0003678222    
0.0504814700    0.0192662030    0.0003670585    
0.0507041310    0.0196915970    0.0003666767    
0.0509267920    0.0195794820    0.0003671440    
0.0511494530    0.0200732610    0.0003692659    
0.0513721140    0.0195987950    0.0003680890    
0.0515947750    0.0194258150    0.0003616022    
0.0518174360    0.0199040620    0.0003638215    
0.0520400970    0.0197798410    0.0003601696    
0.0522627580    0.0194837940    0.0003605020    
0.0524854190    0.0192528030    0.0003612724    
0.0527080800    0.0197173160    0.0003684353    
0.0529307410    0.0192427690    0.0003656841    
0.0531534020    0.0197376070    0.0003690078    
0.0533760630    0.0194517880    0.0003674730    
0.0535987240    0.0202815610    0.0003734771    
0.0538213850    0.0197689640    0.0003729993    
0.0540440460    0.0198959940    0.0003724249    
0.0542667070    0.0204750810    0.0003804095    
0.0544893680    0.0191950660    0.0003685231    
0.0547120290    0.0199378870    0.0003730130    
0.0549346900    0.0199728440    0.0003735363    
0.0551573510    0.0195733770    0.0003741350    
0.0553800120    0.0204019980    0.0003787250    
0.0556026730    0.0193303460    0.0003762876    
0.0558253340    0.0197224600    0.0003832676    
0.0560479950    0.0197150320    0.0003831956    
0.0562706560    0.0198323390    0.0003880497    
0.0564933170    0.0200160430    0.0003932281    
0.0567159780    0.0189054980    0.0003775817    
0.0569386390    0.0199077670    0.0003935387    
0.0571613000    0.0193576220    0.0003797072    
0.0573839610    0.0203193670    0.0003857953    
0.0576066220    0.0200121880    0.0003839280    
0.0578292830    0.0199750880    0.0003823027    
0.0580519440    0.0192896920    0.0003771433    
0.0582746050    0.0195365500    0.0003778752    
0.0584972660    0.0195178270    0.0003762484    
0.0587199270    0.0199526550    0.0003771371    
0.0589425880    0.0198608370    0.0003740675    
0.0591652490    0.0189689620    0.0003677233    
0.0593879100    0.0194888820    0.0003699606    
0.0596105710    0.0197771730    0.0003722937    
0.0598332320    0.0198957320    0.0003765997    
0.0600558930    0.0193613240    0.0003691388    
0.0602785540    0.0195732410    0.0003707612    
0.0605012150    0.0196237250    0.0003704568    
0.0607238760    0.0196833500    0.0003683154    
0.0609465370    0.0193924140    0.0003684614    
0.0611691980    0.0195311870    0.0003703635    
0.0613918590    0.0189009390    0.0003603612    
0.0616145200    0.0197781730    0.0003713270    
0.0618371810    0.0196649940    0.0003666265    
0.0620598420    0.0197535070    0.0003678295    
0.0622825030    0.0194938650    0.0003709922    
0.0625051640    0.0199865420    0.0003703753    
0.0627278250    0.0192549640    0.0003627850    
0.0629504860    0.0191381770    0.0003587427    
0.0631731470    0.0195112880    0.0003667043    
0.0633958080    0.0194716000    0.0003684395    
0.0636184690    0.0196593950    0.0003753680    
0.0638411300    0.0192631080    0.0003701707    
0.0640637910    0.0202275580    0.0003819921    
0.0642864520    0.0196804220    0.0003759751    
0.0645091130    0.0199245270    0.0003816147    
0.0647317740    0.0196901280    0.0003797816    
0.0649544350    0.0191571190    0.0003741939    
0.0651770960    0.0202789250    0.0003828939    
0.0653997570    0.0194352500    0.0003740316    
0.0656224180    0.0205898430    0.0003858185    
0.0658450790    0.0198757890    0.0003736209    
0.0660677400    0.0198540840    0.0003750061    
0.0662904010    0.0193807720    0.0003749323    
0.0665130620    0.0193136630    0.0003726590    
0.0667357230    0.0193361930    0.0003795060    
0.0669583840    0.0203464200    0.0003879910    
0.0671810450    0.0199833370    0.0003823906    
0.0674037060    0.0192283860    0.0003814525    
0.0676263670    0.0198874230    0.0003850942    
0.0678490280    0.0188862270    0.0003729806    
0.0680716890    0.0196510600    0.0003813045    
0.0682943500    0.0200625120    0.0003810559    
0.0685170110    0.0198968060    0.0003756121    
0.0687396720    0.0190435840    0.0003664940    
0.0689623330    0.0202967540    0.0003771615    
0.0691849940    0.0196978360    0.0003741294    
0.0694076550    0.0194212720    0.0003712954    
0.0696303160    0.0197716940    0.0003716641    
0.0698529770    0.0189862260    0.0003634435    
0.0700756380    0.0201900620    0.0003699775    
0.0702982990    0.0190110050    0.0003629218    
0.0705209600    0.0195705700    0.0003655656    
0.0707436210    0.0192356140    0.0003607594    
0.0709662820    0.0200156710    0.0003723886    
0.0711889430    0.0200204250    0.0003678585    
0.0714116040    0.0197086210    0.0003657278    
0.0716342650    0.0195152410    0.0003624514    
0.0718569260    0.0196054310    0.0003618248    
0.0720795870    0.0192931440    0.0003603835    
0.0723022480    0.0197098590    0.0003648098    
0.0725249090    0.0199129360    0.0003622930    
0.0727475700    0.0192354590    0.0003591181    
0.0729702310    0.0195104850    0.0003587917    
0.0731928920    0.0191878850    0.0003572352    
0.0734155530    0.0192438760    0.0003570421    
0.0736382140    0.0194750640    0.0003568753    
0.0738608750    0.0195287760    0.0003596759    
0.0740835360    0.0192539600    0.0003562495    
0.0743061970    0.0200610620    0.0003585192    
0.0745288580    0.0196255790    0.0003582527    
0.0747515190    0.0194077280    0.0003569624    
0.0749741800    0.0193658760    0.0003532766    
0.0751968410    0.0194944320    0.0003572303    
0.0754195020    0.0194542950    0.0003547715    
0.0756421630    0.0199458050    0.0003562887    
0.0758648240    0.0191848930    0.0003502666    
0.0760874850    0.0190578620    0.0003489374    
0.0763101460    0.0196334590    0.0003538278    
0.0765328070    0.0194711350    0.0003559676    
0.0767554680    0.0195223500    0.0003540168    
0.0769781290    0.0193303550    0.0003502474    
0.0772007900    0.0197084550    0.0003508198    
0.0774234510    0.0201354050    0.0003566163    
0.0776461120    0.0194416070    0.0003500862    
0.0778687730    0.0201901090    0.0003555831    
0.0780914340    0.0196983430    0.0003537356    
0.0783140950    0.0191274550    0.0003430416    
0.0785367560    0.0190631710    0.0003479863    
0.0787594170    0.0190288110    0.0003445575    
0.0789820780    0.0191739400    0.0003440967    
0.0792047390    0.0193243840    0.0003465735    
0.0794274000    0.0196451970    0.0003509190    
0.0796500610    0.0196323860    0.0003473807    
0.0798727220    0.0195961580    0.0003467396    
0.0800953830    0.0197443080    0.0003472475    
0.0803180440    0.0188685470    0.0003418238    
0.0805407050    0.0201129340    0.0003525873    
0.0807633660    0.0197733060    0.0003492732    
0.0809860270    0.0196397880    0.0003468066    
0.0812086880    0.0195907080    0.0003433797    
0.0814313490    0.0195754530    0.0003448114    
0.0816540100    0.0195529280    0.0003438284    
0.0818766710    0.0193204150    0.0003425584    
0.0820993320    0.0192258530    0.0003410963    
0.0823219930    0.0198240870    0.0003477910    
0.0825446540    0.0190981020    0.0003388831    
0.0827673150    0.0193822300    0.0003391011    
0.0829899760    0.0200167670    0.0003439937    
0.0832126370    0.0192659870    0.0003389924    
0.0834352980    0.0192452480    0.0003380524    
0.0836579590    0.0193133690    0.0003378963    
0.0838806200    0.0191310460    0.0003373500    
0.0841032810    0.0191057650    0.0003350342    
0.0843259420    0.0198582750    0.0003405165    
0.0845486030    0.0193736710    0.0003363363    
0.0847712640    0.0192939920    0.0003335985    
0.0849939250    0.0197201110    0.0003378495    
0.0852165860    0.0193307590    0.0003349358    
0.0854392470    0.0194161870    0.0003324963    
0.0856619080    0.0191774340    0.0003328794    
0.0858845690    0.0189300120    0.0003277464    
0.0861072300    0.0190887200    0.0003313894    
0.0863298910    0.0192193940    0.0003342630    
0.0865525520    0.0194031260    0.0003329568    
0.0867752130    0.0192711550    0.0003291451    
0.0869978740    0.0194938160    0.0003318848    
0.0872205350    0.0202671010    0.0003379728    
0.0874431960    0.0196640790    0.0003329071    
0.0876658570    0.0188385170    0.0003270951    
0.0878885180    0.0196440260    0.0003345876    
0.0881111790    0.0194288010    0.0003323227    
0.0883338400    0.0195649570    0.0003286024    
0.0885565010    0.0193224320    0.0003309878    
0.0887791620    0.0198629870    0.0003312339    
0.0890018230    0.0192984880    0.0003296600    
0.0892244840    0.0198727020    0.0003350972    
0.0894471450    0.0192345350    0.0003282803    
0.0896698060    0.0198737530    0.0003324319    
0.0898924670    0.0194691300    0.0003305555    
0.0901151280    0.0196768730    0.0003287250    
0.0903377890    0.0198456720    0.0003328949    
0.0905604500    0.0191604420    0.0003255962    
0.0907831110    0.0192413990    0.0003254716    
0.0910057720    0.0192794980    0.0003272887    
0.0912284330    0.0197354150    0.0003263948    
0.0914510940    0.0190300370    0.0003240828    
0.0916737550    0.0190345560    0.0003233169    
0.0918964160    0.0198743290    0.0003317460    
0.0921190770    0.0197286350    0.0003275393    
0.0923417380    0.0195924390    0.0003265407    
0.0925643990    0.0195074960    0.0003250347    
0.0927870600    0.0197824860    0.0003286599    
0.0930097210    0.0193932750    0.0003226392    
0.0932323820    0.0196086280    0.0003268105    
