# Diamond Light Source Ltd.
# Data extracted from: /dls/b21/data/2018/cm19678-3/processed/b21-386631_00762.dat
q(1/A)          Column          Error           
0.0035000000    2.0370120000    0.0242570200    
0.0037226610    1.8223079000    0.0224600040    
0.0039453220    1.5793648000    0.0190215900    
0.0041679830    1.3049439000    0.0141992790    
0.0043906440    0.9542880800    0.0116143640    
0.0046133050    0.7711889800    0.0100230520    
0.0048359660    0.5965333800    0.0083384362    
0.0050586270    0.4646078800    0.0072330582    
0.0052812880    0.4117074900    0.0064376463    
0.0055039490    0.3837869300    0.0059100122    
0.0057266100    0.3188120300    0.0052110446    
0.0059492710    0.2650663000    0.0047515436    
0.0061719320    0.2257273900    0.0042252973    
0.0063945930    0.1967991800    0.0039930939    
0.0066172539    0.1826658900    0.0036123688    
0.0068399149    0.1685145700    0.0034149785    
0.0070625759    0.1516525400    0.0032063926    
0.0072852369    0.1287298600    0.0029099389    
0.0075078979    0.1137896100    0.0027224266    
0.0077305589    0.1027893100    0.0025382010    
0.0079532199    0.0966079300    0.0024265997    
0.0081758809    0.0914595450    0.0023830199    
0.0083985419    0.0800485050    0.0020793573    
0.0086212029    0.0760514930    0.0020267791    
0.0088438639    0.0714331050    0.0019484977    
0.0090665249    0.0670320090    0.0018230303    
0.0092891859    0.0596313130    0.0017946916    
0.0095118469    0.0583447360    0.0017071837    
0.0097345079    0.0589923600    0.0016672227    
0.0099571689    0.0544151440    0.0015682184    
0.0101798300    0.0509803100    0.0015179167    
0.0104024910    0.0491993800    0.0014861216    
0.0106251520    0.0445173970    0.0014184422    
0.0108478130    0.0461630990    0.0014066534    
0.0110704740    0.0428150560    0.0012897505    
0.0112931350    0.0390416080    0.0012352218    
0.0115157960    0.0368494610    0.0011930454    
0.0117384570    0.0395586050    0.0012254825    
0.0119611180    0.0397477800    0.0012319342    
0.0121837790    0.0375001220    0.0011764835    
0.0124064400    0.0368794470    0.0011180725    
0.0126291010    0.0340119080    0.0010602867    
0.0128517620    0.0337501330    0.0010588358    
0.0130744230    0.0342004740    0.0010579715    
0.0132970840    0.0337371850    0.0010456431    
0.0135197450    0.0318017480    0.0010006687    
0.0137424060    0.0298814910    0.0009564832    
0.0139650670    0.0312284800    0.0009560237    
0.0141877280    0.0282211820    0.0009108347    
0.0144103890    0.0294709410    0.0009147351    
0.0146330500    0.0301351070    0.0009191122    
0.0148557110    0.0275201010    0.0008746462    
0.0150783720    0.0287348740    0.0008863555    
0.0153010330    0.0270799050    0.0008483207    
0.0155236940    0.0277566820    0.0008537487    
0.0157463550    0.0282993270    0.0008471182    
0.0159690160    0.0249643970    0.0007926204    
0.0161916770    0.0263012980    0.0008089835    
0.0164143380    0.0245541040    0.0007875733    
0.0166369990    0.0261716550    0.0007880312    
0.0168596600    0.0243837590    0.0007539366    
0.0170823210    0.0246964620    0.0007521862    
0.0173049820    0.0252417000    0.0007617587    
0.0175276430    0.0247204390    0.0007618018    
0.0177503040    0.0243456150    0.0007367318    
0.0179729650    0.0250234050    0.0007395093    
0.0181956260    0.0238839360    0.0007086254    
0.0184182870    0.0229095630    0.0006907493    
0.0186409480    0.0257947210    0.0007375944    
0.0188636090    0.0238051340    0.0007041213    
0.0190862700    0.0230456110    0.0006917143    
0.0193089310    0.0238224080    0.0007021793    
0.0195315920    0.0234463780    0.0006729246    
0.0197542530    0.0228174360    0.0006648049    
0.0199769140    0.0233404250    0.0006723807    
0.0201995750    0.0223899520    0.0006482357    
0.0204222360    0.0225278060    0.0006558098    
0.0206448970    0.0227921730    0.0006549583    
0.0208675580    0.0223867120    0.0006357399    
0.0210902190    0.0224343310    0.0006425564    
0.0213128800    0.0219549950    0.0006270297    
0.0215355410    0.0220819130    0.0006213482    
0.0217582020    0.0218021830    0.0006174002    
0.0219808630    0.0216577780    0.0006145442    
0.0222035240    0.0220204760    0.0006140535    
0.0224261850    0.0218993650    0.0006069124    
0.0226488460    0.0225160850    0.0006107777    
0.0228715070    0.0220911200    0.0006034834    
0.0230941680    0.0229813680    0.0006155233    
0.0233168290    0.0226983620    0.0006132453    
0.0235394900    0.0215195270    0.0005905187    
0.0237621510    0.0222330570    0.0005840701    
0.0239848120    0.0211926050    0.0005708996    
0.0242074730    0.0213087120    0.0005678791    
0.0244301340    0.0213270340    0.0005687715    
0.0246527950    0.0207658760    0.0005664357    
0.0248754560    0.0216146490    0.0005649079    
0.0250981170    0.0209251610    0.0005570643    
0.0253207780    0.0205177810    0.0005351453    
0.0255434390    0.0214143170    0.0005525471    
0.0257661000    0.0209790970    0.0005486724    
0.0259887610    0.0197068470    0.0005261242    
0.0262114220    0.0216493470    0.0005543830    
0.0264340830    0.0208708630    0.0005369183    
0.0266567440    0.0211185070    0.0005367570    
0.0268794050    0.0212170990    0.0005358126    
0.0271020660    0.0197839920    0.0005153060    
0.0273247270    0.0206344890    0.0005231051    
0.0275473880    0.0203543250    0.0005185079    
0.0277700490    0.0204929340    0.0005171950    
0.0279927100    0.0198290640    0.0005043099    
0.0282153710    0.0206051380    0.0005165834    
0.0284380320    0.0204565480    0.0005117336    
0.0286606930    0.0206489420    0.0005097339    
0.0288833540    0.0209043000    0.0005138503    
0.0291060150    0.0205872890    0.0005094553    
0.0293286760    0.0214149680    0.0005123550    
0.0295513370    0.0211190140    0.0005032618    
0.0297739980    0.0202504660    0.0004982301    
0.0299966590    0.0205120720    0.0004928736    
0.0302193200    0.0203462590    0.0004980310    
0.0304419810    0.0198828440    0.0004932326    
0.0306646420    0.0205557490    0.0004873549    
0.0308873030    0.0214095110    0.0004952245    
0.0311099640    0.0204730060    0.0004855296    
0.0313326250    0.0198417430    0.0004726905    
0.0315552860    0.0198856230    0.0004793456    
0.0317779470    0.0200013010    0.0004811565    
0.0320006080    0.0211921140    0.0004840199    
0.0322232690    0.0208013860    0.0004815445    
0.0324459300    0.0200966130    0.0004697830    
0.0326685910    0.0200851360    0.0004688746    
0.0328912520    0.0196013640    0.0004647274    
0.0331139130    0.0197601870    0.0004605366    
0.0333365740    0.0203208490    0.0004685408    
0.0335592350    0.0207690650    0.0004691254    
0.0337818960    0.0199213770    0.0004590862    
0.0340045570    0.0204698150    0.0004646235    
0.0342272170    0.0208317970    0.0004668648    
0.0344498780    0.0202167360    0.0004617426    
0.0346725390    0.0195459620    0.0004456096    
0.0348952000    0.0201132180    0.0004499703    
0.0351178610    0.0200539380    0.0004513631    
0.0353405220    0.0205662440    0.0004550098    
0.0355631830    0.0198321450    0.0004451326    
0.0357858440    0.0197022740    0.0004436729    
0.0360085050    0.0197209990    0.0004452249    
0.0362311660    0.0195984190    0.0004385630    
0.0364538270    0.0198548500    0.0004378799    
0.0366764880    0.0200864070    0.0004401063    
0.0368991490    0.0195789280    0.0004323208    
0.0371218100    0.0204446860    0.0004405119    
0.0373444710    0.0198933610    0.0004392637    
0.0375671320    0.0203673710    0.0004438189    
0.0377897930    0.0207397500    0.0004362639    
0.0380124540    0.0196627190    0.0004274504    
0.0382351150    0.0191144800    0.0004214493    
0.0384577760    0.0201053900    0.0004280650    
0.0386804370    0.0202098470    0.0004324508    
0.0389030980    0.0193671870    0.0004201333    
0.0391257590    0.0195007150    0.0004187172    
0.0393484200    0.0201198150    0.0004238805    
0.0395710810    0.0197442540    0.0004204714    
0.0397937420    0.0198159020    0.0004212337    
0.0400164030    0.0193906830    0.0004183849    
0.0402390640    0.0188601390    0.0004071271    
0.0404617250    0.0198715550    0.0004154357    
0.0406843860    0.0198557020    0.0004112578    
0.0409070470    0.0202280610    0.0004194203    
0.0411297080    0.0196765230    0.0004096609    
0.0413523690    0.0195294740    0.0004091793    
0.0415750300    0.0193220690    0.0004104580    
0.0417976910    0.0197504070    0.0004042498    
0.0420203520    0.0206077060    0.0004144818    
0.0422430130    0.0192184940    0.0004017828    
0.0424656740    0.0196788270    0.0004012746    
0.0426883350    0.0196349980    0.0004028169    
0.0429109960    0.0202485060    0.0004103397    
0.0431336570    0.0199729430    0.0004017961    
0.0433563180    0.0197269690    0.0004027590    
0.0435789790    0.0195899930    0.0003950527    
0.0438016400    0.0196023780    0.0003973274    
0.0440243010    0.0196011690    0.0003932839    
0.0442469620    0.0200523930    0.0004001685    
0.0444696230    0.0197423340    0.0003956388    
0.0446922840    0.0199326370    0.0003963605    
0.0449149450    0.0203776470    0.0003954030    
0.0451376060    0.0199562580    0.0003961260    
0.0453602670    0.0198172000    0.0003906052    
0.0455829280    0.0195332790    0.0003873486    
0.0458055890    0.0197151280    0.0003914167    
0.0460282500    0.0190604860    0.0003802224    
0.0462509110    0.0197679550    0.0003848062    
0.0464735720    0.0194078250    0.0003815002    
0.0466962330    0.0193349510    0.0003825143    
0.0469188940    0.0197446830    0.0003854502    
0.0471415550    0.0198339880    0.0003883050    
0.0473642160    0.0192972290    0.0003776518    
0.0475868770    0.0207158210    0.0003893429    
0.0478095380    0.0192147610    0.0003733310    
0.0480321990    0.0199110280    0.0003808675    
0.0482548600    0.0192251380    0.0003726194    
0.0484775210    0.0196088050    0.0003800556    
0.0487001820    0.0195967860    0.0003743773    
0.0489228430    0.0195900200    0.0003741116    
0.0491455040    0.0193058810    0.0003688199    
0.0493681650    0.0197107930    0.0003758701    
0.0495908260    0.0192332360    0.0003650418    
0.0498134870    0.0193257820    0.0003694024    
0.0500361480    0.0194835280    0.0003699256    
0.0502588090    0.0199057990    0.0003683103    
0.0504814700    0.0195973600    0.0003702231    
0.0507041310    0.0184717430    0.0003551602    
0.0509267920    0.0193340850    0.0003648590    
0.0511494530    0.0200893880    0.0003694376    
0.0513721140    0.0199608040    0.0003714964    
0.0515947750    0.0194686640    0.0003620237    
0.0518174360    0.0194742620    0.0003598947    
0.0520400970    0.0201365360    0.0003634256    
0.0522627580    0.0195462980    0.0003611027    
0.0524854190    0.0193704980    0.0003623979    
0.0527080800    0.0197817790    0.0003690605    
0.0529307410    0.0200166790    0.0003729888    
0.0531534020    0.0197125040    0.0003687964    
0.0533760630    0.0196972530    0.0003698077    
0.0535987240    0.0201671960    0.0003724462    
0.0538213850    0.0198418510    0.0003737099    
0.0540440460    0.0195708200    0.0003693923    
0.0542667070    0.0199051160    0.0003751011    
0.0544893680    0.0191408850    0.0003680259    
0.0547120290    0.0193331930    0.0003673362    
0.0549346900    0.0194583430    0.0003687171    
0.0551573510    0.0206916120    0.0003846982    
0.0553800120    0.0204748910    0.0003794250    
0.0556026730    0.0187467270    0.0003705871    
0.0558253340    0.0201718950    0.0003876345    
0.0560479950    0.0197473210    0.0003835335    
0.0562706560    0.0193564420    0.0003833899    
0.0564933170    0.0193154910    0.0003863098    
0.0567159780    0.0196545510    0.0003850135    
0.0569386390    0.0196224070    0.0003907327    
0.0571613000    0.0198070130    0.0003841137    
0.0573839610    0.0202267020    0.0003849390    
0.0576066220    0.0195800970    0.0003797846    
0.0578292830    0.0198312590    0.0003809480    
0.0580519440    0.0198304830    0.0003824176    
0.0582746050    0.0205843190    0.0003879004    
0.0584972660    0.0198467220    0.0003794292    
0.0587199270    0.0198339790    0.0003760376    
0.0589425880    0.0196237770    0.0003718519    
0.0591652490    0.0193207030    0.0003711404    
0.0593879100    0.0192174150    0.0003673981    
0.0596105710    0.0199478930    0.0003739208    
0.0598332320    0.0194847420    0.0003727133    
0.0600558930    0.0195045490    0.0003705251    
0.0602785540    0.0188452270    0.0003638237    
0.0605012150    0.0201507850    0.0003754225    
0.0607238760    0.0195204130    0.0003668110    
0.0609465370    0.0191568070    0.0003662394    
0.0611691980    0.0195055620    0.0003701438    
0.0613918590    0.0197416450    0.0003683117    
0.0616145200    0.0199480120    0.0003729415    
0.0618371810    0.0199135810    0.0003689599    
0.0620598420    0.0202355210    0.0003723138    
0.0622825030    0.0191432640    0.0003676641    
0.0625051640    0.0196664440    0.0003674206    
0.0627278250    0.0194761560    0.0003648858    
0.0629504860    0.0191540490    0.0003589142    
0.0631731470    0.0193483270    0.0003651928    
0.0633958080    0.0199412170    0.0003728796    
0.0636184690    0.0192963130    0.0003719091    
0.0638411300    0.0195430020    0.0003728739    
0.0640637910    0.0198188760    0.0003781375    
0.0642864520    0.0194817720    0.0003740965    
0.0645091130    0.0198247080    0.0003806817    
0.0647317740    0.0198391410    0.0003812401    
0.0649544350    0.0191741620    0.0003743840    
0.0651770960    0.0192041480    0.0003726328    
0.0653997570    0.0195528950    0.0003751856    
0.0656224180    0.0204767600    0.0003847819    
0.0658450790    0.0198642550    0.0003735361    
0.0660677400    0.0198282590    0.0003747858    
0.0662904010    0.0193324440    0.0003744882    
0.0665130620    0.0200568210    0.0003797850    
0.0667357230    0.0197930510    0.0003839874    
0.0669583840    0.0197570220    0.0003823542    
0.0671810450    0.0200005010    0.0003825789    
0.0674037060    0.0191475680    0.0003806741    
0.0676263670    0.0191441590    0.0003778534    
0.0678490280    0.0189696510    0.0003738271    
0.0680716890    0.0197275420    0.0003820700    
0.0682943500    0.0192977710    0.0003737465    
0.0685170110    0.0188993930    0.0003660996    
0.0687396720    0.0198501570    0.0003741984    
0.0689623330    0.0197736130    0.0003722927    
0.0691849940    0.0199135340    0.0003761961    
0.0694076550    0.0195799140    0.0003728324    
0.0696303160    0.0193339920    0.0003675504    
0.0698529770    0.0194130720    0.0003675295    
0.0700756380    0.0196637290    0.0003651463    
0.0702982990    0.0193390770    0.0003660630    
0.0705209600    0.0200237860    0.0003697977    
0.0707436210    0.0197320240    0.0003654079    
0.0709662820    0.0204270200    0.0003762195    
0.0711889430    0.0195294820    0.0003633431    
0.0714116040    0.0205595600    0.0003735633    
0.0716342650    0.0200293850    0.0003672181    
0.0718569260    0.0193608080    0.0003595832    
0.0720795870    0.0190666770    0.0003582848    
0.0723022480    0.0195840430    0.0003636665    
0.0725249090    0.0194671750    0.0003582376    
0.0727475700    0.0194122330    0.0003607873    
0.0729702310    0.0198494970    0.0003619183    
0.0731928920    0.0198222290    0.0003631151    
0.0734155530    0.0199154590    0.0003632418    
0.0736382140    0.0196344990    0.0003583558    
0.0738608750    0.0198492580    0.0003626381    
0.0740835360    0.0195662380    0.0003591496    
0.0743061970    0.0199931110    0.0003579341    
0.0745288580    0.0199681680    0.0003613889    
0.0747515190    0.0195415100    0.0003582133    
0.0749741800    0.0199355180    0.0003584574    
0.0751968410    0.0198962630    0.0003609160    
0.0754195020    0.0195149900    0.0003553470    
0.0756421630    0.0194773080    0.0003521018    
0.0758648240    0.0190018420    0.0003486137    
0.0760874850    0.0193030790    0.0003511973    
0.0763101460    0.0198208860    0.0003555352    
0.0765328070    0.0196037700    0.0003572005    
0.0767554680    0.0195697630    0.0003544689    
0.0769781290    0.0195232080    0.0003520125    
0.0772007900    0.0199857520    0.0003533015    
0.0774234510    0.0192093830    0.0003483415    
0.0776461120    0.0198790990    0.0003540256    
0.0778687730    0.0194410750    0.0003489469    
0.0780914340    0.0193005920    0.0003501682    
0.0783140950    0.0190252720    0.0003421457    
0.0785367560    0.0199994840    0.0003564523    
0.0787594170    0.0201730910    0.0003547886    
0.0789820780    0.0194172280    0.0003462948    
0.0792047390    0.0196935970    0.0003498907    
0.0794274000    0.0200802560    0.0003548059    
0.0796500610    0.0195672480    0.0003468258    
0.0798727220    0.0189788930    0.0003412565    
0.0800953830    0.0194536270    0.0003447036    
0.0803180440    0.0196389010    0.0003487539    
0.0805407050    0.0190151230    0.0003428514    
0.0807633660    0.0196400600    0.0003481164    
0.0809860270    0.0199852620    0.0003498656    
0.0812086880    0.0197677490    0.0003449496    
0.0814313490    0.0187153580    0.0003371726    
0.0816540100    0.0195916820    0.0003441908    
0.0818766710    0.0201125390    0.0003495323    
0.0820993320    0.0196458960    0.0003448241    
0.0823219930    0.0196618310    0.0003463867    
0.0825446540    0.0193952050    0.0003415305    
0.0827673150    0.0193016130    0.0003384165    
0.0829899760    0.0200074740    0.0003439356    
0.0832126370    0.0199305890    0.0003448116    
0.0834352980    0.0193486420    0.0003389807    
0.0836579590    0.0190615780    0.0003357077    
0.0838806200    0.0199068960    0.0003441443    
0.0841032810    0.0190435470    0.0003345094    
0.0843259420    0.0192067410    0.0003349051    
0.0845486030    0.0195746710    0.0003380979    
0.0847712640    0.0190599140    0.0003315896    
0.0849939250    0.0193521190    0.0003347036    
0.0852165860    0.0196350130    0.0003375827    
0.0854392470    0.0198400450    0.0003361271    
0.0856619080    0.0196306070    0.0003368107    
0.0858845690    0.0199142130    0.0003361797    
0.0861072300    0.0192925180    0.0003331748    
0.0863298910    0.0200358160    0.0003413103    
0.0865525520    0.0194455800    0.0003333419    
0.0867752130    0.0198976790    0.0003344738    
0.0869978740    0.0193889100    0.0003310115    
0.0872205350    0.0195030700    0.0003315621    
0.0874431960    0.0193790920    0.0003305069    
0.0876658570    0.0195111520    0.0003329044    
0.0878885180    0.0197320050    0.0003353572    
0.0881111790    0.0192663940    0.0003309517    
0.0883338400    0.0187615510    0.0003218053    
0.0885565010    0.0196367510    0.0003336901    
0.0887791620    0.0192357260    0.0003259824    
0.0890018230    0.0195149460    0.0003315246    
0.0892244840    0.0196378660    0.0003331324    
0.0894471450    0.0196684400    0.0003319834    
0.0896698060    0.0191699760    0.0003265133    
0.0898924670    0.0193873970    0.0003298818    
0.0901151280    0.0191026570    0.0003239135    
0.0903377890    0.0193399700    0.0003286469    
0.0905604500    0.0197217590    0.0003303519    
0.0907831110    0.0196512840    0.0003289407    
0.0910057720    0.0198209420    0.0003318736    
0.0912284330    0.0191494450    0.0003215330    
0.0914510940    0.0197224250    0.0003299467    
0.0916737550    0.0191687830    0.0003244754    
0.0918964160    0.0193839370    0.0003276483    
0.0921190770    0.0196821830    0.0003271742    
0.0923417380    0.0195023860    0.0003258099    
0.0925643990    0.0189249900    0.0003201653    
0.0927870600    0.0195064800    0.0003263797    
0.0930097210    0.0194762520    0.0003233492    
0.0932323820    0.0192406770    0.0003237502    
