# Diamond Light Source Ltd.
# Data extracted from: /dls/b21/data/2018/cm19678-3/processed/b21-386631_00755.dat
q(1/A)          Column          Error           
0.0035000000    2.0402921000    0.0242685640    
0.0037226610    1.8496042000    0.0226201570    
0.0039453220    1.6179340000    0.0192461220    
0.0041679830    1.2801539000    0.0140591390    
0.0043906440    0.9485755500    0.0115757440    
0.0046133050    0.7921623700    0.0101550930    
0.0048359660    0.5870559900    0.0082692144    
0.0050586270    0.4650902800    0.0072344341    
0.0052812880    0.4243132100    0.0065333100    
0.0055039490    0.3833528300    0.0059047278    
0.0057266100    0.3248162600    0.0052581574    
0.0059492710    0.2676159400    0.0047727723    
0.0061719320    0.2236030700    0.0042039862    
0.0063945930    0.2052524000    0.0040766109    
0.0066172539    0.1813322100    0.0035979746    
0.0068399149    0.1700636600    0.0034295115    
0.0070625759    0.1407131600    0.0030875676    
0.0072852369    0.1245696400    0.0028615912    
0.0075078979    0.1116970000    0.0026963911    
0.0077305589    0.1022206800    0.0025303388    
0.0079532199    0.0975799380    0.0024379752    
0.0081758809    0.0899102480    0.0023619734    
0.0083985419    0.0802657950    0.0020814933    
0.0086212029    0.0799419370    0.0020772900    
0.0088438639    0.0715986230    0.0019501127    
0.0090665249    0.0657492770    0.0018049099    
0.0092891859    0.0619671760    0.0018289034    
0.0095118469    0.0602532700    0.0017343110    
0.0097345079    0.0583414560    0.0016574545    
0.0099571689    0.0532502460    0.0015508319    
0.0101798300    0.0527082680    0.0015429197    
0.0104024910    0.0506923040    0.0015080051    
0.0106251520    0.0469270870    0.0014558473    
0.0108478130    0.0442908800    0.0013773808    
0.0110704740    0.0424763080    0.0012842161    
0.0112931350    0.0407343720    0.0012613014    
0.0115157960    0.0394501060    0.0012340215    
0.0117384570    0.0407466640    0.0012433400    
0.0119611180    0.0374322270    0.0011951190    
0.0121837790    0.0374754800    0.0011757104    
0.0124064400    0.0363132240    0.0011090916    
0.0126291010    0.0356411400    0.0010850278    
0.0128517620    0.0332300030    0.0010502999    
0.0130744230    0.0331968140    0.0010419896    
0.0132970840    0.0318365610    0.0010154286    
0.0135197450    0.0315605870    0.0009965397    
0.0137424060    0.0324625290    0.0009966087    
0.0139650670    0.0309447240    0.0009513576    
0.0141877280    0.0302003230    0.0009419222    
0.0144103890    0.0287422400    0.0009030585    
0.0146330500    0.0296670770    0.0009116471    
0.0148557110    0.0296688430    0.0009078518    
0.0150783720    0.0281148950    0.0008764533    
0.0153010330    0.0288149060    0.0008747871    
0.0155236940    0.0260589150    0.0008269547    
0.0157463550    0.0281286840    0.0008442828    
0.0159690160    0.0268341810    0.0008214973    
0.0161916770    0.0263337480    0.0008092164    
0.0164143380    0.0254215380    0.0008011007    
0.0166369990    0.0247080180    0.0007654275    
0.0168596600    0.0258353910    0.0007757991    
0.0170823210    0.0245657600    0.0007499466    
0.0173049820    0.0245588760    0.0007511378    
0.0175276430    0.0246572720    0.0007605778    
0.0177503040    0.0243964560    0.0007372583    
0.0179729650    0.0238057540    0.0007210555    
0.0181956260    0.0236791440    0.0007053490    
0.0184182870    0.0242889910    0.0007110073    
0.0186409480    0.0236489440    0.0007060173    
0.0188636090    0.0234772930    0.0006990262    
0.0190862700    0.0234661780    0.0006977680    
0.0193089310    0.0213867800    0.0006650972    
0.0195315920    0.0244539040    0.0006870050    
0.0197542530    0.0228411560    0.0006649318    
0.0199769140    0.0222798130    0.0006567104    
0.0201995750    0.0216437770    0.0006371331    
0.0204222360    0.0229708940    0.0006620102    
0.0206448970    0.0225326840    0.0006510053    
0.0208675580    0.0218127020    0.0006273304    
0.0210902190    0.0224931560    0.0006431869    
0.0213128800    0.0220658400    0.0006284040    
0.0215355410    0.0229584850    0.0006333526    
0.0217582020    0.0225216890    0.0006272988    
0.0219808630    0.0215041350    0.0006121592    
0.0222035240    0.0221600130    0.0006157935    
0.0224261850    0.0216160340    0.0006027754    
0.0226488460    0.0211932670    0.0005923698    
0.0228715070    0.0223402040    0.0006066767    
0.0230941680    0.0222743130    0.0006057815    
0.0233168290    0.0215575530    0.0005974395    
0.0235394900    0.0208900210    0.0005816263    
0.0237621510    0.0214057640    0.0005729121    
0.0239848120    0.0215475380    0.0005754713    
0.0242074730    0.0210829720    0.0005646775    
0.0244301340    0.0208279440    0.0005618922    
0.0246527950    0.0205206200    0.0005628958    
0.0248754560    0.0220135690    0.0005699097    
0.0250981170    0.0216820650    0.0005668635    
0.0253207780    0.0205182470    0.0005349755    
0.0255434390    0.0209870580    0.0005468273    
0.0257661000    0.0214528770    0.0005546509    
0.0259887610    0.0206203380    0.0005380032    
0.0262114220    0.0205569110    0.0005400372    
0.0264340830    0.0212160400    0.0005411621    
0.0266567440    0.0207092580    0.0005313561    
0.0268794050    0.0212842910    0.0005364840    
0.0271020660    0.0207501510    0.0005275652    
0.0273247270    0.0207799590    0.0005247732    
0.0275473880    0.0198657560    0.0005120788    
0.0277700490    0.0202707590    0.0005142147    
0.0279927100    0.0201236570    0.0005078753    
0.0282153710    0.0198409300    0.0005067467    
0.0284380320    0.0205710340    0.0005129950    
0.0286606930    0.0200695030    0.0005023659    
0.0288833540    0.0201836920    0.0005047501    
0.0291060150    0.0208005380    0.0005119187    
0.0293286760    0.0210946430    0.0005083416    
0.0295513370    0.0206976540    0.0004980523    
0.0297739980    0.0202739090    0.0004983546    
0.0299966590    0.0197766450    0.0004837983    
0.0302193200    0.0199795910    0.0004933608    
0.0304419810    0.0199798260    0.0004942716    
0.0306646420    0.0203228460    0.0004844268    
0.0308873030    0.0205254290    0.0004847325    
0.0311099640    0.0193203540    0.0004715087    
0.0313326250    0.0208752810    0.0004846859    
0.0315552860    0.0206346640    0.0004881296    
0.0317779470    0.0201038300    0.0004822297    
0.0320006080    0.0202722880    0.0004732436    
0.0322232690    0.0204757900    0.0004776039    
0.0324459300    0.0205553120    0.0004749580    
0.0326685910    0.0207063640    0.0004759141    
0.0328912520    0.0202161070    0.0004718035    
0.0331139130    0.0202727930    0.0004663185    
0.0333365740    0.0200699810    0.0004654867    
0.0335592350    0.0198870780    0.0004589054    
0.0337818960    0.0202360380    0.0004625456    
0.0340045570    0.0203404340    0.0004630006    
0.0342272170    0.0202639340    0.0004603063    
0.0344498780    0.0196554170    0.0004551377    
0.0346725390    0.0207818570    0.0004593306    
0.0348952000    0.0200195200    0.0004487734    
0.0351178610    0.0202031980    0.0004528909    
0.0353405220    0.0201905660    0.0004506868    
0.0355631830    0.0198989880    0.0004457356    
0.0357858440    0.0196394050    0.0004428189    
0.0360085050    0.0202303730    0.0004507899    
0.0362311660    0.0195561180    0.0004379455    
0.0364538270    0.0203146860    0.0004427760    
0.0366764880    0.0196202840    0.0004348269    
0.0368991490    0.0208920900    0.0004464366    
0.0371218100    0.0195586070    0.0004307186    
0.0373444710    0.0197252010    0.0004372595    
0.0375671320    0.0204699650    0.0004447891    
0.0377897930    0.0199374280    0.0004276017    
0.0380124540    0.0201141120    0.0004321869    
0.0382351150    0.0198819680    0.0004296858    
0.0384577760    0.0193635410    0.0004199554    
0.0386804370    0.0205387240    0.0004358120    
0.0389030980    0.0198918300    0.0004256459    
0.0391257590    0.0197394740    0.0004211342    
0.0393484200    0.0198567110    0.0004209614    
0.0395710810    0.0197402280    0.0004202903    
0.0397937420    0.0196239120    0.0004190504    
0.0400164030    0.0201628020    0.0004264932    
0.0402390640    0.0200246310    0.0004193697    
0.0404617250    0.0197369850    0.0004138906    
0.0406843860    0.0201916670    0.0004145862    
0.0409070470    0.0198410650    0.0004152523    
0.0411297080    0.0194334600    0.0004069890    
0.0413523690    0.0193966970    0.0004076520    
0.0415750300    0.0200500290    0.0004179812    
0.0417976910    0.0206965990    0.0004136838    
0.0420203520    0.0203275720    0.0004115197    
0.0422430130    0.0201711950    0.0004114857    
0.0424656740    0.0197885510    0.0004022595    
0.0426883350    0.0200350180    0.0004067657    
0.0429109960    0.0194540470    0.0004020770    
0.0431336570    0.0195720920    0.0003976130    
0.0433563180    0.0196647000    0.0004019907    
0.0435789790    0.0197920780    0.0003969546    
0.0438016400    0.0191951320    0.0003930492    
0.0440243010    0.0192018850    0.0003891297    
0.0442469620    0.0197598960    0.0003971086    
0.0444696230    0.0199274470    0.0003973586    
0.0446922840    0.0201085740    0.0003979751    
0.0449149450    0.0198735510    0.0003903534    
0.0451376060    0.0200452960    0.0003968782    
0.0453602670    0.0197349320    0.0003896655    
0.0455829280    0.0200117170    0.0003919348    
0.0458055890    0.0196788750    0.0003909282    
0.0460282500    0.0200788100    0.0003901189    
0.0462509110    0.0195154200    0.0003822147    
0.0464735720    0.0195674390    0.0003829398    
0.0466962330    0.0196171840    0.0003851693    
0.0469188940    0.0198219450    0.0003860767    
0.0471415550    0.0193575290    0.0003834866    
0.0473642160    0.0193288630    0.0003778370    
0.0475868770    0.0189106010    0.0003718699    
0.0478095380    0.0199560120    0.0003803388    
0.0480321990    0.0192135650    0.0003740143    
0.0482548600    0.0198404120    0.0003784106    
0.0484775210    0.0197578690    0.0003813720    
0.0487001820    0.0202057330    0.0003800246    
0.0489228430    0.0207052240    0.0003844863    
0.0491455040    0.0198917060    0.0003742508    
0.0493681650    0.0198625850    0.0003771906    
0.0495908260    0.0199683730    0.0003718305    
0.0498134870    0.0199269800    0.0003749809    
0.0500361480    0.0200603210    0.0003752380    
0.0502588090    0.0197973740    0.0003671851    
0.0504814700    0.0196403980    0.0003705076    
0.0507041310    0.0203362740    0.0003725317    
0.0509267920    0.0192388100    0.0003638393    
0.0511494530    0.0196891920    0.0003656191    
0.0513721140    0.0194018370    0.0003661376    
0.0515947750    0.0194827810    0.0003620359    
0.0518174360    0.0202125390    0.0003665326    
0.0520400970    0.0193236150    0.0003558973    
0.0522627580    0.0188001150    0.0003540267    
0.0524854190    0.0194526270    0.0003630460    
0.0527080800    0.0195623530    0.0003668873    
0.0529307410    0.0203924830    0.0003763502    
0.0531534020    0.0193616860    0.0003653799    
0.0533760630    0.0193096340    0.0003660306    
0.0535987240    0.0192053610    0.0003633367    
0.0538213850    0.0196951660    0.0003722036    
0.0540440460    0.0196346020    0.0003698721    
0.0542667070    0.0197578210    0.0003735879    
0.0544893680    0.0201465980    0.0003774466    
0.0547120290    0.0194251120    0.0003680874    
0.0549346900    0.0201437820    0.0003750318    
0.0551573510    0.0197416790    0.0003756404    
0.0553800120    0.0204122500    0.0003787196    
0.0556026730    0.0193347290    0.0003762304    
0.0558253340    0.0203075220    0.0003888076    
0.0560479950    0.0198013420    0.0003839315    
0.0562706560    0.0198825240    0.0003884372    
0.0564933170    0.0194881050    0.0003879046    
0.0567159780    0.0203048990    0.0003912029    
0.0569386390    0.0187853220    0.0003821820    
0.0571613000    0.0185210470    0.0003713132    
0.0573839610    0.0193861320    0.0003767317    
0.0576066220    0.0198911420    0.0003826635    
0.0578292830    0.0194672030    0.0003773111    
0.0580519440    0.0195300290    0.0003793848    
0.0582746050    0.0196576710    0.0003789442    
0.0584972660    0.0203121240    0.0003837260    
0.0587199270    0.0201985550    0.0003793532    
0.0589425880    0.0195052570    0.0003706055    
0.0591652490    0.0196713680    0.0003743703    
0.0593879100    0.0192819990    0.0003678940    
0.0596105710    0.0197946950    0.0003723597    
0.0598332320    0.0191299490    0.0003691830    
0.0600558930    0.0198012360    0.0003732099    
0.0602785540    0.0201314180    0.0003759108    
0.0605012150    0.0191799440    0.0003661468    
0.0607238760    0.0199415460    0.0003706249    
0.0609465370    0.0192771650    0.0003672674    
0.0611691980    0.0194225510    0.0003692340    
0.0613918590    0.0203123610    0.0003734748    
0.0616145200    0.0195029000    0.0003686360    
0.0618371810    0.0195999040    0.0003659221    
0.0620598420    0.0198183260    0.0003683347    
0.0622825030    0.0191659680    0.0003677612    
0.0625051640    0.0199965140    0.0003703693    
0.0627278250    0.0202216700    0.0003716817    
0.0629504860    0.0186709910    0.0003542430    
0.0631731470    0.0202862060    0.0003738162    
0.0633958080    0.0199350810    0.0003726997    
0.0636184690    0.0189899370    0.0003688236    
0.0638411300    0.0193310900    0.0003707249    
0.0640637910    0.0194669830    0.0003746423    
0.0642864520    0.0198350900    0.0003773495    
0.0645091130    0.0192564860    0.0003750631    
0.0647317740    0.0193428980    0.0003763181    
0.0649544350    0.0197971160    0.0003802921    
0.0651770960    0.0198924240    0.0003791269    
0.0653997570    0.0197558780    0.0003770041    
0.0656224180    0.0197913100    0.0003781626    
0.0658450790    0.0186578830    0.0003618969    
0.0660677400    0.0201621190    0.0003778037    
0.0662904010    0.0193849850    0.0003748735    
0.0665130620    0.0197561730    0.0003768039    
0.0667357230    0.0197577120    0.0003835184    
0.0669583840    0.0196848810    0.0003815301    
0.0671810450    0.0196948240    0.0003795193    
0.0674037060    0.0202240910    0.0003911005    
0.0676263670    0.0196458280    0.0003826464    
0.0678490280    0.0199878680    0.0003836026    
0.0680716890    0.0198624750    0.0003832484    
0.0682943500    0.0197408140    0.0003778882    
0.0685170110    0.0194326750    0.0003711068    
0.0687396720    0.0193648010    0.0003694738    
0.0689623330    0.0194874310    0.0003694673    
0.0691849940    0.0197086880    0.0003741332    
0.0694076550    0.0192548820    0.0003696034    
0.0696303160    0.0188394760    0.0003627002    
0.0698529770    0.0195811060    0.0003689954    
0.0700756380    0.0200980330    0.0003690354    
0.0702982990    0.0198318590    0.0003705757    
0.0705209600    0.0194100350    0.0003639666    
0.0707436210    0.0192997910    0.0003612648    
0.0709662820    0.0200119730    0.0003722554    
0.0711889430    0.0195098930    0.0003630415    
0.0714116040    0.0195624990    0.0003642728    
0.0716342650    0.0196192630    0.0003633197    
0.0718569260    0.0190344050    0.0003564220    
0.0720795870    0.0202315750    0.0003689461    
0.0723022480    0.0193417190    0.0003612909    
0.0725249090    0.0189207540    0.0003530581    
0.0727475700    0.0197814350    0.0003640824    
0.0729702310    0.0198694260    0.0003619810    
0.0731928920    0.0196430180    0.0003613512    
0.0734155530    0.0187635800    0.0003524648    
0.0736382140    0.0198568990    0.0003602612    
0.0738608750    0.0192535760    0.0003570378    
0.0740835360    0.0192503300    0.0003561214    
0.0743061970    0.0189681670    0.0003485241    
0.0745288580    0.0204844790    0.0003659110    
0.0747515190    0.0197452160    0.0003599571    
0.0749741800    0.0195423910    0.0003547888    
0.0751968410    0.0197915910    0.0003598471    
0.0754195020    0.0188878730    0.0003494759    
0.0756421630    0.0194708700    0.0003519279    
0.0758648240    0.0192578010    0.0003508384    
0.0760874850    0.0196671340    0.0003543772    
0.0763101460    0.0190175870    0.0003481417    
0.0765328070    0.0191681090    0.0003530931    
0.0767554680    0.0195889840    0.0003545263    
0.0769781290    0.0192059260    0.0003490256    
0.0772007900    0.0200724810    0.0003539509    
0.0774234510    0.0195187050    0.0003510195    
0.0776461120    0.0188831300    0.0003449297    
0.0778687730    0.0189526070    0.0003444221    
0.0780914340    0.0190403020    0.0003476847    
0.0783140950    0.0196830130    0.0003478955    
0.0785367560    0.0198212700    0.0003547440    
0.0787594170    0.0194926210    0.0003486388    
0.0789820780    0.0197809550    0.0003494083    
0.0792047390    0.0198670250    0.0003513125    
0.0794274000    0.0198540490    0.0003526858    
0.0796500610    0.0192840800    0.0003441940    
0.0798727220    0.0188744410    0.0003402043    
0.0800953830    0.0197094140    0.0003468484    
0.0803180440    0.0195950490    0.0003482498    
0.0805407050    0.0191632480    0.0003440711    
0.0807633660    0.0196518190    0.0003481062    
0.0809860270    0.0189438370    0.0003405161    
0.0812086880    0.0196645270    0.0003439347    
0.0814313490    0.0195043590    0.0003440934    
0.0816540100    0.0191135090    0.0003398528    
0.0818766710    0.0195408390    0.0003444155    
0.0820993320    0.0192458910    0.0003411834    
0.0823219930    0.0194903530    0.0003447596    
0.0825446540    0.0197130130    0.0003442041    
0.0827673150    0.0194786760    0.0003398535    
0.0829899760    0.0200297770    0.0003440141    
0.0832126370    0.0197267230    0.0003429308    
0.0834352980    0.0199828320    0.0003443781    
0.0836579590    0.0194862820    0.0003393155    
0.0838806200    0.0187225410    0.0003336403    
0.0841032810    0.0193950950    0.0003374719    
0.0843259420    0.0197952130    0.0003398852    
0.0845486030    0.0192116560    0.0003348381    
0.0847712640    0.0192837520    0.0003334214    
0.0849939250    0.0191600660    0.0003329292    
0.0852165860    0.0201731310    0.0003420649    
0.0854392470    0.0203847130    0.0003405978    
0.0856619080    0.0202818330    0.0003422393    
0.0858845690    0.0196685970    0.0003339903    
0.0861072300    0.0199985930    0.0003391054    
0.0863298910    0.0200458920    0.0003412839    
0.0865525520    0.0196212480    0.0003347342    
0.0867752130    0.0192047400    0.0003284902    
0.0869978740    0.0192406320    0.0003296350    
0.0872205350    0.0196817760    0.0003329683    
0.0874431960    0.0193888900    0.0003304818    
0.0876658570    0.0196288870    0.0003337976    
0.0878885180    0.0195082920    0.0003333412    
0.0881111790    0.0196514200    0.0003341325    
0.0883338400    0.0195987010    0.0003287984    
0.0885565010    0.0190345080    0.0003284253    
0.0887791620    0.0198414040    0.0003309660    
0.0890018230    0.0196766000    0.0003327855    
0.0892244840    0.0199581620    0.0003357278    
0.0894471450    0.0200195060    0.0003348231    
0.0896698060    0.0195575330    0.0003296890    
0.0898924670    0.0195485470    0.0003311411    
0.0901151280    0.0196115420    0.0003280917    
0.0903377890    0.0193384230    0.0003285258    
0.0905604500    0.0192774620    0.0003265022    
0.0907831110    0.0190826200    0.0003240399    
0.0910057720    0.0197357270    0.0003310506    
0.0912284330    0.0193418810    0.0003230384    
0.0914510940    0.0200459540    0.0003325326    
0.0916737550    0.0196337190    0.0003282790    
0.0918964160    0.0189505670    0.0003238585    
0.0921190770    0.0193920650    0.0003246472    
0.0923417380    0.0194678120    0.0003254141    
0.0925643990    0.0191128300    0.0003216445    
0.0927870600    0.0187350900    0.0003197561    
0.0930097210    0.0195171020    0.0003235817    
0.0932323820    0.0194131270    0.0003250909    
