# Diamond Light Source Ltd.
# Data extracted from: /dls/b21/data/2018/cm19678-3/processed/b21-386631_00754.dat
q(1/A)          Column          Error           
0.0035000000    2.0821882000    0.0245167000    
0.0037226610    1.8659612000    0.0227201730    
0.0039453220    1.5801884000    0.0190204770    
0.0041679830    1.2817222000    0.0140678820    
0.0043906440    0.9637088600    0.0116678270    
0.0046133050    0.7843662700    0.0101050950    
0.0048359660    0.6064030500    0.0084044499    
0.0050586270    0.4709508200    0.0072799404    
0.0052812880    0.4290493400    0.0065697330    
0.0055039490    0.3781758600    0.0058647778    
0.0057266100    0.3144376300    0.0051735193    
0.0059492710    0.2643864100    0.0047439314    
0.0061719320    0.2177582600    0.0041487172    
0.0063945930    0.2046085400    0.0040702505    
0.0066172539    0.1749817600    0.0035344441    
0.0068399149    0.1650181300    0.0033782863    
0.0070625759    0.1499297700    0.0031871108    
0.0072852369    0.1252293700    0.0028691860    
0.0075078979    0.1122849500    0.0027035040    
0.0077305589    0.1009698900    0.0025148342    
0.0079532199    0.0993482490    0.0024599894    
0.0081758809    0.0899740020    0.0023628331    
0.0083985419    0.0826424070    0.0021121043    
0.0086212029    0.0743295970    0.0020030639    
0.0088438639    0.0717593260    0.0019523185    
0.0090665249    0.0616875670    0.0017482879    
0.0092891859    0.0643974230    0.0018644394    
0.0095118469    0.0613526700    0.0017500785    
0.0097345079    0.0571653510    0.0016406787    
0.0099571689    0.0527092580    0.0015429486    
0.0101798300    0.0509026090    0.0015162754    
0.0104024910    0.0480464490    0.0014681369    
0.0106251520    0.0477409730    0.0014684318    
0.0108478130    0.0455339430    0.0013965890    
0.0110704740    0.0414287750    0.0012682938    
0.0112931350    0.0395634720    0.0012430531    
0.0115157960    0.0426933900    0.0012837577    
0.0117384570    0.0370672670    0.0011858869    
0.0119611180    0.0367460940    0.0011841263    
0.0121837790    0.0365540390    0.0011611773    
0.0124064400    0.0372624100    0.0011235039    
0.0126291010    0.0360712340    0.0010915652    
0.0128517620    0.0344921350    0.0010700703    
0.0130744230    0.0334918040    0.0010466189    
0.0132970840    0.0326792460    0.0010287893    
0.0135197450    0.0313094510    0.0009925763    
0.0137424060    0.0315146450    0.0009819600    
0.0139650670    0.0289856360    0.0009207591    
0.0141877280    0.0296720860    0.0009336571    
0.0144103890    0.0296791240    0.0009176673    
0.0146330500    0.0296396240    0.0009112339    
0.0148557110    0.0282803880    0.0008863627    
0.0150783720    0.0281973970    0.0008777466    
0.0153010330    0.0258940700    0.0008292739    
0.0155236940    0.0265317850    0.0008344319    
0.0157463550    0.0266087190    0.0008211629    
0.0159690160    0.0270861860    0.0008253535    
0.0161916770    0.0272045950    0.0008224956    
0.0164143380    0.0253210380    0.0007995231    
0.0166369990    0.0250404620    0.0007705669    
0.0168596600    0.0256029150    0.0007723081    
0.0170823210    0.0258254450    0.0007689414    
0.0173049820    0.0242377030    0.0007462172    
0.0175276430    0.0237192910    0.0007459782    
0.0177503040    0.0236616690    0.0007260777    
0.0179729650    0.0233475530    0.0007140893    
0.0181956260    0.0256126210    0.0007335879    
0.0184182870    0.0240396890    0.0007073557    
0.0186409480    0.0236915480    0.0007066596    
0.0188636090    0.0249346890    0.0007204031    
0.0190862700    0.0237778510    0.0007023932    
0.0193089310    0.0228971120    0.0006881877    
0.0195315920    0.0224663650    0.0006585008    
0.0197542530    0.0215833660    0.0006463708    
0.0199769140    0.0213704430    0.0006431748    
0.0201995750    0.0237635920    0.0006676114    
0.0204222360    0.0232956750    0.0006666801    
0.0206448970    0.0215926640    0.0006372873    
0.0208675580    0.0214883540    0.0006226547    
0.0210902190    0.0215739750    0.0006299139    
0.0213128800    0.0222810150    0.0006314665    
0.0215355410    0.0226094690    0.0006285260    
0.0217582020    0.0236054130    0.0006422202    
0.0219808630    0.0219576370    0.0006185863    
0.0222035240    0.0228620380    0.0006254775    
0.0224261850    0.0221207150    0.0006097773    
0.0226488460    0.0221871220    0.0006061060    
0.0228715070    0.0211214490    0.0005899018    
0.0230941680    0.0213191620    0.0005926564    
0.0233168290    0.0221540340    0.0006056542    
0.0235394900    0.0211657170    0.0005854573    
0.0237621510    0.0208694820    0.0005656953    
0.0239848120    0.0209792780    0.0005678377    
0.0242074730    0.0212799890    0.0005673151    
0.0244301340    0.0209647680    0.0005637402    
0.0246527950    0.0218489300    0.0005808339    
0.0248754560    0.0219697220    0.0005693472    
0.0250981170    0.0215342700    0.0005649335    
0.0253207780    0.0229875670    0.0005662581    
0.0255434390    0.0214861390    0.0005532962    
0.0257661000    0.0202773680    0.0005392459    
0.0259887610    0.0209295490    0.0005420271    
0.0262114220    0.0213092240    0.0005498354    
0.0264340830    0.0203053910    0.0005294257    
0.0266567440    0.0199325280    0.0005213012    
0.0268794050    0.0204733330    0.0005261694    
0.0271020660    0.0210322260    0.0005311439    
0.0273247270    0.0203695170    0.0005195697    
0.0275473880    0.0214897430    0.0005326035    
0.0277700490    0.0203494110    0.0005152162    
0.0279927100    0.0202009450    0.0005088545    
0.0282153710    0.0190259090    0.0004962343    
0.0284380320    0.0220042590    0.0005305698    
0.0286606930    0.0222579530    0.0005290523    
0.0288833540    0.0206006310    0.0005099416    
0.0291060150    0.0201709820    0.0005041171    
0.0293286760    0.0204090250    0.0005000170    
0.0295513370    0.0204943020    0.0004956043    
0.0297739980    0.0209970630    0.0005071695    
0.0299966590    0.0205226520    0.0004928434    
0.0302193200    0.0204429200    0.0004990533    
0.0304419810    0.0204937710    0.0005005931    
0.0306646420    0.0204040630    0.0004853984    
0.0308873030    0.0205143700    0.0004846064    
0.0311099640    0.0199651280    0.0004793165    
0.0313326250    0.0199866320    0.0004742618    
0.0315552860    0.0204041080    0.0004853995    
0.0317779470    0.0199075640    0.0004798745    
0.0320006080    0.0195766620    0.0004650576    
0.0322232690    0.0206321440    0.0004794285    
0.0324459300    0.0203362060    0.0004724243    
0.0326685910    0.0203785980    0.0004721368    
0.0328912520    0.0206679480    0.0004770514    
0.0331139130    0.0203160830    0.0004668206    
0.0333365740    0.0198760270    0.0004632364    
0.0335592350    0.0199086350    0.0004591584    
0.0337818960    0.0200672560    0.0004606169    
0.0340045570    0.0204989090    0.0004648052    
0.0342272170    0.0205048130    0.0004630384    
0.0344498780    0.0201932940    0.0004613276    
0.0346725390    0.0196147080    0.0004462501    
0.0348952000    0.0199897190    0.0004484435    
0.0351178610    0.0202543440    0.0004534681    
0.0353405220    0.0197784780    0.0004460681    
0.0355631830    0.0194400720    0.0004405700    
0.0357858440    0.0203187330    0.0004504166    
0.0360085050    0.0191458900    0.0004385449    
0.0362311660    0.0207726390    0.0004513658    
0.0364538270    0.0206528510    0.0004464503    
0.0366764880    0.0198808510    0.0004377089    
0.0368991490    0.0194042540    0.0004302506    
0.0371218100    0.0206782600    0.0004428797    
0.0373444710    0.0196964950    0.0004369453    
0.0375671320    0.0200161000    0.0004398346    
0.0377897930    0.0198827800    0.0004270193    
0.0380124540    0.0196687430    0.0004273794    
0.0382351150    0.0198637720    0.0004294932    
0.0384577760    0.0199832620    0.0004266267    
0.0386804370    0.0202986730    0.0004332618    
0.0389030980    0.0193275020    0.0004195686    
0.0391257590    0.0203148820    0.0004272322    
0.0393484200    0.0205353530    0.0004280987    
0.0395710810    0.0196690130    0.0004195355    
0.0397937420    0.0198032560    0.0004209649    
0.0400164030    0.0196579760    0.0004211242    
0.0402390640    0.0192345500    0.0004110172    
0.0404617250    0.0194509330    0.0004108843    
0.0406843860    0.0195450870    0.0004078981    
0.0409070470    0.0198327490    0.0004151692    
0.0411297080    0.0197065830    0.0004098429    
0.0413523690    0.0205708270    0.0004198128    
0.0415750300    0.0199981270    0.0004174438    
0.0417976910    0.0204241190    0.0004109555    
0.0420203520    0.0195864870    0.0004039524    
0.0422430130    0.0196007630    0.0004056295    
0.0424656740    0.0199361170    0.0004037604    
0.0426883350    0.0197628640    0.0004039974    
0.0429109960    0.0202937560    0.0004106668    
0.0431336570    0.0200005850    0.0004019457    
0.0433563180    0.0196568550    0.0004019143    
0.0435789790    0.0196969140    0.0003960029    
0.0438016400    0.0201693550    0.0004029039    
0.0440243010    0.0194624850    0.0003917651    
0.0442469620    0.0197682510    0.0003971964    
0.0444696230    0.0198168940    0.0003962586    
0.0446922840    0.0195890990    0.0003928046    
0.0449149450    0.0211007140    0.0004022286    
0.0451376060    0.0202735570    0.0003991353    
0.0453602670    0.0194121550    0.0003864694    
0.0455829280    0.0183156350    0.0003749616    
0.0458055890    0.0196248850    0.0003903952    
0.0460282500    0.0196319760    0.0003857573    
0.0462509110    0.0195532190    0.0003825883    
0.0464735720    0.0197476750    0.0003847031    
0.0466962330    0.0197914970    0.0003868804    
0.0469188940    0.0197471220    0.0003853510    
0.0471415550    0.0202695700    0.0003924204    
0.0473642160    0.0193957040    0.0003784933    
0.0475868770    0.0196641800    0.0003792106    
0.0478095380    0.0194054690    0.0003750593    
0.0480321990    0.0193304210    0.0003751535    
0.0482548600    0.0196964380    0.0003770387    
0.0484775210    0.0199128350    0.0003828683    
0.0487001820    0.0197987050    0.0003761811    
0.0489228430    0.0194775590    0.0003729171    
0.0491455040    0.0199272900    0.0003745890    
0.0493681650    0.0198343100    0.0003769256    
0.0495908260    0.0198164240    0.0003704166    
0.0498134870    0.0198426800    0.0003741904    
0.0500361480    0.0188674480    0.0003639138    
0.0502588090    0.0196751630    0.0003660535    
0.0504814700    0.0195988330    0.0003701188    
0.0507041310    0.0193744210    0.0003636186    
0.0509267920    0.0195488180    0.0003667625    
0.0511494530    0.0192143000    0.0003611864    
0.0513721140    0.0193261990    0.0003654266    
0.0515947750    0.0193149590    0.0003604767    
0.0518174360    0.0197343520    0.0003621744    
0.0520400970    0.0197828270    0.0003601047    
0.0522627580    0.0186404680    0.0003525236    
0.0524854190    0.0200560320    0.0003686372    
0.0527080800    0.0198723700    0.0003697865    
0.0529307410    0.0196427230    0.0003693703    
0.0531534020    0.0200722710    0.0003720278    
0.0533760630    0.0195944810    0.0003687240    
0.0535987240    0.0194738070    0.0003658707    
0.0538213850    0.0188233080    0.0003638756    
0.0540440460    0.0194607820    0.0003682348    
0.0542667070    0.0195674660    0.0003717874    
0.0544893680    0.0199843330    0.0003759270    
0.0547120290    0.0188814270    0.0003629031    
0.0549346900    0.0196484140    0.0003703953    
0.0551573510    0.0187628130    0.0003662126    
0.0553800120    0.0197591510    0.0003726152    
0.0556026730    0.0198329320    0.0003810504    
0.0558253340    0.0195039280    0.0003810408    
0.0560479950    0.0199431580    0.0003853076    
0.0562706560    0.0193896230    0.0003835958    
0.0564933170    0.0191101320    0.0003841281    
0.0567159780    0.0196043210    0.0003843985    
0.0569386390    0.0191977810    0.0003863585    
0.0571613000    0.0188787240    0.0003748850    
0.0573839610    0.0192913230    0.0003758129    
0.0576066220    0.0205393550    0.0003888523    
0.0578292830    0.0191677330    0.0003744012    
0.0580519440    0.0194051100    0.0003781731    
0.0582746050    0.0194388900    0.0003768331    
0.0584972660    0.0193483540    0.0003745155    
0.0587199270    0.0191159610    0.0003690505    
0.0589425880    0.0202943020    0.0003780307    
0.0591652490    0.0202916030    0.0003802300    
0.0593879100    0.0190296640    0.0003654823    
0.0596105710    0.0195078800    0.0003696558    
0.0598332320    0.0194224320    0.0003719981    
0.0600558930    0.0198016110    0.0003732169    
0.0602785540    0.0197316910    0.0003721636    
0.0605012150    0.0194738830    0.0003689453    
0.0607238760    0.0203690050    0.0003745796    
0.0609465370    0.0194734540    0.0003691360    
0.0611691980    0.0197387950    0.0003722314    
0.0613918590    0.0191384790    0.0003625258    
0.0616145200    0.0192245510    0.0003659994    
0.0618371810    0.0200375070    0.0003699880    
0.0620598420    0.0190725060    0.0003613410    
0.0622825030    0.0193921490    0.0003699283    
0.0625051640    0.0199763130    0.0003701857    
0.0627278250    0.0192861000    0.0003629853    
0.0629504860    0.0194980450    0.0003620072    
0.0631731470    0.0203003670    0.0003739502    
0.0633958080    0.0197542910    0.0003710094    
0.0636184690    0.0194415940    0.0003731874    
0.0638411300    0.0191181640    0.0003686810    
0.0640637910    0.0202532560    0.0003821369    
0.0642864520    0.0197708550    0.0003767415    
0.0645091130    0.0192130190    0.0003746431    
0.0647317740    0.0199436230    0.0003821207    
0.0649544350    0.0202869490    0.0003849717    
0.0651770960    0.0190762790    0.0003712716    
0.0653997570    0.0199577000    0.0003789285    
0.0656224180    0.0196254890    0.0003765786    
0.0658450790    0.0193953000    0.0003689827    
0.0660677400    0.0195607410    0.0003721302    
0.0662904010    0.0195593420    0.0003765592    
0.0665130620    0.0195193830    0.0003745426    
0.0667357230    0.0200484270    0.0003863333    
0.0669583840    0.0188496290    0.0003733515    
0.0671810450    0.0198341530    0.0003808630    
0.0674037060    0.0203681780    0.0003924949    
0.0676263670    0.0192735490    0.0003790072    
0.0678490280    0.0190827010    0.0003748196    
0.0680716890    0.0193008350    0.0003777947    
0.0682943500    0.0193722620    0.0003743476    
0.0685170110    0.0193054740    0.0003698937    
0.0687396720    0.0193722170    0.0003695481    
0.0689623330    0.0197609940    0.0003720551    
0.0691849940    0.0198084950    0.0003750829    
0.0694076550    0.0197944510    0.0003747497    
0.0696303160    0.0191121660    0.0003653192    
0.0698529770    0.0196162450    0.0003693298    
0.0700756380    0.0196715090    0.0003651019    
0.0702982990    0.0193821320    0.0003663533    
0.0705209600    0.0193626280    0.0003635253    
0.0707436210    0.0203212930    0.0003707056    
0.0709662820    0.0193683560    0.0003662238    
0.0711889430    0.0200169350    0.0003677323    
0.0714116040    0.0198341990    0.0003667972    
0.0716342650    0.0192697640    0.0003600725    
0.0718569260    0.0200358930    0.0003656818    
0.0720795870    0.0194985760    0.0003622044    
0.0723022480    0.0196457820    0.0003641231    
0.0725249090    0.0195535730    0.0003589171    
0.0727475700    0.0197349020    0.0003636573    
0.0729702310    0.0197181250    0.0003606036    
0.0731928920    0.0196168010    0.0003611134    
0.0734155530    0.0195054880    0.0003593689    
0.0736382140    0.0196350400    0.0003582464    
0.0738608750    0.0201279160    0.0003650581    
0.0740835360    0.0193561050    0.0003571018    
0.0743061970    0.0193591680    0.0003521013    
0.0745288580    0.0195697810    0.0003576515    
0.0747515190    0.0196405960    0.0003590057    
0.0749741800    0.0191176390    0.0003509153    
0.0751968410    0.0195433400    0.0003575865    
0.0754195020    0.0196447950    0.0003564131    
0.0756421630    0.0194267120    0.0003515319    
0.0758648240    0.0199356860    0.0003569632    
0.0760874850    0.0193610000    0.0003516116    
0.0763101460    0.0194768250    0.0003523234    
0.0765328070    0.0198254170    0.0003590995    
0.0767554680    0.0195893560    0.0003545331    
0.0769781290    0.0198913230    0.0003552022    
0.0772007900    0.0198107160    0.0003516388    
0.0774234510    0.0195001370    0.0003508558    
0.0776461120    0.0200932410    0.0003558138    
0.0778687730    0.0192095940    0.0003467526    
0.0780914340    0.0191676430    0.0003488487    
0.0783140950    0.0196403420    0.0003475214    
0.0785367560    0.0196692690    0.0003533845    
0.0787594170    0.0194119260    0.0003479197    
0.0789820780    0.0189604510    0.0003420882    
0.0792047390    0.0199668010    0.0003521969    
0.0794274000    0.0193657390    0.0003483249    
0.0796500610    0.0189834140    0.0003415034    
0.0798727220    0.0196290540    0.0003469417    
0.0800953830    0.0195144590    0.0003451320    
0.0803180440    0.0192178720    0.0003448851    
0.0805407050    0.0192809900    0.0003451298    
0.0807633660    0.0202133310    0.0003530477    
0.0809860270    0.0199174190    0.0003491599    
0.0812086880    0.0197791950    0.0003449393    
0.0814313490    0.0191526360    0.0003409800    
0.0816540100    0.0195368780    0.0003435993    
0.0818766710    0.0192862440    0.0003421677    
0.0820993320    0.0193067400    0.0003417256    
0.0823219930    0.0193199650    0.0003432525    
0.0825446540    0.0198035390    0.0003449968    
0.0827673150    0.0197399520    0.0003421285    
0.0829899760    0.0198883500    0.0003428007    
0.0832126370    0.0195959400    0.0003417954    
0.0834352980    0.0197161350    0.0003420755    
0.0836579590    0.0192562150    0.0003373096    
0.0838806200    0.0192401680    0.0003382241    
0.0841032810    0.0199767980    0.0003424985    
0.0843259420    0.0198014240    0.0003399417    
0.0845486030    0.0193695920    0.0003362148    
0.0847712640    0.0191688170    0.0003324294    
0.0849939250    0.0193397690    0.0003344900    
0.0852165860    0.0195934810    0.0003371179    
0.0854392470    0.0197021810    0.0003348504    
0.0856619080    0.0195776530    0.0003362488    
0.0858845690    0.0192946470    0.0003308032    
0.0861072300    0.0197057160    0.0003366163    
0.0863298910    0.0189480850    0.0003318103    
0.0865525520    0.0191819030    0.0003309685    
0.0867752130    0.0199130750    0.0003344964    
0.0869978740    0.0189529750    0.0003271647    
0.0872205350    0.0190906710    0.0003279332    
0.0874431960    0.0194455880    0.0003309678    
0.0876658570    0.0190105230    0.0003285008    
0.0878885180    0.0195997970    0.0003341252    
0.0881111790    0.0191291080    0.0003296653    
0.0883338400    0.0194611680    0.0003276458    
0.0885565010    0.0191255380    0.0003292129    
0.0887791620    0.0194829280    0.0003279657    
0.0890018230    0.0192604690    0.0003292508    
0.0892244840    0.0194333160    0.0003312871    
0.0894471450    0.0191798910    0.0003277297    
0.0896698060    0.0194022850    0.0003283810    
0.0898924670    0.0191674750    0.0003279007    
0.0901151280    0.0196887580    0.0003287401    
0.0903377890    0.0193722760    0.0003288163    
0.0905604500    0.0194326690    0.0003278171    
0.0907831110    0.0195286910    0.0003278084    
0.0910057720    0.0191641210    0.0003262244    
0.0912284330    0.0194609440    0.0003240342    
0.0914510940    0.0198642950    0.0003310256    
0.0916737550    0.0193761090    0.0003261213    
0.0918964160    0.0193937050    0.0003276263    
0.0921190770    0.0198435450    0.0003284077    
0.0923417380    0.0192941160    0.0003239622    
0.0925643990    0.0193946670    0.0003240104    
0.0927870600    0.0197941910    0.0003286730    
0.0930097210    0.0192545920    0.0003214013    
0.0932323820    0.0192283970    0.0003235436    
