# Diamond Light Source Ltd.
# Data extracted from: /dls/b21/data/2018/cm19678-3/processed/b21-386631_00766.dat
q(1/A)          Column          Error           
0.0035000000    2.0817466000    0.0245251050    
0.0037226610    1.8573919000    0.0226781190    
0.0039453220    1.6361457000    0.0193630100    
0.0041679830    1.2926096000    0.0141338460    
0.0043906440    0.9751786900    0.0117423250    
0.0046133050    0.7656556400    0.0099883233    
0.0048359660    0.5844465000    0.0082545976    
0.0050586270    0.4657420400    0.0072428199    
0.0052812880    0.4284277700    0.0065679196    
0.0055039490    0.3742369300    0.0058367743    
0.0057266100    0.3120788800    0.0051563920    
0.0059492710    0.2618975100    0.0047236689    
0.0061719320    0.2240454500    0.0042100718    
0.0063945930    0.1970122900    0.0039957732    
0.0066172539    0.1824988800    0.0036111851    
0.0068399149    0.1685582600    0.0034158639    
0.0070625759    0.1445039600    0.0031303148    
0.0072852369    0.1274473100    0.0028957820    
0.0075078979    0.1147312300    0.0027340219    
0.0077305589    0.0992424750    0.0024943485    
0.0079532199    0.1017542200    0.0024907163    
0.0081758809    0.0942780630    0.0024197738    
0.0083985419    0.0826085680    0.0021126198    
0.0086212029    0.0757470450    0.0020229805    
0.0088438639    0.0693782530    0.0019205168    
0.0090665249    0.0662063120    0.0018120024    
0.0092891859    0.0631045580    0.0018464575    
0.0095118469    0.0598588330    0.0017294174    
0.0097345079    0.0579236490    0.0016522660    
0.0099571689    0.0523949370    0.0015390318    
0.0101798300    0.0500441810    0.0015041106    
0.0104024910    0.0482243010    0.0014715120    
0.0106251520    0.0484619520    0.0014801424    
0.0108478130    0.0447602330    0.0013852944    
0.0110704740    0.0425929840    0.0012865681    
0.0112931350    0.0400290010    0.0012509063    
0.0115157960    0.0400658270    0.0012441843    
0.0117384570    0.0376321900    0.0011954259    
0.0119611180    0.0371992070    0.0011919395    
0.0121837790    0.0365130280    0.0011610468    
0.0124064400    0.0351598370    0.0010918362    
0.0126291010    0.0339876640    0.0010600461    
0.0128517620    0.0342572920    0.0010669000    
0.0130744230    0.0335218810    0.0010475588    
0.0132970840    0.0311850020    0.0010054448    
0.0135197450    0.0325028850    0.0010117706    
0.0137424060    0.0312979530    0.0009790176    
0.0139650670    0.0313536780    0.0009580623    
0.0141877280    0.0286695690    0.0009181610    
0.0144103890    0.0292513870    0.0009114395    
0.0146330500    0.0296101620    0.0009111898    
0.0148557110    0.0299184920    0.0009120813    
0.0150783720    0.0288790620    0.0008886917    
0.0153010330    0.0290008210    0.0008780069    
0.0155236940    0.0271597450    0.0008446279    
0.0157463550    0.0269116230    0.0008261943    
0.0159690160    0.0253484530    0.0007987976    
0.0161916770    0.0256609920    0.0007991791    
0.0164143380    0.0259502090    0.0008097587    
0.0166369990    0.0256088280    0.0007796128    
0.0168596600    0.0256259080    0.0007730016    
0.0170823210    0.0249549350    0.0007562102    
0.0173049820    0.0247653550    0.0007546346    
0.0175276430    0.0256896220    0.0007766924    
0.0177503040    0.0237498190    0.0007277555    
0.0179729650    0.0231936390    0.0007120512    
0.0181956260    0.0235115880    0.0007031712    
0.0184182870    0.0241446070    0.0007092158    
0.0186409480    0.0229955320    0.0006965146    
0.0188636090    0.0238946350    0.0007055352    
0.0190862700    0.0229892840    0.0006909580    
0.0193089310    0.0215513090    0.0006679567    
0.0195315920    0.0224865400    0.0006590922    
0.0197542530    0.0226102310    0.0006618652    
0.0199769140    0.0218740010    0.0006510004    
0.0201995750    0.0220953950    0.0006440410    
0.0204222360    0.0231256330    0.0006645407    
0.0206448970    0.0239652840    0.0006716892    
0.0208675580    0.0231329150    0.0006463322    
0.0210902190    0.0224585560    0.0006429866    
0.0213128800    0.0212083640    0.0006163556    
0.0215355410    0.0223674500    0.0006254336    
0.0217582020    0.0208284940    0.0006035343    
0.0219808630    0.0214715280    0.0006119753    
0.0222035240    0.0223173550    0.0006182591    
0.0224261850    0.0222078770    0.0006112517    
0.0226488460    0.0214115710    0.0005956858    
0.0228715070    0.0221628080    0.0006045402    
0.0230941680    0.0222617580    0.0006058883    
0.0233168290    0.0204006780    0.0005814543    
0.0235394900    0.0206822560    0.0005789920    
0.0237621510    0.0211030920    0.0005691081    
0.0239848120    0.0211058010    0.0005698031    
0.0242074730    0.0209357880    0.0005629609    
0.0244301340    0.0204980750    0.0005576804    
0.0246527950    0.0212967240    0.0005737044    
0.0248754560    0.0205126580    0.0005503904    
0.0250981170    0.0208119160    0.0005556269    
0.0253207780    0.0199506880    0.0005277664    
0.0255434390    0.0210776080    0.0005482569    
0.0257661000    0.0202094580    0.0005385839    
0.0259887610    0.0217772860    0.0005531436    
0.0262114220    0.0216549600    0.0005545267    
0.0264340830    0.0203098100    0.0005297210    
0.0266567440    0.0209465850    0.0005346370    
0.0268794050    0.0206135330    0.0005282050    
0.0271020660    0.0214001760    0.0005360104    
0.0273247270    0.0206000450    0.0005227360    
0.0275473880    0.0206766890    0.0005226655    
0.0277700490    0.0199237740    0.0005100284    
0.0279927100    0.0205269910    0.0005131748    
0.0282153710    0.0205975260    0.0005165549    
0.0284380320    0.0209484290    0.0005179166    
0.0286606930    0.0207424010    0.0005109524    
0.0288833540    0.0210107940    0.0005152243    
0.0291060150    0.0205547960    0.0005091191    
0.0293286760    0.0195200160    0.0004892250    
0.0295513370    0.0212324510    0.0005046770    
0.0297739980    0.0200963190    0.0004963946    
0.0299966590    0.0208253880    0.0004966880    
0.0302193200    0.0209490330    0.0005054200    
0.0304419810    0.0203775490    0.0004993957    
0.0306646420    0.0203068100    0.0004844576    
0.0308873030    0.0207390380    0.0004874716    
0.0311099640    0.0206050080    0.0004871555    
0.0313326250    0.0209394800    0.0004856531    
0.0315552860    0.0209887590    0.0004925256    
0.0317779470    0.0207243120    0.0004898393    
0.0320006080    0.0201471280    0.0004719967    
0.0322232690    0.0208848330    0.0004825720    
0.0324459300    0.0201237930    0.0004701615    
0.0326685910    0.0201560340    0.0004697623    
0.0328912520    0.0199811620    0.0004692690    
0.0331139130    0.0200981320    0.0004645182    
0.0333365740    0.0204990140    0.0004706513    
0.0335592350    0.0201914940    0.0004626163    
0.0337818960    0.0196725660    0.0004562694    
0.0340045570    0.0210131090    0.0004708100    
0.0342272170    0.0204395020    0.0004625079    
0.0344498780    0.0196628930    0.0004554330    
0.0346725390    0.0200286280    0.0004511364    
0.0348952000    0.0198264230    0.0004468086    
0.0351178610    0.0193681440    0.0004436358    
0.0353405220    0.0200882500    0.0004497495    
0.0355631830    0.0197473450    0.0004442375    
0.0357858440    0.0199971970    0.0004470392    
0.0360085050    0.0198367070    0.0004465870    
0.0362311660    0.0194268040    0.0004366952    
0.0364538270    0.0199662520    0.0004391636    
0.0366764880    0.0201301970    0.0004406429    
0.0368991490    0.0201378190    0.0004385046    
0.0371218100    0.0198423730    0.0004340307    
0.0373444710    0.0201216620    0.0004418343    
0.0375671320    0.0195020260    0.0004343446    
0.0377897930    0.0204881080    0.0004336654    
0.0380124540    0.0195469840    0.0004262458    
0.0382351150    0.0197607780    0.0004285706    
0.0384577760    0.0198826950    0.0004257429    
0.0386804370    0.0196689830    0.0004266802    
0.0389030980    0.0195363020    0.0004220183    
0.0391257590    0.0198295190    0.0004222872    
0.0393484200    0.0201875600    0.0004246485    
0.0395710810    0.0196508500    0.0004195300    
0.0397937420    0.0201166090    0.0004244728    
0.0400164030    0.0202896470    0.0004280288    
0.0402390640    0.0196913620    0.0004160560    
0.0404617250    0.0192512160    0.0004089529    
0.0406843860    0.0200994190    0.0004138277    
0.0409070470    0.0202941970    0.0004201598    
0.0411297080    0.0197754680    0.0004107429    
0.0413523690    0.0201433840    0.0004156147    
0.0415750300    0.0202777340    0.0004205406    
0.0417976910    0.0204010790    0.0004109081    
0.0420203520    0.0189953580    0.0003979886    
0.0422430130    0.0197359910    0.0004072091    
0.0424656740    0.0200031280    0.0004046200    
0.0426883350    0.0198302080    0.0004048668    
0.0429109960    0.0194053440    0.0004017575    
0.0431336570    0.0198649310    0.0004007601    
0.0433563180    0.0205545960    0.0004111742    
0.0435789790    0.0196667910    0.0003958776    
0.0438016400    0.0198007960    0.0003993850    
0.0440243010    0.0197088610    0.0003944139    
0.0442469620    0.0201374710    0.0004010685    
0.0444696230    0.0203026020    0.0004012654    
0.0446922840    0.0193622970    0.0003906994    
0.0449149450    0.0203906050    0.0003955800    
0.0451376060    0.0193400950    0.0003900132    
0.0453602670    0.0198993480    0.0003914647    
0.0455829280    0.0203758110    0.0003956655    
0.0458055890    0.0200311620    0.0003945926    
0.0460282500    0.0195964990    0.0003855816    
0.0462509110    0.0195782710    0.0003830052    
0.0464735720    0.0197579080    0.0003849755    
0.0466962330    0.0203769800    0.0003927374    
0.0469188940    0.0199756010    0.0003877478    
0.0471415550    0.0205082930    0.0003949017    
0.0473642160    0.0195979380    0.0003806322    
0.0475868770    0.0198648240    0.0003813114    
0.0478095380    0.0201919760    0.0003827562    
0.0480321990    0.0196319850    0.0003782382    
0.0482548600    0.0193312580    0.0003736948    
0.0484775210    0.0196359940    0.0003803683    
0.0487001820    0.0201169520    0.0003793626    
0.0489228430    0.0193521250    0.0003718813    
0.0491455040    0.0194377460    0.0003701253    
0.0493681650    0.0195581760    0.0003744606    
0.0495908260    0.0197025460    0.0003695166    
0.0498134870    0.0201430100    0.0003771808    
0.0500361480    0.0198468770    0.0003734074    
0.0502588090    0.0196723830    0.0003661920    
0.0504814700    0.0199312480    0.0003734120    
0.0507041310    0.0189136850    0.0003594303    
0.0509267920    0.0204617020    0.0003753967    
0.0511494530    0.0194626050    0.0003636759    
0.0513721140    0.0189839320    0.0003623389    
0.0515947750    0.0199854690    0.0003668448    
0.0518174360    0.0192996860    0.0003583244    
0.0520400970    0.0201942430    0.0003639932    
0.0522627580    0.0198850070    0.0003642651    
0.0524854190    0.0198027720    0.0003664667    
0.0527080800    0.0199590880    0.0003707588    
0.0529307410    0.0203555670    0.0003761817    
0.0531534020    0.0192414110    0.0003644102    
0.0533760630    0.0195217950    0.0003682047    
0.0535987240    0.0193330540    0.0003647097    
0.0538213850    0.0192555980    0.0003681954    
0.0540440460    0.0199176180    0.0003726991    
0.0542667070    0.0193799960    0.0003701683    
0.0544893680    0.0195068230    0.0003715754    
0.0547120290    0.0194568870    0.0003685572    
0.0549346900    0.0192746950    0.0003670205    
0.0551573510    0.0192089120    0.0003707069    
0.0553800120    0.0193971120    0.0003693516    
0.0556026730    0.0196162570    0.0003791333    
0.0558253340    0.0197822250    0.0003839219    
0.0560479950    0.0200728320    0.0003867318    
0.0562706560    0.0198020120    0.0003878277    
0.0564933170    0.0192664020    0.0003858686    
0.0567159780    0.0194936790    0.0003834843    
0.0569386390    0.0193006290    0.0003875660    
0.0571613000    0.0196780310    0.0003829106    
0.0573839610    0.0193526150    0.0003765784    
0.0576066220    0.0199609610    0.0003835102    
0.0578292830    0.0193825790    0.0003766627    
0.0580519440    0.0192528750    0.0003768559    
0.0582746050    0.0199974110    0.0003823799    
0.0584972660    0.0195326130    0.0003764634    
0.0587199270    0.0199246960    0.0003769454    
0.0589425880    0.0194949510    0.0003706774    
0.0591652490    0.0184057800    0.0003622932    
0.0593879100    0.0197141980    0.0003721648    
0.0596105710    0.0202405120    0.0003767022    
0.0598332320    0.0190262600    0.0003683499    
0.0600558930    0.0196011340    0.0003714895    
0.0602785540    0.0193208390    0.0003684339    
0.0605012150    0.0191275700    0.0003658142    
0.0607238760    0.0191738500    0.0003635874    
0.0609465370    0.0191267570    0.0003659995    
0.0611691980    0.0198619090    0.0003735580    
0.0613918590    0.0191762860    0.0003630466    
0.0616145200    0.0195347320    0.0003691058    
0.0618371810    0.0199187440    0.0003690555    
0.0620598420    0.0197611280    0.0003679714    
0.0622825030    0.0195084490    0.0003712025    
0.0625051640    0.0196303460    0.0003671309    
0.0627278250    0.0192555550    0.0003628605    
0.0629504860    0.0196164640    0.0003632678    
0.0631731470    0.0187672960    0.0003597143    
0.0633958080    0.0190536820    0.0003645344    
0.0636184690    0.0193586750    0.0003725579    
0.0638411300    0.0197046250    0.0003744611    
0.0640637910    0.0197518490    0.0003775464    
0.0642864520    0.0197526830    0.0003767374    
0.0645091130    0.0201003880    0.0003833691    
0.0647317740    0.0197197080    0.0003801401    
0.0649544350    0.0198810770    0.0003812723    
0.0651770960    0.0201637980    0.0003818792    
0.0653997570    0.0199108140    0.0003786530    
0.0656224180    0.0195780230    0.0003762917    
0.0658450790    0.0186117590    0.0003616150    
0.0660677400    0.0198617430    0.0003751507    
0.0662904010    0.0192648960    0.0003738819    
0.0665130620    0.0197167440    0.0003766003    
0.0667357230    0.0193063960    0.0003792866    
0.0669583840    0.0196437200    0.0003813057    
0.0671810450    0.0192517220    0.0003753978    
0.0674037060    0.0193644970    0.0003828741    
0.0676263670    0.0197309810    0.0003836506    
0.0678490280    0.0192693200    0.0003768171    
0.0680716890    0.0199028940    0.0003838140    
0.0682943500    0.0191941700    0.0003727902    
0.0685170110    0.0193015310    0.0003700219    
0.0687396720    0.0196365710    0.0003722280    
0.0689623330    0.0198067850    0.0003726531    
0.0691849940    0.0186746670    0.0003643534    
0.0694076550    0.0194997760    0.0003721169    
0.0696303160    0.0196325490    0.0003704255    
0.0698529770    0.0196756210    0.0003700544    
0.0700756380    0.0205166220    0.0003730295    
0.0702982990    0.0193579530    0.0003662891    
0.0705209600    0.0199196780    0.0003688829    
0.0707436210    0.0195950000    0.0003641841    
0.0709662820    0.0200511170    0.0003727901    
0.0711889430    0.0194195960    0.0003623665    
0.0714116040    0.0199606400    0.0003681296    
0.0716342650    0.0191793210    0.0003593877    
0.0718569260    0.0199870840    0.0003654001    
0.0720795870    0.0197719900    0.0003648987    
0.0723022480    0.0192378680    0.0003604848    
0.0725249090    0.0194788160    0.0003583912    
0.0727475700    0.0202489560    0.0003685285    
0.0729702310    0.0198018380    0.0003615304    
0.0731928920    0.0191753270    0.0003571871    
0.0734155530    0.0197350670    0.0003616398    
0.0736382140    0.0201825900    0.0003633702    
0.0738608750    0.0195429370    0.0003598756    
0.0740835360    0.0196834110    0.0003602701    
0.0743061970    0.0197611360    0.0003558977    
0.0745288580    0.0197247420    0.0003592259    
0.0747515190    0.0192116050    0.0003552227    
0.0749741800    0.0194893940    0.0003544698    
0.0751968410    0.0193840760    0.0003562864    
0.0754195020    0.0200054620    0.0003598314    
0.0756421630    0.0198452650    0.0003554582    
0.0758648240    0.0200751400    0.0003583704    
0.0760874850    0.0203626460    0.0003607541    
0.0763101460    0.0191753640    0.0003497431    
0.0765328070    0.0191791770    0.0003533569    
0.0767554680    0.0196775920    0.0003554901    
0.0769781290    0.0195600130    0.0003523898    
0.0772007900    0.0194224410    0.0003483321    
0.0774234510    0.0196376990    0.0003522493    
0.0776461120    0.0191527050    0.0003475423    
0.0778687730    0.0199159790    0.0003532290    
0.0780914340    0.0196995880    0.0003538150    
0.0783140950    0.0190917510    0.0003427874    
0.0785367560    0.0197123520    0.0003539301    
0.0787594170    0.0192670830    0.0003467749    
0.0789820780    0.0188230390    0.0003409993    
0.0792047390    0.0192696590    0.0003461491    
0.0794274000    0.0196088800    0.0003506621    
0.0796500610    0.0192279760    0.0003438505    
0.0798727220    0.0195546170    0.0003464387    
0.0800953830    0.0191104310    0.0003416938    
0.0803180440    0.0203502100    0.0003550596    
0.0805407050    0.0195270900    0.0003474813    
0.0807633660    0.0191390570    0.0003436922    
0.0809860270    0.0197086290    0.0003474809    
0.0812086880    0.0192490490    0.0003404380    
0.0814313490    0.0190908480    0.0003405823    
0.0816540100    0.0196935360    0.0003451290    
0.0818766710    0.0195952140    0.0003450525    
0.0820993320    0.0194088330    0.0003427817    
0.0823219930    0.0190931570    0.0003413850    
0.0825446540    0.0196468720    0.0003437837    
0.0827673150    0.0195974330    0.0003410442    
0.0829899760    0.0195927740    0.0003403966    
0.0832126370    0.0197985160    0.0003437118    
0.0834352980    0.0201377840    0.0003458692    
0.0836579590    0.0197052260    0.0003413728    
0.0838806200    0.0194954870    0.0003406137    
0.0841032810    0.0196009550    0.0003394137    
0.0843259420    0.0201171080    0.0003427946    
0.0845486030    0.0195213340    0.0003376807    
0.0847712640    0.0192148820    0.0003329781    
0.0849939250    0.0194903150    0.0003359401    
0.0852165860    0.0193904670    0.0003355174    
0.0854392470    0.0193040600    0.0003315987    
0.0856619080    0.0190345450    0.0003317009    
0.0858845690    0.0200158800    0.0003370804    
0.0861072300    0.0196083060    0.0003359340    
0.0863298910    0.0189302070    0.0003318027    
0.0865525520    0.0201022140    0.0003389672    
0.0867752130    0.0189017910    0.0003260384    
0.0869978740    0.0190265210    0.0003279460    
0.0872205350    0.0195757850    0.0003322227    
0.0874431960    0.0196716650    0.0003330356    
0.0876658570    0.0192094060    0.0003303630    
0.0878885180    0.0199024520    0.0003368462    
0.0881111790    0.0199594500    0.0003368953    
0.0883338400    0.0196166740    0.0003290999    
0.0885565010    0.0195737790    0.0003331979    
0.0887791620    0.0197601350    0.0003304389    
0.0890018230    0.0187989210    0.0003254279    
0.0892244840    0.0191229140    0.0003287782    
0.0894471450    0.0197464050    0.0003326838    
0.0896698060    0.0197812900    0.0003317216    
0.0898924670    0.0184828780    0.0003221363    
0.0901151280    0.0196789700    0.0003288059    
0.0903377890    0.0195125700    0.0003301530    
0.0905604500    0.0193781650    0.0003275040    
0.0907831110    0.0193314350    0.0003262951    
0.0910057720    0.0194370080    0.0003286863    
0.0912284330    0.0195648240    0.0003250437    
0.0914510940    0.0192692720    0.0003261764    
0.0916737550    0.0195088820    0.0003273837    
0.0918964160    0.0196160900    0.0003296473    
0.0921190770    0.0190290490    0.0003217416    
0.0923417380    0.0197796650    0.0003281605    
0.0925643990    0.0199376130    0.0003286618    
0.0927870600    0.0197027210    0.0003280599    
0.0930097210    0.0195027810    0.0003236113    
0.0932323820    0.0190876460    0.0003225019    
