# Diamond Light Source Ltd.
# Data extracted from: /dls/b21/data/2018/cm19678-3/processed/b21-386631_00772.dat
q(1/A)          Column          Error           
0.0035000000    2.0667296000    0.0244433660    
0.0037226610    1.8886360000    0.0228745010    
0.0039453220    1.6524289000    0.0194646010    
0.0041679830    1.2840595000    0.0140909900    
0.0043906440    0.9583268400    0.0116437010    
0.0046133050    0.7866861100    0.0101274200    
0.0048359660    0.5949243000    0.0083306065    
0.0050586270    0.4672439700    0.0072565311    
0.0052812880    0.4208109200    0.0065111059    
0.0055039490    0.3817344000    0.0058966109    
0.0057266100    0.3112316700    0.0051508377    
0.0059492710    0.2695466000    0.0047935021    
0.0061719320    0.2269420900    0.0042383928    
0.0063945930    0.2004478000    0.0040315966    
0.0066172539    0.1796702900    0.0035840993    
0.0068399149    0.1708695600    0.0034401718    
0.0070625759    0.1517094300    0.0032083125    
0.0072852369    0.1265974100    0.0028869228    
0.0075078979    0.1085378000    0.0026599527    
0.0077305589    0.0998629090    0.0025028377    
0.0079532199    0.0994934610    0.0024635850    
0.0081758809    0.0919697640    0.0023906402    
0.0083985419    0.0808171040    0.0020901752    
0.0086212029    0.0786007270    0.0020613150    
0.0088438639    0.0720769860    0.0019580644    
0.0090665249    0.0658466270    0.0018075823    
0.0092891859    0.0605993520    0.0018099441    
0.0095118469    0.0614923390    0.0017533494    
0.0097345079    0.0601254990    0.0016838508    
0.0099571689    0.0521982780    0.0015365733    
0.0101798300    0.0518364270    0.0015312382    
0.0104024910    0.0516658980    0.0015235442    
0.0106251520    0.0475845910    0.0014670958    
0.0108478130    0.0470590270    0.0014208219    
0.0110704740    0.0452222020    0.0013260560    
0.0112931350    0.0428285520    0.0012942743    
0.0115157960    0.0385420660    0.0012206395    
0.0117384570    0.0386032640    0.0012110921    
0.0119611180    0.0371437270    0.0011913856    
0.0121837790    0.0372354470    0.0011728063    
0.0124064400    0.0370115540    0.0011205338    
0.0126291010    0.0325512580    0.0010376962    
0.0128517620    0.0350744850    0.0010798541    
0.0130744230    0.0337700400    0.0010517251    
0.0132970840    0.0323053550    0.0010236344    
0.0135197450    0.0315758040    0.0009975176    
0.0137424060    0.0315913500    0.0009838726    
0.0139650670    0.0297895850    0.0009341228    
0.0141877280    0.0307746210    0.0009515396    
0.0144103890    0.0281028270    0.0008936179    
0.0146330500    0.0272982110    0.0008751405    
0.0148557110    0.0284051870    0.0008889652    
0.0150783720    0.0278008040    0.0008721888    
0.0153010330    0.0276075190    0.0008568972    
0.0155236940    0.0280160460    0.0008580809    
0.0157463550    0.0280180600    0.0008432445    
0.0159690160    0.0260175740    0.0008094996    
0.0161916770    0.0282155920    0.0008382513    
0.0164143380    0.0267991340    0.0008231289    
0.0166369990    0.0264544010    0.0007926023    
0.0168596600    0.0248937580    0.0007620935    
0.0170823210    0.0245792050    0.0007507069    
0.0173049820    0.0234448530    0.0007344469    
0.0175276430    0.0241063930    0.0007525902    
0.0177503040    0.0238524430    0.0007295315    
0.0179729650    0.0248690070    0.0007375275    
0.0181956260    0.0224516910    0.0006873324    
0.0184182870    0.0242415780    0.0007108386    
0.0186409480    0.0237683940    0.0007083219    
0.0188636090    0.0234286780    0.0006988189    
0.0190862700    0.0237294910    0.0007021912    
0.0193089310    0.0213770170    0.0006654375    
0.0195315920    0.0236782840    0.0006765224    
0.0197542530    0.0224484920    0.0006596794    
0.0199769140    0.0239799610    0.0006818104    
0.0201995750    0.0227088990    0.0006531049    
0.0204222360    0.0224508000    0.0006549572    
0.0206448970    0.0224718640    0.0006506072    
0.0208675580    0.0219353410    0.0006295570    
0.0210902190    0.0217712800    0.0006332500    
0.0213128800    0.0222777370    0.0006318813    
0.0215355410    0.0225550260    0.0006282274    
0.0217582020    0.0212076820    0.0006091748    
0.0219808630    0.0225132960    0.0006268220    
0.0222035240    0.0215416060    0.0006075897    
0.0224261850    0.0226412230    0.0006173604    
0.0226488460    0.0207106120    0.0005860190    
0.0228715070    0.0212678170    0.0005923746    
0.0230941680    0.0213173240    0.0005930638    
0.0233168290    0.0209925270    0.0005899944    
0.0235394900    0.0214399210    0.0005896678    
0.0237621510    0.0208385600    0.0005656891    
0.0239848120    0.0213331720    0.0005730253    
0.0242074730    0.0214019710    0.0005693544    
0.0244301340    0.0214053000    0.0005700485    
0.0246527950    0.0207984200    0.0005671125    
0.0248754560    0.0207606290    0.0005538630    
0.0250981170    0.0211650060    0.0005604781    
0.0253207780    0.0205206880    0.0005354033    
0.0255434390    0.0213320480    0.0005517114    
0.0257661000    0.0210681600    0.0005500619    
0.0259887610    0.0208055050    0.0005408133    
0.0262114220    0.0209425480    0.0005454824    
0.0264340830    0.0216483480    0.0005470524    
0.0266567440    0.0210266480    0.0005358086    
0.0268794050    0.0210314130    0.0005336822    
0.0271020660    0.0208346060    0.0005290289    
0.0273247270    0.0199613090    0.0005147130    
0.0275473880    0.0208866230    0.0005254600    
0.0277700490    0.0210192690    0.0005240100    
0.0279927100    0.0202946550    0.0005104060    
0.0282153710    0.0204665450    0.0005150548    
0.0284380320    0.0204221260    0.0005115131    
0.0286606930    0.0212326330    0.0005171006    
0.0288833540    0.0214145080    0.0005202971    
0.0291060150    0.0209448920    0.0005140722    
0.0293286760    0.0196536900    0.0004910354    
0.0295513370    0.0201401780    0.0004916628    
0.0297739980    0.0201935130    0.0004977336    
0.0299966590    0.0205882070    0.0004939905    
0.0302193200    0.0205704060    0.0005009727    
0.0304419810    0.0201930930    0.0004972703    
0.0306646420    0.0201447820    0.0004826569    
0.0308873030    0.0216334810    0.0004980127    
0.0311099640    0.0202939360    0.0004836004    
0.0313326250    0.0204553830    0.0004801415    
0.0315552860    0.0206883440    0.0004891258    
0.0317779470    0.0200061680    0.0004814129    
0.0320006080    0.0208333720    0.0004801030    
0.0322232690    0.0206176740    0.0004796105    
0.0324459300    0.0205198020    0.0004748987    
0.0326685910    0.0211642510    0.0004815034    
0.0328912520    0.0201909030    0.0004718583    
0.0331139130    0.0194004620    0.0004565130    
0.0333365740    0.0199267030    0.0004641654    
0.0335592350    0.0197680510    0.0004578686    
0.0337818960    0.0198318800    0.0004582421    
0.0340045570    0.0195367300    0.0004540970    
0.0342272170    0.0197808300    0.0004551227    
0.0344498780    0.0200328250    0.0004598266    
0.0346725390    0.0196230430    0.0004466709    
0.0348952000    0.0198073620    0.0004467195    
0.0351178610    0.0202331110    0.0004535614    
0.0353405220    0.0200491870    0.0004494384    
0.0355631830    0.0196784700    0.0004435870    
0.0357858440    0.0191085270    0.0004371162    
0.0360085050    0.0196969810    0.0004451366    
0.0362311660    0.0196341830    0.0004391435    
0.0364538270    0.0203737590    0.0004437474    
0.0366764880    0.0203152490    0.0004427883    
0.0368991490    0.0204262210    0.0004417578    
0.0371218100    0.0196350630    0.0004318790    
0.0373444710    0.0202591870    0.0004434665    
0.0375671320    0.0200356770    0.0004403711    
0.0377897930    0.0199669480    0.0004282348    
0.0380124540    0.0196602910    0.0004275998    
0.0382351150    0.0198370060    0.0004295173    
0.0384577760    0.0199486200    0.0004265682    
0.0386804370    0.0195411400    0.0004254110    
0.0389030980    0.0203591130    0.0004309350    
0.0391257590    0.0200566370    0.0004248182    
0.0393484200    0.0199218620    0.0004219635    
0.0395710810    0.0197873790    0.0004211034    
0.0397937420    0.0196708910    0.0004198622    
0.0400164030    0.0202649330    0.0004278884    
0.0402390640    0.0204500880    0.0004241151    
0.0404617250    0.0196619010    0.0004134083    
0.0406843860    0.0197441570    0.0004102696    
0.0409070470    0.0197398870    0.0004144987    
0.0411297080    0.0194366250    0.0004073234    
0.0413523690    0.0194339960    0.0004083457    
0.0415750300    0.0197219290    0.0004148539    
0.0417976910    0.0194850990    0.0004016906    
0.0420203520    0.0201824600    0.0004103516    
0.0422430130    0.0192006750    0.0004017616    
0.0424656740    0.0203092020    0.0004078186    
0.0426883350    0.0196097950    0.0004027238    
0.0429109960    0.0197408470    0.0004053297    
0.0431336570    0.0191965910    0.0003940717    
0.0433563180    0.0199571680    0.0004052687    
0.0435789790    0.0197097580    0.0003964214    
0.0438016400    0.0199650900    0.0004011514    
0.0440243010    0.0197989330    0.0003954255    
0.0442469620    0.0204685060    0.0004044654    
0.0444696230    0.0197744430    0.0003961232    
0.0446922840    0.0195467380    0.0003926663    
0.0449149450    0.0205249440    0.0003969927    
0.0451376060    0.0195792000    0.0003925272    
0.0453602670    0.0200492490    0.0003930470    
0.0455829280    0.0199260340    0.0003913843    
0.0458055890    0.0198557830    0.0003929720    
0.0460282500    0.0193038940    0.0003827998    
0.0462509110    0.0196642640    0.0003839534    
0.0464735720    0.0200992680    0.0003883962    
0.0466962330    0.0194114440    0.0003834278    
0.0469188940    0.0196856150    0.0003850314    
0.0471415550    0.0190362040    0.0003805719    
0.0473642160    0.0195276090    0.0003800556    
0.0475868770    0.0195830690    0.0003787041    
0.0478095380    0.0199274830    0.0003803481    
0.0480321990    0.0197524110    0.0003795033    
0.0482548600    0.0201227680    0.0003813758    
0.0484775210    0.0191678540    0.0003759126    
0.0487001820    0.0199922780    0.0003782917    
0.0489228430    0.0197634390    0.0003759183    
0.0491455040    0.0193852260    0.0003697290    
0.0493681650    0.0194615870    0.0003736400    
0.0495908260    0.0196997720    0.0003695946    
0.0498134870    0.0197868820    0.0003739369    
0.0500361480    0.0199494350    0.0003744764    
0.0502588090    0.0196084360    0.0003656992    
0.0504814700    0.0196344790    0.0003707259    
0.0507041310    0.0193685680    0.0003638292    
0.0509267920    0.0197496670    0.0003689111    
0.0511494530    0.0196027540    0.0003650857    
0.0513721140    0.0192022130    0.0003645187    
0.0515947750    0.0197541750    0.0003648186    
0.0518174360    0.0192905840    0.0003583407    
0.0520400970    0.0200743240    0.0003630130    
0.0522627580    0.0194822560    0.0003606589    
0.0524854190    0.0197664240    0.0003662333    
0.0527080800    0.0197291390    0.0003687207    
0.0529307410    0.0193305920    0.0003666915    
0.0531534020    0.0193282050    0.0003653340    
0.0533760630    0.0193451730    0.0003666384    
0.0535987240    0.0199910330    0.0003709684    
0.0538213850    0.0198440820    0.0003738846    
0.0540440460    0.0195450500    0.0003693008    
0.0542667070    0.0196951080    0.0003732706    
0.0544893680    0.0200985260    0.0003772750    
0.0547120290    0.0198520310    0.0003723856    
0.0549346900    0.0196142000    0.0003703430    
0.0551573510    0.0196205870    0.0003747637    
0.0553800120    0.0198302540    0.0003735578    
0.0556026730    0.0197372800    0.0003804081    
0.0558253340    0.0197710000    0.0003839210    
0.0560479950    0.0197113780    0.0003833419    
0.0562706560    0.0197295630    0.0003872265    
0.0564933170    0.0189215530    0.0003825073    
0.0567159780    0.0188706040    0.0003774121    
0.0569386390    0.0187897750    0.0003825101    
0.0571613000    0.0197934840    0.0003841404    
0.0573839610    0.0198034250    0.0003810465    
0.0576066220    0.0193602810    0.0003778020    
0.0578292830    0.0197889800    0.0003806981    
0.0580519440    0.0199279820    0.0003835142    
0.0582746050    0.0200671970    0.0003831544    
0.0584972660    0.0194927920    0.0003761854    
0.0587199270    0.0193508240    0.0003715820    
0.0589425880    0.0193155240    0.0003690715    
0.0591652490    0.0199145520    0.0003769560    
0.0593879100    0.0201611400    0.0003764658    
0.0596105710    0.0196416170    0.0003711917    
0.0598332320    0.0197790440    0.0003756719    
0.0600558930    0.0192247190    0.0003680088    
0.0602785540    0.0195285510    0.0003705134    
0.0605012150    0.0204263640    0.0003781363    
0.0607238760    0.0200193620    0.0003716221    
0.0609465370    0.0193407440    0.0003681448    
0.0611691980    0.0196762600    0.0003719128    
0.0613918590    0.0195928330    0.0003670718    
0.0616145200    0.0203272820    0.0003766249    
0.0618371810    0.0199915360    0.0003698333    
0.0620598420    0.0199847870    0.0003701521    
0.0622825030    0.0191236740    0.0003676270    
0.0625051640    0.0198818510    0.0003695792    
0.0627278250    0.0197111120    0.0003672311    
0.0629504860    0.0197150120    0.0003642817    
0.0631731470    0.0195091110    0.0003668578    
0.0633958080    0.0194133200    0.0003680622    
0.0636184690    0.0197928370    0.0003768185    
0.0638411300    0.0199435650    0.0003768307    
0.0640637910    0.0199362670    0.0003794116    
0.0642864520    0.0197134790    0.0003764693    
0.0645091130    0.0191386770    0.0003741907    
0.0647317740    0.0197821380    0.0003808485    
0.0649544350    0.0193362540    0.0003761177    
0.0651770960    0.0193357270    0.0003740609    
0.0653997570    0.0192879800    0.0003727885    
0.0656224180    0.0195022100    0.0003756682    
0.0658450790    0.0195009780    0.0003702569    
0.0660677400    0.0191993890    0.0003689462    
0.0662904010    0.0197912160    0.0003790614    
0.0665130620    0.0206778920    0.0003857789    
0.0667357230    0.0196825880    0.0003830718    
0.0669583840    0.0194918550    0.0003799358    
0.0671810450    0.0197679300    0.0003805044    
0.0674037060    0.0198450160    0.0003877045    
0.0676263670    0.0192569360    0.0003791206    
0.0678490280    0.0199363600    0.0003833915    
0.0680716890    0.0201510860    0.0003863084    
0.0682943500    0.0192701780    0.0003736327    
0.0685170110    0.0200363480    0.0003771057    
0.0687396720    0.0189769400    0.0003660257    
0.0689623330    0.0201967590    0.0003764097    
0.0691849940    0.0194177960    0.0003716367    
0.0694076550    0.0194326000    0.0003715799    
0.0696303160    0.0189722670    0.0003642456    
0.0698529770    0.0199304340    0.0003725477    
0.0700756380    0.0194695320    0.0003634881    
0.0702982990    0.0191122660    0.0003640597    
0.0705209600    0.0194866190    0.0003649538    
0.0707436210    0.0190100650    0.0003588082    
0.0709662820    0.0199098410    0.0003715790    
0.0711889430    0.0201679710    0.0003693867    
0.0714116040    0.0195642910    0.0003645590    
0.0716342650    0.0197089540    0.0003644187    
0.0718569260    0.0195705670    0.0003616745    
0.0720795870    0.0198505050    0.0003657255    
0.0723022480    0.0197353250    0.0003652186    
0.0725249090    0.0197075110    0.0003605904    
0.0727475700    0.0194483330    0.0003612711    
0.0729702310    0.0193044550    0.0003570616    
0.0731928920    0.0191528390    0.0003570781    
0.0734155530    0.0204291410    0.0003680478    
0.0736382140    0.0195197310    0.0003574539    
0.0738608750    0.0195605720    0.0003601393    
0.0740835360    0.0192788320    0.0003566487    
0.0743061970    0.0190219050    0.0003492757    
0.0745288580    0.0194740130    0.0003570360    
0.0747515190    0.0198204530    0.0003609092    
0.0749741800    0.0195648750    0.0003552555    
0.0751968410    0.0201157510    0.0003630505    
0.0754195020    0.0194533310    0.0003549311    
0.0756421630    0.0199838470    0.0003567975    
0.0758648240    0.0194079350    0.0003524640    
0.0760874850    0.0197602030    0.0003554775    
0.0763101460    0.0193776410    0.0003516819    
0.0765328070    0.0198348530    0.0003594474    
0.0767554680    0.0199842590    0.0003583504    
0.0769781290    0.0195011530    0.0003519582    
0.0772007900    0.0197209100    0.0003510971    
0.0774234510    0.0196487570    0.0003524476    
0.0776461120    0.0195420900    0.0003511563    
0.0778687730    0.0204850800    0.0003583411    
0.0780914340    0.0194881400    0.0003520101    
0.0783140950    0.0193549850    0.0003452396    
0.0785367560    0.0199587090    0.0003562352    
0.0787594170    0.0198774400    0.0003523239    
0.0789820780    0.0196495350    0.0003485034    
0.0792047390    0.0196226940    0.0003494039    
0.0794274000    0.0194505140    0.0003493415    
0.0796500610    0.0195341220    0.0003466746    
0.0798727220    0.0192524310    0.0003438482    
0.0800953830    0.0192251110    0.0003428140    
0.0803180440    0.0196054670    0.0003486002    
0.0805407050    0.0201382100    0.0003529762    
0.0807633660    0.0198353010    0.0003499863    
0.0809860270    0.0198607140    0.0003489172    
0.0812086880    0.0194104970    0.0003419589    
0.0814313490    0.0194602850    0.0003439587    
0.0816540100    0.0193536210    0.0003422339    
0.0818766710    0.0202385120    0.0003507694    
0.0820993320    0.0202253860    0.0003500166    
0.0823219930    0.0194764590    0.0003448917    
0.0825446540    0.0195796880    0.0003432920    
0.0827673150    0.0187770980    0.0003339239    
0.0829899760    0.0196097240    0.0003406397    
0.0832126370    0.0190633690    0.0003373651    
0.0834352980    0.0198459960    0.0003434509    
0.0836579590    0.0195683900    0.0003402812    
0.0838806200    0.0194290580    0.0003401286    
0.0841032810    0.0197237250    0.0003405708    
0.0843259420    0.0192517620    0.0003354352    
0.0845486030    0.0193803700    0.0003365540    
0.0847712640    0.0190409510    0.0003315609    
0.0849939250    0.0188639920    0.0003305913    
0.0852165860    0.0191864600    0.0003338417    
0.0854392470    0.0192408390    0.0003311485    
0.0856619080    0.0193633590    0.0003346478    
0.0858845690    0.0194478060    0.0003323562    
0.0861072300    0.0201664090    0.0003407772    
0.0863298910    0.0196507850    0.0003381539    
0.0865525520    0.0187867380    0.0003277809    
0.0867752130    0.0199478070    0.0003350326    
0.0869978740    0.0194218260    0.0003314285    
0.0872205350    0.0191862710    0.0003289935    
0.0874431960    0.0191355290    0.0003285584    
0.0876658570    0.0195272000    0.0003331782    
0.0878885180    0.0191721020    0.0003307010    
0.0881111790    0.0191798270    0.0003303431    
0.0883338400    0.0192907390    0.0003264463    
0.0885565010    0.0196075010    0.0003335786    
0.0887791620    0.0193676540    0.0003272329    
0.0890018230    0.0197395540    0.0003335641    
0.0892244840    0.0198236940    0.0003348425    
0.0894471450    0.0195275900    0.0003309286    
0.0896698060    0.0193749850    0.0003283896    
0.0898924670    0.0194932260    0.0003309169    
0.0901151280    0.0195196460    0.0003275643    
0.0903377890    0.0197024170    0.0003318486    
0.0905604500    0.0192229320    0.0003262814    
0.0907831110    0.0199870650    0.0003318755    
0.0910057720    0.0198928580    0.0003326118    
0.0912284330    0.0195326150    0.0003248675    
0.0914510940    0.0191585860    0.0003253298    
0.0916737550    0.0199156510    0.0003308722    
0.0918964160    0.0190506820    0.0003249532    
0.0921190770    0.0191322960    0.0003227041    
0.0923417380    0.0193604490    0.0003247556    
0.0925643990    0.0192007580    0.0003226221    
0.0927870600    0.0190033090    0.0003222752    
0.0930097210    0.0193310900    0.0003222744    
0.0932323820    0.0189784500    0.0003216687    
