# Diamond Light Source Ltd.
# Data extracted from: /dls/b21/data/2018/cm19678-3/processed/b21-386631_00781.dat
q(1/A)          Column          Error           
0.0035000000    2.0963447000    0.0246237170    
0.0037226610    1.8648638000    0.0227354800    
0.0039453220    1.6132996000    0.0192373270    
0.0041679830    1.2784810000    0.0140636850    
0.0043906440    0.9583572500    0.0116466500    
0.0046133050    0.7779290200    0.0100732860    
0.0048359660    0.5899549600    0.0082977104    
0.0050586270    0.4616027700    0.0072143049    
0.0052812880    0.4147615800    0.0064656710    
0.0055039490    0.3765391300    0.0058577382    
0.0057266100    0.3211020600    0.0052331188    
0.0059492710    0.2697598700    0.0047965364    
0.0061719320    0.2226941600    0.0041995347    
0.0063945930    0.1995694700    0.0040237088    
0.0066172539    0.1864794500    0.0036522497    
0.0068399149    0.1661000400    0.0033926240    
0.0070625759    0.1437036500    0.0031232544    
0.0072852369    0.1282382700    0.0029062613    
0.0075078979    0.1153721000    0.0027430698    
0.0077305589    0.1023578800    0.0025345116    
0.0079532199    0.1005782200    0.0024775666    
0.0081758809    0.0928838300    0.0024030611    
0.0083985419    0.0851821910    0.0021463895    
0.0086212029    0.0763124390    0.0020315702    
0.0088438639    0.0673747540    0.0018935655    
0.0090665249    0.0688069010    0.0018482060    
0.0092891859    0.0644680860    0.0018672680    
0.0095118469    0.0610213620    0.0017470365    
0.0097345079    0.0587858380    0.0016653813    
0.0099571689    0.0502318880    0.0015077107    
0.0101798300    0.0499603730    0.0015036305    
0.0104024910    0.0487238480    0.0014798815    
0.0106251520    0.0462043110    0.0014460045    
0.0108478130    0.0469526160    0.0014195514    
0.0110704740    0.0441155000    0.0013100404    
0.0112931350    0.0410097110    0.0012667942    
0.0115157960    0.0398753640    0.0012418677    
0.0117384570    0.0376712590    0.0011966670    
0.0119611180    0.0364731900    0.0011808631    
0.0121837790    0.0354791690    0.0011450852    
0.0124064400    0.0376400570    0.0011302760    
0.0126291010    0.0338905640    0.0010590801    
0.0128517620    0.0364548710    0.0011011596    
0.0130744230    0.0326063470    0.0010336907    
0.0132970840    0.0315418820    0.0010117063    
0.0135197450    0.0309287140    0.0009874778    
0.0137424060    0.0307479810    0.0009708813    
0.0139650670    0.0299502570    0.0009368609    
0.0141877280    0.0281400640    0.0009101147    
0.0144103890    0.0288837510    0.0009061639    
0.0146330500    0.0298654550    0.0009155843    
0.0148557110    0.0297268790    0.0009096277    
0.0150783720    0.0269927240    0.0008596235    
0.0153010330    0.0290309290    0.0008789184    
0.0155236940    0.0270564720    0.0008434580    
0.0157463550    0.0265587010    0.0008211850    
0.0159690160    0.0267858790    0.0008215600    
0.0161916770    0.0270330570    0.0008206922    
0.0164143380    0.0251424410    0.0007974698    
0.0166369990    0.0253978300    0.0007767974    
0.0168596600    0.0246254780    0.0007581557    
0.0170823210    0.0240403330    0.0007426084    
0.0173049820    0.0232948540    0.0007322675    
0.0175276430    0.0250345990    0.0007671245    
0.0177503040    0.0251362060    0.0007490840    
0.0179729650    0.0252965900    0.0007440174    
0.0181956260    0.0237254640    0.0007067287    
0.0184182870    0.0234397860    0.0006991502    
0.0186409480    0.0241598170    0.0007143000    
0.0188636090    0.0225847910    0.0006862808    
0.0190862700    0.0230963060    0.0006929238    
0.0193089310    0.0236875310    0.0007006428    
0.0195315920    0.0241923250    0.0006839887    
0.0197542530    0.0214894120    0.0006455868    
0.0199769140    0.0225367380    0.0006611317    
0.0201995750    0.0231519010    0.0006596010    
0.0204222360    0.0229775960    0.0006627540    
0.0206448970    0.0228029050    0.0006555374    
0.0208675580    0.0225242280    0.0006381032    
0.0210902190    0.0218369000    0.0006343542    
0.0213128800    0.0217862450    0.0006250205    
0.0215355410    0.0222681270    0.0006243673    
0.0217582020    0.0217779560    0.0006174573    
0.0219808630    0.0222970000    0.0006239517    
0.0222035240    0.0216547070    0.0006093273    
0.0224261850    0.0217256840    0.0006048931    
0.0226488460    0.0225618940    0.0006117953    
0.0228715070    0.0213274370    0.0005933452    
0.0230941680    0.0215585480    0.0005965515    
0.0233168290    0.0202061920    0.0005789764    
0.0235394900    0.0213851990    0.0005890546    
0.0237621510    0.0210174550    0.0005682469    
0.0239848120    0.0199573720    0.0005543715    
0.0242074730    0.0218818970    0.0005758394    
0.0244301340    0.0218255470    0.0005757537    
0.0246527950    0.0210094160    0.0005701171    
0.0248754560    0.0217757480    0.0005673770    
0.0250981170    0.0213680960    0.0005632944    
0.0253207780    0.0203068190    0.0005327324    
0.0255434390    0.0209567330    0.0005469663    
0.0257661000    0.0217103650    0.0005585151    
0.0259887610    0.0209700920    0.0005430771    
0.0262114220    0.0192609400    0.0005232483    
0.0264340830    0.0208841170    0.0005374371    
0.0266567440    0.0208180690    0.0005332710    
0.0268794050    0.0208381660    0.0005313508    
0.0271020660    0.0206966660    0.0005273999    
0.0273247270    0.0202629130    0.0005187100    
0.0275473880    0.0209362170    0.0005262084    
0.0277700490    0.0216304580    0.0005317001    
0.0279927100    0.0205868300    0.0005141889    
0.0282153710    0.0202558090    0.0005125179    
0.0284380320    0.0204702760    0.0005122374    
0.0286606930    0.0202977540    0.0005057085    
0.0288833540    0.0205014160    0.0005092046    
0.0291060150    0.0210053300    0.0005149355    
0.0293286760    0.0211850040    0.0005099272    
0.0295513370    0.0202578140    0.0004932136    
0.0297739980    0.0208045300    0.0005053276    
0.0299966590    0.0205742660    0.0004939405    
0.0302193200    0.0211538790    0.0005081486    
0.0304419810    0.0204477110    0.0005005143    
0.0306646420    0.0203626010    0.0004853744    
0.0308873030    0.0204623500    0.0004844602    
0.0311099640    0.0199115660    0.0004791365    
0.0313326250    0.0195743280    0.0004697989    
0.0315552860    0.0207328760    0.0004897682    
0.0317779470    0.0204792610    0.0004871874    
0.0320006080    0.0198470380    0.0004687114    
0.0322232690    0.0197791480    0.0004698678    
0.0324459300    0.0211783090    0.0004825731    
0.0326685910    0.0195084130    0.0004623937    
0.0328912520    0.0204321730    0.0004747818    
0.0331139130    0.0204629120    0.0004689580    
0.0333365740    0.0196873680    0.0004614790    
0.0335592350    0.0203079480    0.0004641892    
0.0337818960    0.0190044240    0.0004486870    
0.0340045570    0.0204119020    0.0004642667    
0.0342272170    0.0198530810    0.0004560614    
0.0344498780    0.0202218520    0.0004621006    
0.0346725390    0.0196832210    0.0004474615    
0.0348952000    0.0194538970    0.0004428207    
0.0351178610    0.0202834070    0.0004542326    
0.0353405220    0.0203107000    0.0004524675    
0.0355631830    0.0199779290    0.0004470555    
0.0357858440    0.0202880650    0.0004505123    
0.0360085050    0.0206222050    0.0004555794    
0.0362311660    0.0198891720    0.0004420908    
0.0364538270    0.0196582160    0.0004359889    
0.0366764880    0.0198034970    0.0004372794    
0.0368991490    0.0195087520    0.0004318252    
0.0371218100    0.0199485080    0.0004354158    
0.0373444710    0.0202493820    0.0004434644    
0.0375671320    0.0198805680    0.0004387674    
0.0377897930    0.0203347910    0.0004322639    
0.0380124540    0.0195765820    0.0004267898    
0.0382351150    0.0199952960    0.0004313300    
0.0384577760    0.0204508840    0.0004320074    
0.0386804370    0.0194948250    0.0004250074    
0.0389030980    0.0209619570    0.0004373724    
0.0391257590    0.0201651860    0.0004260673    
0.0393484200    0.0197971940    0.0004207410    
0.0395710810    0.0197609100    0.0004209215    
0.0397937420    0.0199581750    0.0004230174    
0.0400164030    0.0198045250    0.0004231002    
0.0402390640    0.0194214080    0.0004134086    
0.0404617250    0.0201234490    0.0004183317    
0.0406843860    0.0194805990    0.0004076189    
0.0409070470    0.0201236940    0.0004186082    
0.0411297080    0.0204706680    0.0004181172    
0.0413523690    0.0203874860    0.0004183424    
0.0415750300    0.0203075160    0.0004210677    
0.0417976910    0.0200080140    0.0004071415    
0.0420203520    0.0195826930    0.0004043043    
0.0422430130    0.0201433680    0.0004116038    
0.0424656740    0.0193766410    0.0003984400    
0.0426883350    0.0198921680    0.0004057092    
0.0429109960    0.0196169980    0.0004041522    
0.0431336570    0.0202335720    0.0004046714    
0.0433563180    0.0193491190    0.0003991419    
0.0435789790    0.0198547250    0.0003979710    
0.0438016400    0.0197729690    0.0003993114    
0.0440243010    0.0207011710    0.0004044308    
0.0442469620    0.0198065450    0.0003979658    
0.0444696230    0.0200220000    0.0003986896    
0.0446922840    0.0195402360    0.0003926942    
0.0449149450    0.0194438080    0.0003864873    
0.0451376060    0.0195570030    0.0003923978    
0.0453602670    0.0194574680    0.0003872948    
0.0455829280    0.0203815820    0.0003959269    
0.0458055890    0.0200208330    0.0003946956    
0.0460282500    0.0190776270    0.0003806401    
0.0462509110    0.0199811180    0.0003871263    
0.0464735720    0.0200337220    0.0003878544    
0.0466962330    0.0194661250    0.0003840586    
0.0469188940    0.0197627720    0.0003858768    
0.0471415550    0.0203240600    0.0003933280    
0.0473642160    0.0194406760    0.0003792987    
0.0475868770    0.0194971160    0.0003779618    
0.0478095380    0.0190290690    0.0003717636    
0.0480321990    0.0194554050    0.0003767287    
0.0482548600    0.0196116590    0.0003765906    
0.0484775210    0.0194867370    0.0003791165    
0.0487001820    0.0196437010    0.0003750683    
0.0489228430    0.0191933740    0.0003705450    
0.0491455040    0.0200717180    0.0003763080    
0.0493681650    0.0203966430    0.0003826015    
0.0495908260    0.0194524420    0.0003673543    
0.0498134870    0.0195488240    0.0003717689    
0.0500361480    0.0201276930    0.0003762350    
0.0502588090    0.0199179830    0.0003686619    
0.0504814700    0.0198398900    0.0003727485    
0.0507041310    0.0193982770    0.0003641946    
0.0509267920    0.0197176790    0.0003686997    
0.0511494530    0.0199045760    0.0003679728    
0.0513721140    0.0196059420    0.0003684182    
0.0515947750    0.0198579230    0.0003658621    
0.0518174360    0.0193596810    0.0003590672    
0.0520400970    0.0192563320    0.0003556244    
0.0522627580    0.0192443560    0.0003585352    
0.0524854190    0.0195449900    0.0003642626    
0.0527080800    0.0201452730    0.0003726774    
0.0529307410    0.0200983290    0.0003739912    
0.0531534020    0.0198348070    0.0003701787    
0.0533760630    0.0192222700    0.0003655587    
0.0535987240    0.0197043730    0.0003683865    
0.0538213850    0.0193178750    0.0003689817    
0.0540440460    0.0194426310    0.0003684193    
0.0542667070    0.0192514830    0.0003691303    
0.0544893680    0.0195837570    0.0003725006    
0.0547120290    0.0194072010    0.0003682773    
0.0549346900    0.0198263940    0.0003724293    
0.0551573510    0.0194222170    0.0003729529    
0.0553800120    0.0194735720    0.0003702709    
0.0556026730    0.0193725510    0.0003769664    
0.0558253340    0.0196237550    0.0003825795    
0.0560479950    0.0192060890    0.0003784864    
0.0562706560    0.0198833990    0.0003888255    
0.0564933170    0.0200677620    0.0003940161    
0.0567159780    0.0193930880    0.0003826921    
0.0569386390    0.0198737990    0.0003934827    
0.0571613000    0.0196760840    0.0003830904    
0.0573839610    0.0201795970    0.0003847399    
0.0576066220    0.0191629440    0.0003759609    
0.0578292830    0.0200401770    0.0003831977    
0.0580519440    0.0194353160    0.0003788338    
0.0582746050    0.0192569690    0.0003754287    
0.0584972660    0.0196400510    0.0003776933    
0.0587199270    0.0194670920    0.0003727851    
0.0589425880    0.0202912830    0.0003783686    
0.0591652490    0.0194314400    0.0003724440    
0.0593879100    0.0191790560    0.0003672693    
0.0596105710    0.0195526880    0.0003704383    
0.0598332320    0.0205951070    0.0003834345    
0.0600558930    0.0194170930    0.0003699333    
0.0602785540    0.0198121120    0.0003732823    
0.0605012150    0.0191614350    0.0003663279    
0.0607238760    0.0189383910    0.0003615356    
0.0609465370    0.0192587870    0.0003674511    
0.0611691980    0.0194886760    0.0003702236    
0.0613918590    0.0199117520    0.0003701351    
0.0616145200    0.0201274910    0.0003748585    
0.0618371810    0.0202816720    0.0003725958    
0.0620598420    0.0192397750    0.0003632734    
0.0622825030    0.0191186130    0.0003676656    
0.0625051640    0.0196575990    0.0003675763    
0.0627278250    0.0196794010    0.0003670227    
0.0629504860    0.0193741960    0.0003612050    
0.0631731470    0.0194010430    0.0003659272    
0.0633958080    0.0198833170    0.0003725794    
0.0636184690    0.0190342620    0.0003696147    
0.0638411300    0.0195327460    0.0003730178    
0.0640637910    0.0194039260    0.0003744006    
0.0642864520    0.0201616040    0.0003808146    
0.0645091130    0.0187744710    0.0003707012    
0.0647317740    0.0193880710    0.0003771256    
0.0649544350    0.0192576010    0.0003754410    
0.0651770960    0.0195621040    0.0003763335    
0.0653997570    0.0198233580    0.0003780166    
0.0656224180    0.0199458620    0.0003800074    
0.0658450790    0.0196860680    0.0003720982    
0.0660677400    0.0195206080    0.0003721081    
0.0662904010    0.0190960420    0.0003724329    
0.0665130620    0.0194491840    0.0003742304    
0.0667357230    0.0196844740    0.0003831811    
0.0669583840    0.0196492950    0.0003815577    
0.0671810450    0.0192643810    0.0003757161    
0.0674037060    0.0192103060    0.0003815446    
0.0676263670    0.0193855590    0.0003804749    
0.0678490280    0.0196950280    0.0003811544    
0.0680716890    0.0200346960    0.0003852826    
0.0682943500    0.0194315330    0.0003752828    
0.0685170110    0.0204009080    0.0003806113    
0.0687396720    0.0198335380    0.0003742843    
0.0689623330    0.0196238110    0.0003711204    
0.0691849940    0.0193843190    0.0003714044    
0.0694076550    0.0193494160    0.0003708718    
0.0696303160    0.0198068520    0.0003722593    
0.0698529770    0.0192780200    0.0003664864    
0.0700756380    0.0195127230    0.0003639775    
0.0702982990    0.0201759280    0.0003741419    
0.0705209600    0.0206241840    0.0003755442    
0.0707436210    0.0190190910    0.0003589786    
0.0709662820    0.0194544420    0.0003673921    
0.0711889430    0.0200624790    0.0003685068    
0.0714116040    0.0196279510    0.0003652383    
0.0716342650    0.0193138340    0.0003608329    
0.0718569260    0.0195932340    0.0003619698    
0.0720795870    0.0199947570    0.0003671390    
0.0723022480    0.0203059310    0.0003705487    
0.0725249090    0.0199148950    0.0003625688    
0.0727475700    0.0196388490    0.0003631224    
0.0729702310    0.0196902470    0.0003606974    
0.0731928920    0.0200744050    0.0003656546    
0.0734155530    0.0186808750    0.0003520310    
0.0736382140    0.0190509250    0.0003532191    
0.0738608750    0.0196295640    0.0003608595    
0.0740835360    0.0195256200    0.0003590093    
0.0743061970    0.0198778970    0.0003571328    
0.0745288580    0.0200857670    0.0003626866    
0.0747515190    0.0188502060    0.0003520483    
0.0749741800    0.0196322490    0.0003559512    
0.0751968410    0.0197647510    0.0003599546    
0.0754195020    0.0194949620    0.0003553950    
0.0756421630    0.0191201810    0.0003490852    
0.0758648240    0.0191609870    0.0003502975    
0.0760874850    0.0199295330    0.0003570821    
0.0763101460    0.0198402230    0.0003559393    
0.0765328070    0.0194988700    0.0003564747    
0.0767554680    0.0199423170    0.0003580591    
0.0769781290    0.0192562060    0.0003498238    
0.0772007900    0.0191049080    0.0003456522    
0.0774234510    0.0199427110    0.0003551585    
0.0776461120    0.0188190600    0.0003446807    
0.0778687730    0.0197359720    0.0003518116    
0.0780914340    0.0193574450    0.0003509111    
0.0783140950    0.0194997180    0.0003466103    
0.0785367560    0.0195801450    0.0003529243    
0.0787594170    0.0196869470    0.0003507149    
0.0789820780    0.0195104500    0.0003473502    
0.0792047390    0.0191402770    0.0003451641    
0.0794274000    0.0197798930    0.0003523707    
0.0796500610    0.0199311870    0.0003502634    
0.0798727220    0.0196240710    0.0003472335    
0.0800953830    0.0199620220    0.0003494053    
0.0803180440    0.0197636080    0.0003500864    
0.0805407050    0.0199249400    0.0003511855    
0.0807633660    0.0192516020    0.0003448801    
0.0809860270    0.0193059290    0.0003440910    
0.0812086880    0.0196065580    0.0003437632    
0.0814313490    0.0198223000    0.0003472257    
0.0816540100    0.0196231610    0.0003446906    
0.0818766710    0.0192871110    0.0003425067    
0.0820993320    0.0191926350    0.0003410441    
0.0823219930    0.0197667800    0.0003475352    
0.0825446540    0.0196552250    0.0003440352    
0.0827673150    0.0196593670    0.0003417599    
0.0829899760    0.0191750310    0.0003369230    
0.0832126370    0.0196876600    0.0003429261    
0.0834352980    0.0194867350    0.0003404089    
0.0836579590    0.0190744750    0.0003360391    
0.0838806200    0.0200876160    0.0003459271    
0.0841032810    0.0190859110    0.0003350985    
0.0843259420    0.0195591130    0.0003381825    
0.0845486030    0.0193018620    0.0003359514    
0.0847712640    0.0191308580    0.0003324217    
0.0849939250    0.0197308110    0.0003381817    
0.0852165860    0.0190502810    0.0003327338    
0.0854392470    0.0195407770    0.0003337988    
0.0856619080    0.0197602350    0.0003381402    
0.0858845690    0.0197411670    0.0003349330    
0.0861072300    0.0198994430    0.0003385944    
0.0863298910    0.0194447100    0.0003364560    
0.0865525520    0.0195738050    0.0003346561    
0.0867752130    0.0195519400    0.0003317703    
0.0869978740    0.0192726110    0.0003302313    
0.0872205350    0.0189809080    0.0003273057    
0.0874431960    0.0196920870    0.0003333813    
0.0876658570    0.0197241590    0.0003349338    
0.0878885180    0.0196834210    0.0003351614    
0.0881111790    0.0190010860    0.0003288783    
0.0883338400    0.0194159640    0.0003275819    
0.0885565010    0.0191966540    0.0003301436    
0.0887791620    0.0193657870    0.0003272948    
0.0890018230    0.0193823700    0.0003306109    
0.0892244840    0.0191371080    0.0003290709    
0.0894471450    0.0195649150    0.0003313233    
0.0896698060    0.0197294350    0.0003314584    
0.0898924670    0.0192720490    0.0003291123    
0.0901151280    0.0194739190    0.0003272581    
0.0903377890    0.0195216440    0.0003304011    
0.0905604500    0.0196808630    0.0003302233    
0.0907831110    0.0192798320    0.0003260284    
0.0910057720    0.0192513200    0.0003272823    
0.0912284330    0.0195418890    0.0003250217    
0.0914510940    0.0194053440    0.0003274960    
0.0916737550    0.0190781670    0.0003239176    
0.0918964160    0.0189599100    0.0003242550    
0.0921190770    0.0195879210    0.0003266015    
0.0923417380    0.0191843390    0.0003233520    
0.0925643990    0.0198932300    0.0003284662    
0.0927870600    0.0194497740    0.0003261164    
0.0930097210    0.0192650150    0.0003217995    
0.0932323820    0.0194674660    0.0003258638    
