# Diamond Light Source Ltd.
# Data extracted from: /dls/b21/data/2018/cm19678-3/processed/b21-386631_00785.dat
q(1/A)          Column          Error           
0.0035000000    2.0361791000    0.0242694810    
0.0037226610    1.8928453000    0.0229070080    
0.0039453220    1.6139831000    0.0192427410    
0.0041679830    1.2819084000    0.0140835040    
0.0043906440    0.9756192700    0.0117518910    
0.0046133050    0.7798637500    0.0100865070    
0.0048359660    0.5778978900    0.0082130533    
0.0050586270    0.4571564000    0.0071799750    
0.0052812880    0.4231863000    0.0065314617    
0.0055039490    0.3813308700    0.0058953029    
0.0057266100    0.3070726200    0.0051178770    
0.0059492710    0.2657031400    0.0047606655    
0.0061719320    0.2310417300    0.0042778171    
0.0063945930    0.1982179300    0.0040103402    
0.0066172539    0.1814976000    0.0036033850    
0.0068399149    0.1620342100    0.0033510774    
0.0070625759    0.1467787200    0.0031567142    
0.0072852369    0.1235132200    0.0028524156    
0.0075078979    0.1144749700    0.0027325744    
0.0077305589    0.1011795700    0.0025200567    
0.0079532199    0.0966857340    0.0024293205    
0.0081758809    0.0914666290    0.0023848240    
0.0083985419    0.0792439950    0.0020703680    
0.0086212029    0.0775130800    0.0020476320    
0.0088438639    0.0689809180    0.0019161366    
0.0090665249    0.0627093940    0.0017645376    
0.0092891859    0.0615020330    0.0018239345    
0.0095118469    0.0587787600    0.0017147527    
0.0097345079    0.0563875280    0.0016311695    
0.0099571689    0.0546291300    0.0015724276    
0.0101798300    0.0494694690    0.0014963293    
0.0104024910    0.0490902700    0.0014855392    
0.0106251520    0.0454865820    0.0014348294    
0.0108478130    0.0447700180    0.0013862614    
0.0110704740    0.0448998040    0.0013217263    
0.0112931350    0.0425808980    0.0012909231    
0.0115157960    0.0399196000    0.0012426429    
0.0117384570    0.0396154590    0.0012272437    
0.0119611180    0.0372812500    0.0011939556    
0.0121837790    0.0349666340    0.0011368633    
0.0124064400    0.0349975690    0.0010899550    
0.0126291010    0.0351531180    0.0010787023    
0.0128517620    0.0323016510    0.0010366093    
0.0130744230    0.0319553930    0.0010233916    
0.0132970840    0.0326822010    0.0010299036    
0.0135197450    0.0313429390    0.0009941377    
0.0137424060    0.0294951920    0.0009509632    
0.0139650670    0.0297492610    0.0009337770    
0.0141877280    0.0312645510    0.0009593784    
0.0144103890    0.0280347880    0.0008928095    
0.0146330500    0.0290274260    0.0009027100    
0.0148557110    0.0279493850    0.0008820748    
0.0150783720    0.0283928540    0.0008816976    
0.0153010330    0.0278107670    0.0008603097    
0.0155236940    0.0274810020    0.0008501086    
0.0157463550    0.0282130270    0.0008464331    
0.0159690160    0.0269912250    0.0008247605    
0.0161916770    0.0246695430    0.0007840495    
0.0164143380    0.0264108300    0.0008173947    
0.0166369990    0.0253063200    0.0007754507    
0.0168596600    0.0256560850    0.0007739119    
0.0170823210    0.0251219760    0.0007591835    
0.0173049820    0.0249096280    0.0007572750    
0.0175276430    0.0235569590    0.0007441926    
0.0177503040    0.0252290130    0.0007505179    
0.0179729650    0.0242714750    0.0007288370    
0.0181956260    0.0229497400    0.0006951276    
0.0184182870    0.0233596240    0.0006980023    
0.0186409480    0.0235717750    0.0007056026    
0.0188636090    0.0239227730    0.0007063660    
0.0190862700    0.0232450650    0.0006952002    
0.0193089310    0.0234006540    0.0006964357    
0.0195315920    0.0228224780    0.0006643880    
0.0197542530    0.0238782950    0.0006805723    
0.0199769140    0.0224040950    0.0006592292    
0.0201995750    0.0233054840    0.0006618313    
0.0204222360    0.0223116390    0.0006531246    
0.0206448970    0.0227118420    0.0006542727    
0.0208675580    0.0224550460    0.0006371668    
0.0210902190    0.0229273310    0.0006500448    
0.0213128800    0.0214844090    0.0006207189    
0.0215355410    0.0214833310    0.0006133090    
0.0217582020    0.0219385690    0.0006197732    
0.0219808630    0.0214968130    0.0006126960    
0.0222035240    0.0219149400    0.0006130203    
0.0224261850    0.0215939590    0.0006030985    
0.0226488460    0.0208228830    0.0005877857    
0.0228715070    0.0209011580    0.0005874264    
0.0230941680    0.0217101370    0.0005986868    
0.0233168290    0.0220175300    0.0006044121    
0.0235394900    0.0223131590    0.0006017411    
0.0237621510    0.0212508690    0.0005714334    
0.0239848120    0.0221625450    0.0005842373    
0.0242074730    0.0216879190    0.0005733213    
0.0244301340    0.0211602100    0.0005669496    
0.0246527950    0.0213991670    0.0005754211    
0.0248754560    0.0206107410    0.0005520294    
0.0250981170    0.0206136540    0.0005532995    
0.0253207780    0.0206031800    0.0005366431    
0.0255434390    0.0203171560    0.0005385927    
0.0257661000    0.0201757760    0.0005384516    
0.0259887610    0.0211699430    0.0005456968    
0.0262114220    0.0197469910    0.0005298462    
0.0264340830    0.0205135490    0.0005326847    
0.0266567440    0.0208892790    0.0005342195    
0.0268794050    0.0211662870    0.0005355551    
0.0271020660    0.0206054600    0.0005262732    
0.0273247270    0.0206375840    0.0005235201    
0.0275473880    0.0207804030    0.0005242831    
0.0277700490    0.0207446030    0.0005207349    
0.0279927100    0.0204355640    0.0005123321    
0.0282153710    0.0212572950    0.0005250716    
0.0284380320    0.0197680420    0.0005034096    
0.0286606930    0.0200737590    0.0005029454    
0.0288833540    0.0203018850    0.0005067560    
0.0291060150    0.0199477430    0.0005018399    
0.0293286760    0.0203041000    0.0004992476    
0.0295513370    0.0202846550    0.0004935746    
0.0297739980    0.0200954330    0.0004966758    
0.0299966590    0.0205889910    0.0004941516    
0.0302193200    0.0199726290    0.0004937915    
0.0304419810    0.0198379000    0.0004930288    
0.0306646420    0.0204580070    0.0004865441    
0.0308873030    0.0201784130    0.0004811207    
0.0311099640    0.0196837160    0.0004764204    
0.0313326250    0.0204115600    0.0004797742    
0.0315552860    0.0200646290    0.0004818441    
0.0317779470    0.0201807360    0.0004836572    
0.0320006080    0.0204476210    0.0004757835    
0.0322232690    0.0205410280    0.0004788652    
0.0324459300    0.0202794610    0.0004722543    
0.0326685910    0.0208922550    0.0004785462    
0.0328912520    0.0201371000    0.0004713738    
0.0331139130    0.0199605670    0.0004631983    
0.0333365740    0.0192898170    0.0004568277    
0.0335592350    0.0201197660    0.0004620657    
0.0337818960    0.0200347660    0.0004607215    
0.0340045570    0.0202352050    0.0004622851    
0.0342272170    0.0201911430    0.0004599600    
0.0344498780    0.0203197190    0.0004632497    
0.0346725390    0.0201234290    0.0004524690    
0.0348952000    0.0203437470    0.0004528667    
0.0351178610    0.0194926890    0.0004453218    
0.0353405220    0.0205151520    0.0004547708    
0.0355631830    0.0200907710    0.0004483475    
0.0357858440    0.0204309660    0.0004521276    
0.0360085050    0.0195480230    0.0004435864    
0.0362311660    0.0200000510    0.0004433522    
0.0364538270    0.0199897650    0.0004396807    
0.0366764880    0.0196227740    0.0004353099    
0.0368991490    0.0194541110    0.0004312501    
0.0371218100    0.0187631440    0.0004223107    
0.0373444710    0.0200773640    0.0004416075    
0.0375671320    0.0200964080    0.0004411735    
0.0377897930    0.0204203340    0.0004332024    
0.0380124540    0.0196072260    0.0004271534    
0.0382351150    0.0200911390    0.0004323926    
0.0384577760    0.0199243630    0.0004264397    
0.0386804370    0.0197755470    0.0004280863    
0.0389030980    0.0201160590    0.0004284865    
0.0391257590    0.0196277810    0.0004203809    
0.0393484200    0.0198625530    0.0004214643    
0.0395710810    0.0194229100    0.0004173352    
0.0397937420    0.0202299700    0.0004259177    
0.0400164030    0.0199971300    0.0004251822    
0.0402390640    0.0200401930    0.0004199720    
0.0404617250    0.0198392310    0.0004153959    
0.0406843860    0.0201572100    0.0004146661    
0.0409070470    0.0198042640    0.0004153015    
0.0411297080    0.0201318670    0.0004146716    
0.0413523690    0.0200039820    0.0004144179    
0.0415750300    0.0205810330    0.0004239234    
0.0417976910    0.0192153400    0.0003990228    
0.0420203520    0.0201030230    0.0004096690    
0.0422430130    0.0197424090    0.0004075150    
0.0424656740    0.0194858650    0.0003995892    
0.0426883350    0.0193239110    0.0003999002    
0.0429109960    0.0207855880    0.0004160447    
0.0431336570    0.0195483530    0.0003977879    
0.0433563180    0.0191047700    0.0003966412    
0.0435789790    0.0199372710    0.0003988252    
0.0438016400    0.0193644010    0.0003951919    
0.0440243010    0.0200244550    0.0003977932    
0.0442469620    0.0194414280    0.0003943081    
0.0444696230    0.0194213450    0.0003926911    
0.0446922840    0.0198349970    0.0003956725    
0.0449149450    0.0200919170    0.0003929032    
0.0451376060    0.0196778420    0.0003936356    
0.0453602670    0.0197223200    0.0003899489    
0.0455829280    0.0193152010    0.0003854569    
0.0458055890    0.0197745910    0.0003922881    
0.0460282500    0.0200069540    0.0003898281    
0.0462509110    0.0197588570    0.0003849940    
0.0464735720    0.0198337450    0.0003859406    
0.0466962330    0.0193703170    0.0003831389    
0.0469188940    0.0202553300    0.0003906832    
0.0471415550    0.0198396540    0.0003886395    
0.0473642160    0.0195396020    0.0003802890    
0.0475868770    0.0198295920    0.0003811974    
0.0478095380    0.0202375460    0.0003834134    
0.0480321990    0.0195310740    0.0003774869    
0.0482548600    0.0195276010    0.0003758089    
0.0484775210    0.0194378130    0.0003786667    
0.0487001820    0.0194745390    0.0003734759    
0.0489228430    0.0197469590    0.0003758769    
0.0491455040    0.0199757290    0.0003754332    
0.0493681650    0.0199616340    0.0003785259    
0.0495908260    0.0199963430    0.0003724805    
0.0498134870    0.0188090830    0.0003646925    
0.0500361480    0.0195115290    0.0003704572    
0.0502588090    0.0199753540    0.0003692182    
0.0504814700    0.0192262910    0.0003669647    
0.0507041310    0.0194762030    0.0003649508    
0.0509267920    0.0190791660    0.0003627061    
0.0511494530    0.0198325080    0.0003673317    
0.0513721140    0.0192070830    0.0003646768    
0.0515947750    0.0196719250    0.0003641700    
0.0518174360    0.0191825410    0.0003574455    
0.0520400970    0.0193706800    0.0003567036    
0.0522627580    0.0195743900    0.0003616217    
0.0524854190    0.0199007790    0.0003675887    
0.0527080800    0.0193827000    0.0003655812    
0.0529307410    0.0194677480    0.0003681031    
0.0531534020    0.0199688530    0.0003714533    
0.0533760630    0.0194961130    0.0003681790    
0.0535987240    0.0202719500    0.0003736805    
0.0538213850    0.0196800510    0.0003724505    
0.0540440460    0.0191660520    0.0003658150    
0.0542667070    0.0191267480    0.0003679582    
0.0544893680    0.0199053670    0.0003755730    
0.0547120290    0.0194728100    0.0003689250    
0.0549346900    0.0193883520    0.0003683177    
0.0551573510    0.0198546770    0.0003771084    
0.0553800120    0.0199903010    0.0003751774    
0.0556026730    0.0201162180    0.0003841604    
0.0558253340    0.0197160050    0.0003835044    
0.0560479950    0.0197906210    0.0003842296    
0.0562706560    0.0199089820    0.0003891027    
0.0564933170    0.0197610650    0.0003910208    
0.0567159780    0.0195770580    0.0003845297    
0.0569386390    0.0197596910    0.0003923788    
0.0571613000    0.0191715610    0.0003781733    
0.0573839610    0.0195368050    0.0003785890    
0.0576066220    0.0197705330    0.0003819012    
0.0578292830    0.0192221960    0.0003753218    
0.0580519440    0.0188250460    0.0003728646    
0.0582746050    0.0198379530    0.0003810765    
0.0584972660    0.0203256350    0.0003842557    
0.0587199270    0.0197339700    0.0003753578    
0.0589425880    0.0198213320    0.0003739874    
0.0591652490    0.0196269170    0.0003743387    
0.0593879100    0.0197374140    0.0003726031    
0.0596105710    0.0190640690    0.0003658059    
0.0598332320    0.0199482650    0.0003773913    
0.0600558930    0.0193986510    0.0003697833    
0.0602785540    0.0192380810    0.0003678604    
0.0605012150    0.0197874970    0.0003722902    
0.0607238760    0.0190445700    0.0003625729    
0.0609465370    0.0189669730    0.0003646820    
0.0611691980    0.0197235150    0.0003724734    
0.0613918590    0.0198525930    0.0003696105    
0.0616145200    0.0189642310    0.0003638902    
0.0618371810    0.0194424470    0.0003648310    
0.0620598420    0.0191395540    0.0003623512    
0.0622825030    0.0199415680    0.0003755215    
0.0625051640    0.0196053440    0.0003671129    
0.0627278250    0.0196068360    0.0003663709    
0.0629504860    0.0192623980    0.0003601864    
0.0631731470    0.0196936620    0.0003687021    
0.0633958080    0.0197254900    0.0003711236    
0.0636184690    0.0191086960    0.0003703625    
0.0638411300    0.0196423350    0.0003740888    
0.0640637910    0.0197895590    0.0003781291    
0.0642864520    0.0202291570    0.0003814786    
0.0645091130    0.0190186620    0.0003731302    
0.0647317740    0.0186864520    0.0003702648    
0.0649544350    0.0195018600    0.0003778409    
0.0651770960    0.0190869310    0.0003717606    
0.0653997570    0.0192926160    0.0003729478    
0.0656224180    0.0199269180    0.0003798533    
0.0658450790    0.0193652360    0.0003690793    
0.0660677400    0.0199773570    0.0003764625    
0.0662904010    0.0192512590    0.0003739695    
0.0665130620    0.0205393550    0.0003846024    
0.0667357230    0.0195230940    0.0003816338    
0.0669583840    0.0195186470    0.0003803136    
0.0671810450    0.0194795950    0.0003778352    
0.0674037060    0.0192205610    0.0003816730    
0.0676263670    0.0194778810    0.0003814063    
0.0678490280    0.0200518880    0.0003846188    
0.0680716890    0.0198596380    0.0003836224    
0.0682943500    0.0196589540    0.0003774988    
0.0685170110    0.0193455660    0.0003706619    
0.0687396720    0.0195113460    0.0003712576    
0.0689623330    0.0203004170    0.0003774903    
0.0691849940    0.0198282800    0.0003756596    
0.0694076550    0.0200843910    0.0003778761    
0.0696303160    0.0194597420    0.0003690087    
0.0698529770    0.0198869290    0.0003722552    
0.0700756380    0.0190469070    0.0003596317    
0.0702982990    0.0201509820    0.0003739365    
0.0705209600    0.0200115280    0.0003699500    
0.0707436210    0.0200856560    0.0003689325    
0.0709662820    0.0195751160    0.0003685554    
0.0711889430    0.0194560040    0.0003629195    
0.0714116040    0.0198346050    0.0003671816    
0.0716342650    0.0202941490    0.0003699028    
0.0718569260    0.0197029710    0.0003630073    
0.0720795870    0.0194177080    0.0003618276    
0.0723022480    0.0193010990    0.0003612893    
0.0725249090    0.0189406010    0.0003536132    
0.0727475700    0.0193394060    0.0003603685    
0.0729702310    0.0190321510    0.0003546432    
0.0731928920    0.0192445370    0.0003580418    
0.0734155530    0.0189488670    0.0003545718    
0.0736382140    0.0194334720    0.0003567727    
0.0738608750    0.0193138290    0.0003579705    
0.0740835360    0.0192378570    0.0003563788    
0.0743061970    0.0198357450    0.0003567788    
0.0745288580    0.0198855180    0.0003608993    
0.0747515190    0.0198326270    0.0003611308    
0.0749741800    0.0198544410    0.0003579847    
0.0751968410    0.0198265120    0.0003605416    
0.0754195020    0.0199447830    0.0003594968    
0.0756421630    0.0193331950    0.0003510488    
0.0758648240    0.0196696480    0.0003549414    
0.0760874850    0.0199003150    0.0003568451    
0.0763101460    0.0193192900    0.0003512598    
0.0765328070    0.0200360550    0.0003613768    
0.0767554680    0.0195528800    0.0003545704    
0.0769781290    0.0192970240    0.0003502188    
0.0772007900    0.0192639320    0.0003471120    
0.0774234510    0.0196798020    0.0003528342    
0.0776461120    0.0187837980    0.0003443816    
0.0778687730    0.0196697260    0.0003512451    
0.0780914340    0.0199327380    0.0003561121    
0.0783140950    0.0192682820    0.0003445712    
0.0785367560    0.0194938010    0.0003521698    
0.0787594170    0.0193460100    0.0003476890    
0.0789820780    0.0195379070    0.0003476188    
0.0792047390    0.0197468020    0.0003506147    
0.0794274000    0.0192866700    0.0003479739    
0.0796500610    0.0194106820    0.0003456836    
0.0798727220    0.0197988610    0.0003488008    
0.0800953830    0.0197201350    0.0003473061    
0.0803180440    0.0195368800    0.0003480967    
0.0805407050    0.0193457930    0.0003460681    
0.0807633660    0.0188588160    0.0003413675    
0.0809860270    0.0194558260    0.0003454483    
0.0812086880    0.0194405030    0.0003423282    
0.0814313490    0.0198311440    0.0003473273    
0.0816540100    0.0200558350    0.0003484942    
0.0818766710    0.0197703690    0.0003467952    
0.0820993320    0.0195165440    0.0003439339    
0.0823219930    0.0198917560    0.0003486564    
0.0825446540    0.0200675040    0.0003476489    
0.0827673150    0.0194779030    0.0003402027    
0.0829899760    0.0194145370    0.0003390442    
0.0832126370    0.0194215710    0.0003406245    
0.0834352980    0.0195905540    0.0003413382    
0.0836579590    0.0198646110    0.0003429524    
0.0838806200    0.0196197310    0.0003418985    
0.0841032810    0.0197358390    0.0003407800    
0.0843259420    0.0192051040    0.0003351314    
0.0845486030    0.0195618670    0.0003382301    
0.0847712640    0.0193703810    0.0003345195    
0.0849939250    0.0201799410    0.0003420329    
0.0852165860    0.0194191130    0.0003359628    
0.0854392470    0.0196689600    0.0003349152    
0.0856619080    0.0196877550    0.0003375429    
0.0858845690    0.0193062990    0.0003312465    
0.0861072300    0.0196256350    0.0003362803    
0.0863298910    0.0196744990    0.0003384617    
0.0865525520    0.0196738130    0.0003355333    
0.0867752130    0.0194476850    0.0003309076    
0.0869978740    0.0200789040    0.0003370918    
0.0872205350    0.0193222410    0.0003302585    
0.0874431960    0.0195762880    0.0003324228    
0.0876658570    0.0191011970    0.0003296251    
0.0878885180    0.0200514610    0.0003383038    
0.0881111790    0.0193908670    0.0003322576    
0.0883338400    0.0198608800    0.0003313370    
0.0885565010    0.0188870050    0.0003274930    
0.0887791620    0.0195289200    0.0003286933    
0.0890018230    0.0196783550    0.0003331488    
0.0892244840    0.0191907080    0.0003295544    
0.0894471450    0.0191467710    0.0003277865    
0.0896698060    0.0194871320    0.0003294397    
0.0898924670    0.0192578700    0.0003290141    
0.0901151280    0.0199826600    0.0003315283    
0.0903377890    0.0197928160    0.0003327111    
0.0905604500    0.0195062740    0.0003287782    
0.0907831110    0.0194975650    0.0003278870    
0.0910057720    0.0193207780    0.0003278950    
0.0912284330    0.0186849720    0.0003178378    
0.0914510940    0.0192864360    0.0003265138    
0.0916737550    0.0192073330    0.0003250349    
0.0918964160    0.0191400300    0.0003258143    
0.0921190770    0.0192693130    0.0003239570    
0.0923417380    0.0192469700    0.0003239019    
0.0925643990    0.0195163070    0.0003253622    
0.0927870600    0.0198790480    0.0003297185    
0.0930097210    0.0199397020    0.0003274087    
0.0932323820    0.0190992130    0.0003227895    
