# Diamond Light Source Ltd.
# Data extracted from: /dls/b21/data/2018/cm19678-3/processed/b21-386631_00791.dat
q(1/A)          Column          Error           
0.0035000000    2.0467483000    0.0243333110    
0.0037226610    1.8638790000    0.0227319220    
0.0039453220    1.5900146000    0.0191000500    
0.0041679830    1.2765899000    0.0140547920    
0.0043906440    0.9564400000    0.0116362460    
0.0046133050    0.7684420100    0.0100127520    
0.0048359660    0.5866967000    0.0082756556    
0.0050586270    0.4621532300    0.0072193820    
0.0052812880    0.4159598200    0.0064757007    
0.0055039490    0.3826358900    0.0059056063    
0.0057266100    0.3082049000    0.0051274987    
0.0059492710    0.2662351500    0.0047656101    
0.0061719320    0.2274947700    0.0042450148    
0.0063945930    0.1977461300    0.0040057167    
0.0066172539    0.1800804800    0.0035894262    
0.0068399149    0.1717499000    0.0034502124    
0.0070625759    0.1449567000    0.0031371793    
0.0072852369    0.1266847800    0.0028889152    
0.0075078979    0.1140922700    0.0027281065    
0.0077305589    0.1009989400    0.0025179019    
0.0079532199    0.0997452580    0.0024675515    
0.0081758809    0.0873072070    0.0023300570    
0.0083985419    0.0818466010    0.0021041717    
0.0086212029    0.0749223800    0.0020131989    
0.0088438639    0.0714879700    0.0019507201    
0.0090665249    0.0637072550    0.0017785889    
0.0092891859    0.0638869110    0.0018590323    
0.0095118469    0.0597337610    0.0017286923    
0.0097345079    0.0573827970    0.0016455646    
0.0099571689    0.0520985120    0.0015356338    
0.0101798300    0.0508311380    0.0015168406    
0.0104024910    0.0478351790    0.0014664815    
0.0106251520    0.0452184550    0.0014306486    
0.0108478130    0.0470485780    0.0014211543    
0.0110704740    0.0435413320    0.0013016274    
0.0112931350    0.0429755300    0.0012969406    
0.0115157960    0.0410831730    0.0012606709    
0.0117384570    0.0380976050    0.0012035491    
0.0119611180    0.0391578460    0.0012236827    
0.0121837790    0.0357825290    0.0011500940    
0.0124064400    0.0348983840    0.0010884507    
0.0126291010    0.0328385510    0.0010426250    
0.0128517620    0.0341006250    0.0010651246    
0.0130744230    0.0313022750    0.0010129178    
0.0132970840    0.0291143610    0.0009721002    
0.0135197450    0.0322598210    0.0010086120    
0.0137424060    0.0309692380    0.0009744731    
0.0139650670    0.0291652840    0.0009246017    
0.0141877280    0.0296181990    0.0009338124    
0.0144103890    0.0286624880    0.0009027835    
0.0146330500    0.0287208050    0.0008979637    
0.0148557110    0.0287031920    0.0008939246    
0.0150783720    0.0289974120    0.0008910688    
0.0153010330    0.0280790310    0.0008644819    
0.0155236940    0.0268781990    0.0008407652    
0.0157463550    0.0262088710    0.0008158465    
0.0159690160    0.0276989810    0.0008355356    
0.0161916770    0.0267149080    0.0008159364    
0.0164143380    0.0260080410    0.0008111685    
0.0166369990    0.0245953340    0.0007645089    
0.0168596600    0.0269654490    0.0007934447    
0.0170823210    0.0245273360    0.0007501732    
0.0173049820    0.0245431420    0.0007517121    
0.0175276430    0.0244992180    0.0007589591    
0.0177503040    0.0250523030    0.0007479132    
0.0179729650    0.0235729170    0.0007182994    
0.0181956260    0.0229304270    0.0006948614    
0.0184182870    0.0222559030    0.0006813386    
0.0186409480    0.0245874820    0.0007206719    
0.0188636090    0.0238620150    0.0007054953    
0.0190862700    0.0224151010    0.0006827022    
0.0193089310    0.0239413710    0.0007044627    
0.0195315920    0.0239073940    0.0006800221    
0.0197542530    0.0219596130    0.0006526817    
0.0199769140    0.0231623560    0.0006703175    
0.0201995750    0.0221418910    0.0006451223    
0.0204222360    0.0229634220    0.0006626209    
0.0206448970    0.0226570180    0.0006535074    
0.0208675580    0.0232342400    0.0006481520    
0.0210902190    0.0218047370    0.0006339551    
0.0213128800    0.0225442010    0.0006358683    
0.0215355410    0.0223954910    0.0006262177    
0.0217582020    0.0210647270    0.0006073276    
0.0219808630    0.0225113700    0.0006270114    
0.0222035240    0.0223281840    0.0006187966    
0.0224261850    0.0209049440    0.0005934213    
0.0226488460    0.0224505980    0.0006103501    
0.0228715070    0.0216457340    0.0005978207    
0.0230941680    0.0218438730    0.0006005508    
0.0233168290    0.0207249310    0.0005864242    
0.0235394900    0.0209840770    0.0005835668    
0.0237621510    0.0209451440    0.0005673296    
0.0239848120    0.0215635300    0.0005763096    
0.0242074730    0.0215986250    0.0005721616    
0.0244301340    0.0211618170    0.0005669926    
0.0246527950    0.0205806610    0.0005643305    
0.0248754560    0.0204644420    0.0005500876    
0.0250981170    0.0210607940    0.0005592894    
0.0253207780    0.0202692540    0.0005322967    
0.0255434390    0.0210040800    0.0005476427    
0.0257661000    0.0207809030    0.0005464875    
0.0259887610    0.0219733970    0.0005559768    
0.0262114220    0.0208574770    0.0005445612    
0.0264340830    0.0214972870    0.0005453284    
0.0266567440    0.0200437540    0.0005233160    
0.0268794050    0.0205445120    0.0005276503    
0.0271020660    0.0212119280    0.0005339820    
0.0273247270    0.0214227480    0.0005334061    
0.0275473880    0.0204777260    0.0005204706    
0.0277700490    0.0207200330    0.0005204462    
0.0279927100    0.0212078430    0.0005219429    
0.0282153710    0.0196246070    0.0005045236    
0.0284380320    0.0206798140    0.0005149078    
0.0286606930    0.0199240580    0.0005010855    
0.0288833540    0.0212521860    0.0005185002    
0.0291060150    0.0199240060    0.0005015603    
0.0293286760    0.0203547490    0.0004998889    
0.0295513370    0.0204423360    0.0004955081    
0.0297739980    0.0215824400    0.0005147438    
0.0299966590    0.0201872840    0.0004893258    
0.0302193200    0.0203892570    0.0004989341    
0.0304419810    0.0200109640    0.0004951935    
0.0306646420    0.0204248440    0.0004861680    
0.0308873030    0.0204552830    0.0004844286    
0.0311099640    0.0202502820    0.0004832466    
0.0313326250    0.0196010970    0.0004701706    
0.0315552860    0.0204364620    0.0004863068    
0.0317779470    0.0205300390    0.0004878435    
0.0320006080    0.0205156030    0.0004765918    
0.0322232690    0.0206542330    0.0004802012    
0.0324459300    0.0210398890    0.0004810453    
0.0326685910    0.0213542520    0.0004838268    
0.0328912520    0.0205579540    0.0004762922    
0.0331139130    0.0198223380    0.0004616091    
0.0333365740    0.0203299600    0.0004690003    
0.0335592350    0.0205139570    0.0004665879    
0.0337818960    0.0197184200    0.0004570871    
0.0340045570    0.0199832550    0.0004594155    
0.0342272170    0.0199411850    0.0004571214    
0.0344498780    0.0198987830    0.0004584437    
0.0346725390    0.0192601340    0.0004426740    
0.0348952000    0.0206880770    0.0004567004    
0.0351178610    0.0203691680    0.0004552409    
0.0353405220    0.0199218770    0.0004481638    
0.0355631830    0.0201623400    0.0004491624    
0.0357858440    0.0208327630    0.0004565691    
0.0360085050    0.0195495080    0.0004436201    
0.0362311660    0.0193430420    0.0004360258    
0.0364538270    0.0203394620    0.0004435268    
0.0366764880    0.0187550800    0.0004255928    
0.0368991490    0.0202013060    0.0004394705    
0.0371218100    0.0198387310    0.0004342628    
0.0373444710    0.0209628650    0.0004512580    
0.0375671320    0.0196039610    0.0004357512    
0.0377897930    0.0204126950    0.0004331378    
0.0380124540    0.0201577960    0.0004331256    
0.0382351150    0.0195621960    0.0004266790    
0.0384577760    0.0199167490    0.0004263744    
0.0386804370    0.0203701750    0.0004344911    
0.0389030980    0.0196885820    0.0004239253    
0.0391257590    0.0206557560    0.0004312652    
0.0393484200    0.0199803300    0.0004227281    
0.0395710810    0.0209220180    0.0004331579    
0.0397937420    0.0195678850    0.0004189059    
0.0400164030    0.0204235750    0.0004297082    
0.0402390640    0.0206138330    0.0004259565    
0.0404617250    0.0195884880    0.0004127782    
0.0406843860    0.0205341050    0.0004185407    
0.0409070470    0.0192570600    0.0004095393    
0.0411297080    0.0197490080    0.0004107252    
0.0413523690    0.0199368140    0.0004137373    
0.0415750300    0.0202769580    0.0004207961    
0.0417976910    0.0202940680    0.0004100858    
0.0420203520    0.0192112000    0.0004004941    
0.0422430130    0.0205178490    0.0004154569    
0.0424656740    0.0194791500    0.0003995355    
0.0426883350    0.0190191520    0.0003967493    
0.0429109960    0.0194629840    0.0004026059    
0.0431336570    0.0205050680    0.0004074212    
0.0433563180    0.0191391630    0.0003970131    
0.0435789790    0.0201302750    0.0004007662    
0.0438016400    0.0191077680    0.0003925793    
0.0440243010    0.0197414720    0.0003949875    
0.0442469620    0.0189550330    0.0003893591    
0.0444696230    0.0193513550    0.0003919978    
0.0446922840    0.0199864810    0.0003971956    
0.0449149450    0.0187333900    0.0003794019    
0.0451376060    0.0201124550    0.0003979739    
0.0453602670    0.0197006860    0.0003897498    
0.0455829280    0.0196474590    0.0003887729    
0.0458055890    0.0199239660    0.0003937820    
0.0460282500    0.0192716400    0.0003826119    
0.0462509110    0.0201654680    0.0003889499    
0.0464735720    0.0204436020    0.0003918441    
0.0466962330    0.0193338940    0.0003827931    
0.0469188940    0.0203397650    0.0003915115    
0.0471415550    0.0200467290    0.0003906772    
0.0473642160    0.0192154010    0.0003771352    
0.0475868770    0.0198384270    0.0003812967    
0.0478095380    0.0196433890    0.0003777575    
0.0480321990    0.0201600510    0.0003835316    
0.0482548600    0.0192252990    0.0003729028    
0.0484775210    0.0189671400    0.0003740682    
0.0487001820    0.0197911870    0.0003765142    
0.0489228430    0.0198486310    0.0003768576    
0.0491455040    0.0201324920    0.0003769178    
0.0493681650    0.0202215730    0.0003809970    
0.0495908260    0.0199423520    0.0003719915    
0.0498134870    0.0197439650    0.0003736601    
0.0500361480    0.0194074970    0.0003694823    
0.0502588090    0.0190691420    0.0003607596    
0.0504814700    0.0206707080    0.0003805141    
0.0507041310    0.0191288900    0.0003616959    
0.0509267920    0.0196322780    0.0003679400    
0.0511494530    0.0193509220    0.0003628581    
0.0513721140    0.0199217640    0.0003714137    
0.0515947750    0.0201790760    0.0003688484    
0.0518174360    0.0197768370    0.0003629541    
0.0520400970    0.0196874660    0.0003596222    
0.0522627580    0.0197629490    0.0003633730    
0.0524854190    0.0204047710    0.0003722284    
0.0527080800    0.0189911100    0.0003618832    
0.0529307410    0.0189958960    0.0003636286    
0.0531534020    0.0194659280    0.0003667598    
0.0533760630    0.0198035480    0.0003710847    
0.0535987240    0.0203905980    0.0003747866    
0.0538213850    0.0188849790    0.0003648633    
0.0540440460    0.0199635350    0.0003733622    
0.0542667070    0.0194113710    0.0003706999    
0.0544893680    0.0195667120    0.0003723785    
0.0547120290    0.0195651600    0.0003698128    
0.0549346900    0.0193268490    0.0003677471    
0.0551573510    0.0197200860    0.0003758423    
0.0553800120    0.0194636800    0.0003702166    
0.0556026730    0.0197802490    0.0003809534    
0.0558253340    0.0196205190    0.0003825891    
0.0560479950    0.0196130780    0.0003825167    
0.0562706560    0.0191347610    0.0003814764    
0.0564933170    0.0197316140    0.0003907442    
0.0567159780    0.0196842930    0.0003855961    
0.0569386390    0.0201975590    0.0003967175    
0.0571613000    0.0196728590    0.0003831002    
0.0573839610    0.0200885600    0.0003839123    
0.0576066220    0.0195285720    0.0003795714    
0.0578292830    0.0194435220    0.0003774908    
0.0580519440    0.0198235620    0.0003826401    
0.0582746050    0.0193709260    0.0003765785    
0.0584972660    0.0195062460    0.0003764450    
0.0587199270    0.0194498620    0.0003726602    
0.0589425880    0.0198581230    0.0003743485    
0.0591652490    0.0200568200    0.0003784306    
0.0593879100    0.0195489800    0.0003708342    
0.0596105710    0.0195849750    0.0003707840    
0.0598332320    0.0195142270    0.0003732773    
0.0600558930    0.0197103010    0.0003727560    
0.0602785540    0.0200485180    0.0003755431    
0.0605012150    0.0192005840    0.0003667414    
0.0607238760    0.0191219510    0.0003633225    
0.0609465370    0.0188421910    0.0003634943    
0.0611691980    0.0193381100    0.0003688304    
0.0613918590    0.0185396700    0.0003571932    
0.0616145200    0.0196569830    0.0003704910    
0.0618371810    0.0195397740    0.0003657569    
0.0620598420    0.0199231130    0.0003697080    
0.0622825030    0.0193490330    0.0003699144    
0.0625051640    0.0201361890    0.0003720640    
0.0627278250    0.0197589480    0.0003678033    
0.0629504860    0.0192840680    0.0003604027    
0.0631731470    0.0199091610    0.0003707280    
0.0633958080    0.0201389850    0.0003750075    
0.0636184690    0.0196342050    0.0003754349    
0.0638411300    0.0198219540    0.0003758096    
0.0640637910    0.0195959690    0.0003762893    
0.0642864520    0.0190651980    0.0003703551    
0.0645091130    0.0194227650    0.0003770878    
0.0647317740    0.0192895230    0.0003762064    
0.0649544350    0.0198693950    0.0003813991    
0.0651770960    0.0191970020    0.0003728452    
0.0653997570    0.0195608530    0.0003755458    
0.0656224180    0.0190811830    0.0003717192    
0.0658450790    0.0203656430    0.0003785069    
0.0660677400    0.0195957570    0.0003728638    
0.0662904010    0.0200300950    0.0003814737    
0.0665130620    0.0189636150    0.0003695691    
0.0667357230    0.0204571610    0.0003906714    
0.0669583840    0.0192088750    0.0003772979    
0.0671810450    0.0198402070    0.0003813310    
0.0674037060    0.0192447590    0.0003819277    
0.0676263670    0.0193598560    0.0003802635    
0.0678490280    0.0197804250    0.0003820210    
0.0680716890    0.0198240920    0.0003832935    
0.0682943500    0.0202331520    0.0003829866    
0.0685170110    0.0196027230    0.0003731315    
0.0687396720    0.0196894470    0.0003729624    
0.0689623330    0.0195788940    0.0003707353    
0.0691849940    0.0203137860    0.0003802453    
0.0694076550    0.0198655050    0.0003758256    
0.0696303160    0.0191952980    0.0003665067    
0.0698529770    0.0195957580    0.0003695340    
0.0700756380    0.0193607330    0.0003625962    
0.0702982990    0.0200484200    0.0003729979    
0.0705209600    0.0201703620    0.0003714294    
0.0707436210    0.0195856800    0.0003643256    
0.0709662820    0.0195280250    0.0003681258    
0.0711889430    0.0199449350    0.0003674652    
0.0714116040    0.0194962190    0.0003640498    
0.0716342650    0.0197090710    0.0003645455    
0.0718569260    0.0194904340    0.0003610578    
0.0720795870    0.0191764430    0.0003595864    
0.0723022480    0.0199383190    0.0003672187    
0.0725249090    0.0191665180    0.0003557294    
0.0727475700    0.0194751860    0.0003616451    
0.0729702310    0.0196614410    0.0003604723    
0.0731928920    0.0203585230    0.0003682728    
0.0734155530    0.0198925140    0.0003633071    
0.0736382140    0.0195070020    0.0003574606    
0.0738608750    0.0195143550    0.0003598377    
0.0740835360    0.0191931020    0.0003559776    
0.0743061970    0.0195612880    0.0003543154    
0.0745288580    0.0200049350    0.0003619951    
0.0747515190    0.0203668140    0.0003659759    
0.0749741800    0.0196235640    0.0003559108    
0.0751968410    0.0199067000    0.0003612837    
0.0754195020    0.0193306720    0.0003539324    
0.0756421630    0.0195195320    0.0003527498    
0.0758648240    0.0193252470    0.0003518337    
0.0760874850    0.0191979040    0.0003505042    
0.0763101460    0.0194229500    0.0003522143    
0.0765328070    0.0190728520    0.0003525969    
0.0767554680    0.0196250980    0.0003552381    
0.0769781290    0.0194001950    0.0003511671    
0.0772007900    0.0193404550    0.0003478139    
0.0774234510    0.0188462180    0.0003452939    
0.0776461120    0.0193345740    0.0003494073    
0.0778687730    0.0198719470    0.0003530595    
0.0780914340    0.0194697770    0.0003519656    
0.0783140950    0.0193313690    0.0003451480    
0.0785367560    0.0191389720    0.0003489632    
0.0787594170    0.0198474140    0.0003521792    
0.0789820780    0.0193723870    0.0003461563    
0.0792047390    0.0192938170    0.0003465831    
0.0794274000    0.0195769540    0.0003505961    
0.0796500610    0.0192520810    0.0003442816    
0.0798727220    0.0194869510    0.0003460555    
0.0800953830    0.0193974250    0.0003444657    
0.0803180440    0.0190111380    0.0003433941    
0.0805407050    0.0194587030    0.0003470897    
0.0807633660    0.0189838420    0.0003425102    
0.0809860270    0.0195370460    0.0003461818    
0.0812086880    0.0197494340    0.0003450505    
0.0814313490    0.0199056540    0.0003479924    
0.0816540100    0.0195910490    0.0003444455    
0.0818766710    0.0201186390    0.0003498497    
0.0820993320    0.0194695340    0.0003435325    
0.0823219930    0.0197893690    0.0003477711    
0.0825446540    0.0195811550    0.0003434233    
0.0827673150    0.0189445610    0.0003355254    
0.0829899760    0.0190252040    0.0003356402    
0.0832126370    0.0194409690    0.0003408075    
0.0834352980    0.0194433470    0.0003400663    
0.0836579590    0.0198128270    0.0003425181    
0.0838806200    0.0195735530    0.0003415089    
0.0841032810    0.0194901800    0.0003386653    
0.0843259420    0.0200955390    0.0003428255    
0.0845486030    0.0196452320    0.0003389629    
0.0847712640    0.0196087290    0.0003365840    
0.0849939250    0.0199147840    0.0003397913    
0.0852165860    0.0193857120    0.0003356865    
0.0854392470    0.0195164670    0.0003336270    
0.0856619080    0.0192378210    0.0003336763    
0.0858845690    0.0187734920    0.0003266561    
0.0861072300    0.0193505250    0.0003339277    
0.0863298910    0.0195245940    0.0003371827    
0.0865525520    0.0197554280    0.0003362413    
0.0867752130    0.0197194460    0.0003332243    
0.0869978740    0.0194918260    0.0003321398    
0.0872205350    0.0194253230    0.0003311509    
0.0874431960    0.0194535800    0.0003313919    
0.0876658570    0.0199957730    0.0003372683    
0.0878885180    0.0196990740    0.0003353307    
0.0881111790    0.0199275360    0.0003368368    
0.0883338400    0.0199231980    0.0003318690    
0.0885565010    0.0198027630    0.0003353512    
0.0887791620    0.0193422920    0.0003271314    
0.0890018230    0.0195501170    0.0003320742    
0.0892244840    0.0195317500    0.0003324824    
0.0894471450    0.0189293560    0.0003259325    
0.0896698060    0.0190931590    0.0003261050    
0.0898924670    0.0188995550    0.0003259513    
0.0901151280    0.0200831910    0.0003323738    
0.0903377890    0.0190336440    0.0003262804    
0.0905604500    0.0197959390    0.0003312229    
0.0907831110    0.0195486750    0.0003283290    
0.0910057720    0.0195170260    0.0003295685    
0.0912284330    0.0195028400    0.0003247318    
0.0914510940    0.0195864240    0.0003290558    
0.0916737550    0.0195278380    0.0003277479    
0.0918964160    0.0196517750    0.0003301537    
0.0921190770    0.0191019260    0.0003225591    
0.0923417380    0.0198753280    0.0003291592    
0.0925643990    0.0189482040    0.0003206039    
0.0927870600    0.0190820540    0.0003230536    
0.0930097210    0.0185863530    0.0003161146    
0.0932323820    0.0195916830    0.0003269370    
